C:\Users\Mark\ownCloud\Muelheim Group\Projects\Gas phase background\EX318_CEC356_Au Ag Cu in N2_clean.vms
Ag3d
	Characteristic Energy eV	1486.61	Acquisition Time s	0.9
KE_Ag3d	BE_Ag3d	CPS_Ag3d
1036.61	450	10249.6
1036.71	449.9	10243.8
1036.81	449.8	10255
1036.91	449.7	10198.8
1037.01	449.6	10309.5
1037.11	449.5	10232
1037.21	449.4	10217
1037.31	449.3	10309.2
1037.41	449.2	10202.9
1037.51	449.1	10226
1037.61	449	10150.8
1037.71	448.9	10223.9
1037.81	448.8	10198.3
1037.91	448.7	10289.9
1038.01	448.6	10258.7
1038.11	448.5	10305.4
1038.21	448.4	10306.5
1038.31	448.3	10255.1
1038.41	448.2	10197.5
1038.51	448.1	10268.8
1038.61	448	10187.5
1038.71	447.9	10220.7
1038.81	447.8	10303.3
1038.91	447.7	10233.3
1039.01	447.6	10222
1039.11	447.5	10262
1039.21	447.4	10288.1
1039.31	447.3	10259
1039.41	447.2	10336.1
1039.51	447.1	10327.6
1039.61	447	10342.3
1039.71	446.9	10240.7
1039.81	446.8	10166.1
1039.91	446.7	10291.7
1040.01	446.6	10266.6
1040.11	446.5	10239.6
1040.21	446.4	10351.8
1040.31	446.3	10230.6
1040.41	446.2	10226.2
1040.51	446.1	10307
1040.61	446	10248
1040.71	445.9	10232.6
1040.81	445.8	10245.7
1040.91	445.7	10237
1041.01	445.6	10273.7
1041.11	445.5	10288.9
1041.21	445.4	10269.7
1041.31	445.3	10200.1
1041.41	445.2	10264.3
1041.51	445.1	10215.9
1041.61	445	10239.5
1041.71	444.9	10216.1
1041.81	444.8	10285.2
1041.91	444.7	10294.2
1042.01	444.6	10251.3
1042.11	444.5	10299.3
1042.21	444.4	10316.2
1042.31	444.3	10186.4
1042.41	444.2	10230.9
1042.51	444.1	10210.7
1042.61	444	10263.2
1042.71	443.9	10287.4
1042.81	443.8	10211.3
1042.91	443.7	10335.9
1043.01	443.6	10352.2
1043.11	443.5	10249.3
1043.21	443.4	10313
1043.31	443.3	10280.6
1043.41	443.2	10292.2
1043.51	443.1	10184
1043.61	443	10321.6
1043.71	442.9	10350.9
1043.81	442.8	10292
1043.91	442.7	10273.5
1044.01	442.6	10328.3
1044.11	442.5	10333.3
1044.21	442.4	10259.8
1044.31	442.3	10258.8
1044.41	442.2	10322.4
1044.51	442.1	10274.4
1044.61	442	10286.5
1044.71	441.9	10224.9
1044.81	441.8	10288.7
1044.91	441.7	10342.2
1045.01	441.6	10377.7
1045.11	441.5	10258.8
1045.21	441.4	10378.5
1045.31	441.3	10398.6
1045.41	441.2	10254.5
1045.51	441.1	10250.1
1045.61	441	10277.2
1045.71	440.9	10320.3
1045.81	440.8	10302.8
1045.91	440.7	10275.2
1046.01	440.6	10350.9
1046.11	440.5	10270.8
1046.21	440.4	10201.1
1046.31	440.3	10230.4
1046.41	440.2	10297
1046.51	440.1	10281.5
1046.61	440	10338.3
1046.71	439.9	10269.8
1046.81	439.8	10306.5
1046.91	439.7	10331.8
1047.01	439.6	10345.2
1047.11	439.5	10372.5
1047.21	439.4	10355.4
1047.31	439.3	10379.8
1047.41	439.2	10257
1047.51	439.1	10195.3
1047.61	439	10254
1047.71	438.9	10317.7
1047.81	438.8	10351.1
1047.91	438.7	10350.7
1048.01	438.6	10342.1
1048.11	438.5	10288.8
1048.21	438.4	10339.9
1048.31	438.3	10332.8
1048.41	438.2	10316.7
1048.51	438.1	10277.3
1048.61	438	10311.5
1048.71	437.9	10283.1
1048.81	437.8	10323.6
1048.91	437.7	10270.4
1049.01	437.6	10211
1049.11	437.5	10334
1049.21	437.4	10359
1049.31	437.3	10342.8
1049.41	437.2	10301.1
1049.51	437.1	10332.2
1049.61	437	10326.5
1049.71	436.9	10306.5
1049.81	436.8	10240.3
1049.91	436.7	10284.1
1050.01	436.6	10281.7
1050.11	436.5	10228.5
1050.21	436.4	10244.6
1050.31	436.3	10333.5
1050.41	436.2	10287.6
1050.51	436.1	10289.7
1050.61	436	10211.8
1050.71	435.9	10332.5
1050.81	435.8	10352.4
1050.91	435.7	10219.8
1051.01	435.6	10252.3
1051.11	435.5	10316
1051.21	435.4	10238.5
1051.31	435.3	10271.4
1051.41	435.2	10305.3
1051.51	435.1	10323.9
1051.61	435	10317.2
1051.71	434.9	10294.1
1051.81	434.8	10305.8
1051.91	434.7	10256.3
1052.01	434.6	10315.9
1052.11	434.5	10281.4
1052.21	434.4	10238.5
1052.31	434.3	10233.3
1052.41	434.2	10348.2
1052.51	434.1	10287
1052.61	434	10211.9
1052.71	433.9	10260.2
1052.81	433.8	10339.5
1052.91	433.7	10332.1
1053.01	433.6	10292.3
1053.11	433.5	10293.9
1053.21	433.4	10298.8
1053.31	433.3	10346
1053.41	433.2	10330.2
1053.51	433.1	10377.9
1053.61	433	10304.3
1053.71	432.9	10285.3
1053.81	432.8	10374.4
1053.91	432.7	10292.1
1054.01	432.6	10261
1054.11	432.5	10310.4
1054.21	432.4	10276.6
1054.31	432.3	10360.1
1054.41	432.2	10323.8
1054.51	432.1	10436.6
1054.61	432	10433.2
1054.71	431.9	10435.9
1054.81	431.8	10369.5
1054.91	431.7	10347.5
1055.01	431.6	10316.4
1055.11	431.5	10355.2
1055.21	431.4	10354.2
1055.31	431.3	10381
1055.41	431.2	10374.7
1055.51	431.1	10417.7
1055.61	431	10353.9
1055.71	430.9	10345.9
1055.81	430.8	10290.1
1055.91	430.7	10309.6
1056.01	430.6	10305.7
1056.11	430.5	10384.6
1056.21	430.4	10336.9
1056.31	430.3	10337.6
1056.41	430.2	10340.8
1056.51	430.1	10380
1056.61	430	10420.3
1056.71	429.9	10361.7
1056.81	429.8	10351.7
1056.91	429.7	10441.1
1057.01	429.6	10414
1057.11	429.5	10341
1057.21	429.4	10316.8
1057.31	429.3	10389
1057.41	429.2	10315.9
1057.51	429.1	10350.6
1057.61	429	10424.9
1057.71	428.9	10396.9
1057.81	428.8	10414.9
1057.91	428.7	10429.7
1058.01	428.6	10431.3
1058.11	428.5	10342.9
1058.21	428.4	10357.8
1058.31	428.3	10338.3
1058.41	428.2	10408.1
1058.51	428.1	10374.5
1058.61	428	10325.5
1058.71	427.9	10469.1
1058.81	427.8	10457.1
1058.91	427.7	10467.2
1059.01	427.6	10414
1059.11	427.5	10388.5
1059.21	427.4	10400.5
1059.31	427.3	10341.7
1059.41	427.2	10447.6
1059.51	427.1	10427.4
1059.61	427	10426.9
1059.71	426.9	10411.9
1059.81	426.8	10382.8
1059.91	426.7	10330.5
1060.01	426.6	10417.2
1060.11	426.5	10404.8
1060.21	426.4	10425.8
1060.31	426.3	10480.5
1060.41	426.2	10489.2
1060.51	426.1	10442.3
1060.61	426	10423.7
1060.71	425.9	10416.6
1060.81	425.8	10488.3
1060.91	425.7	10426
1061.01	425.6	10518.2
1061.11	425.5	10522.3
1061.21	425.4	10512
1061.31	425.3	10475.2
1061.41	425.2	10407.6
1061.51	425.1	10402.3
1061.61	425	10495.9
1061.71	424.9	10497.7
1061.81	424.8	10536.3
1061.91	424.7	10468.2
1062.01	424.6	10427.6
1062.11	424.5	10554.8
1062.21	424.4	10585.9
1062.31	424.3	10502.5
1062.41	424.2	10525
1062.51	424.1	10503.8
1062.61	424	10517.1
1062.71	423.9	10539.6
1062.81	423.8	10511.2
1062.91	423.7	10539.1
1063.01	423.6	10556.6
1063.11	423.5	10555.2
1063.21	423.4	10594.1
1063.31	423.3	10530.3
1063.41	423.2	10541.3
1063.51	423.1	10434.8
1063.61	423	10483.2
1063.71	422.9	10533.5
1063.81	422.8	10536.3
1063.91	422.7	10507.2
1064.01	422.6	10466.9
1064.11	422.5	10550.6
1064.21	422.4	10570.4
1064.31	422.3	10456.6
1064.41	422.2	10532.2
1064.51	422.1	10562
1064.61	422	10494.3
1064.71	421.9	10595.5
1064.81	421.8	10529.6
1064.91	421.7	10501.3
1065.01	421.6	10474.9
1065.11	421.5	10637
1065.21	421.4	10622.8
1065.31	421.3	10539.5
1065.41	421.2	10512.3
1065.51	421.1	10400.5
1065.61	421	10496.5
1065.71	420.9	10476
1065.81	420.8	10514
1065.91	420.7	10504.3
1066.01	420.6	10599
1066.11	420.5	10578.5
1066.21	420.4	10559.3
1066.31	420.3	10559.2
1066.41	420.2	10505.6
1066.51	420.1	10467.5
1066.61	420	10418.6
1066.71	419.9	10493.5
1066.81	419.8	10428
1066.91	419.7	10447.1
1067.01	419.6	10385.7
1067.11	419.5	10462.4
1067.21	419.4	10446.6
1067.31	419.3	10445.8
1067.41	419.2	10396.1
1067.51	419.1	10440.2
1067.61	419	10550.4
1067.71	418.9	10515.8
1067.81	418.8	10415.5
1067.91	418.7	10435.2
1068.01	418.6	10485.4
1068.11	418.5	10409.7
1068.21	418.4	10475
1068.31	418.3	10498.4
1068.41	418.2	10454.2
1068.51	418.1	10423.4
1068.61	418	10470.3
1068.71	417.9	10563.3
1068.81	417.8	10503.8
1068.91	417.7	10489
1069.01	417.6	10461
1069.11	417.5	10556.1
1069.21	417.4	10531.4
1069.31	417.3	10548.9
1069.41	417.2	10537.3
1069.51	417.1	10576.3
1069.61	417	10503.3
1069.71	416.9	10567.1
1069.81	416.8	10557.6
1069.91	416.7	10520
1070.01	416.6	10540.5
1070.11	416.5	10526.8
1070.21	416.4	10583.6
1070.31	416.3	10504.4
1070.41	416.2	10474.3
1070.51	416.1	10550.5
1070.61	416	10538.3
1070.71	415.9	10563.7
1070.81	415.8	10595.9
1070.91	415.7	10623.6
1071.01	415.6	10543.5
1071.11	415.5	10523
1071.21	415.4	10574.6
1071.31	415.3	10585.5
1071.41	415.2	10608
1071.51	415.1	10632
1071.61	415	10572.3
1071.71	414.9	10565.3
1071.81	414.8	10670.9
1071.91	414.7	10546.3
1072.01	414.6	10598.5
1072.11	414.5	10624.4
1072.21	414.4	10498.7
1072.31	414.3	10593.3
1072.41	414.2	10534.9
1072.51	414.1	10626.2
1072.61	414	10686.5
1072.71	413.9	10658.6
1072.81	413.8	10685.5
1072.91	413.7	10567
1073.01	413.6	10600.8
1073.11	413.5	10683.6
1073.21	413.4	10596.8
1073.31	413.3	10516.9
1073.41	413.2	10593.4
1073.51	413.1	10685.6
1073.61	413	10661.6
1073.71	412.9	10558.6
1073.81	412.8	10683.2
1073.91	412.7	10637.2
1074.01	412.6	10701.2
1074.11	412.5	10714.2
1074.21	412.4	10672.1
1074.31	412.3	10690.5
1074.41	412.2	10689.8
1074.51	412.1	10794.3
1074.61	412	10751.5
1074.71	411.9	10713.7
1074.81	411.8	10726
1074.91	411.7	10763.1
1075.01	411.6	10747.5
1075.11	411.5	10703.2
1075.21	411.4	10744.4
1075.31	411.3	10663.4
1075.41	411.2	10780.6
1075.51	411.1	10807.3
1075.61	411	10761
1075.71	410.9	10787.3
1075.81	410.8	10752.9
1075.91	410.7	10752.8
1076.01	410.6	10718.9
1076.11	410.5	10800.9
1076.21	410.4	10721.6
1076.31	410.3	10802.8
1076.41	410.2	10937
1076.51	410.1	10760.3
1076.61	410	10704.6
1076.71	409.9	10818.9
1076.81	409.8	10839.7
1076.91	409.7	10764
1077.01	409.6	10830.2
1077.11	409.5	10836.5
1077.21	409.4	10845.9
1077.31	409.3	10846.1
1077.41	409.2	10876.7
1077.51	409.1	10817.6
1077.61	409	10900.3
1077.71	408.9	10870.9
1077.81	408.8	10925.1
1077.91	408.7	10899.9
1078.01	408.6	10870.9
1078.11	408.5	10870.8
1078.21	408.4	10942
1078.31	408.3	10987.6
1078.41	408.2	11023.6
1078.51	408.1	10999.4
1078.61	408	11010.9
1078.71	407.9	11003.9
1078.81	407.8	10966.9
1078.91	407.7	11019
1079.01	407.6	11068.5
1079.11	407.5	11105.2
1079.21	407.4	11034.1
1079.31	407.3	10990.4
1079.41	407.2	11073.7
1079.51	407.1	11117.2
1079.61	407	10958.1
1079.71	406.9	10939.4
1079.81	406.8	10971.9
1079.91	406.7	11063.5
1080.01	406.6	11045.7
1080.11	406.5	11083.9
1080.21	406.4	11063.9
1080.31	406.3	10954.2
1080.41	406.2	11001.8
1080.51	406.1	11028.5
1080.61	406	11080
1080.71	405.9	11117
1080.81	405.8	11104.2
1080.91	405.7	11128.7
1081.01	405.6	11176.6
1081.11	405.5	11141.7
1081.21	405.4	11086.6
1081.31	405.3	11099.3
1081.41	405.2	11117.1
1081.51	405.1	11164.3
1081.61	405	11204.6
1081.71	404.9	11155.2
1081.81	404.8	11205.4
1081.91	404.7	11203.6
1082.01	404.6	11289.6
1082.11	404.5	11143.9
1082.21	404.4	11201.6
1082.31	404.3	11262.8
1082.41	404.2	11305.3
1082.51	404.1	11379
1082.61	404	11307.4
1082.71	403.9	11340.6
1082.81	403.8	11312.3
1082.91	403.7	11393
1083.01	403.6	11227.1
1083.11	403.5	11238.6
1083.21	403.4	11306.6
1083.31	403.3	11452.8
1083.41	403.2	11371.8
1083.51	403.1	11331
1083.61	403	11485.2
1083.71	402.9	11479.1
1083.81	402.8	11274.2
1083.91	402.7	11398.9
1084.01	402.6	11543.6
1084.11	402.5	11516.3
1084.21	402.4	11559.2
1084.31	402.3	11545.2
1084.41	402.2	11564.4
1084.51	402.1	11553.1
1084.61	402	11616.9
1084.71	401.9	11570.1
1084.81	401.8	11691.7
1084.91	401.7	11572.9
1085.01	401.6	11582.1
1085.11	401.5	11649.5
1085.21	401.4	11653.9
1085.31	401.3	11577.9
1085.41	401.2	11653.1
1085.51	401.1	11742.8
1085.61	401	11811.1
1085.71	400.9	11784.5
1085.81	400.8	11798.6
1085.91	400.7	11777.3
1086.01	400.6	11751.7
1086.11	400.5	11826.2
1086.21	400.4	11799.8
1086.31	400.3	11859.5
1086.41	400.2	11875.9
1086.51	400.1	11903.5
1086.61	400	11922.6
1086.71	399.9	11961.9
1086.81	399.8	11934.8
1086.91	399.7	11889.5
1087.01	399.6	12038.2
1087.11	399.5	12007.5
1087.21	399.4	12024.1
1087.31	399.3	12113.2
1087.41	399.2	11996.2
1087.51	399.1	12074.2
1087.61	399	12020.6
1087.71	398.9	12016.4
1087.81	398.8	12024.6
1087.91	398.7	12139.3
1088.01	398.6	12019
1088.11	398.5	12038.1
1088.21	398.4	12046.2
1088.31	398.3	12070
1088.41	398.2	12057.6
1088.51	398.1	12171.7
1088.61	398	12014.2
1088.71	397.9	12055.6
1088.81	397.8	12027.4
1088.91	397.7	11945.8
1089.01	397.6	11988.2
1089.11	397.5	11959.7
1089.21	397.4	11949.5
1089.31	397.3	11813.2
1089.41	397.2	11851.9
1089.51	397.1	11886.6
1089.61	397	11894.6
1089.71	396.9	11913.9
1089.81	396.8	11846.9
1089.91	396.7	11810.6
1090.01	396.6	11872.5
1090.11	396.5	11865.4
1090.21	396.4	11898.3
1090.31	396.3	11919.1
1090.41	396.2	11908.4
1090.51	396.1	11936.2
1090.61	396	11975.6
1090.71	395.9	11884.5
1090.81	395.8	11955.4
1090.91	395.7	11997.6
1091.01	395.6	12025.7
1091.11	395.5	12061.7
1091.21	395.4	12056.1
1091.31	395.3	12118.2
1091.41	395.2	12237.5
1091.51	395.1	12244.1
1091.61	395	12231.1
1091.71	394.9	12237.8
1091.81	394.8	12267.7
1091.91	394.7	12320.1
1092.01	394.6	12378.6
1092.11	394.5	12410.2
1092.21	394.4	12470.3
1092.31	394.3	12504.4
1092.41	394.2	12511.6
1092.51	394.1	12512.5
1092.61	394	12523.6
1092.71	393.9	12567.4
1092.81	393.8	12623.6
1092.91	393.7	12506.5
1093.01	393.6	12587.9
1093.11	393.5	12482
1093.21	393.4	12602.2
1093.31	393.3	12598.4
1093.41	393.2	12517.1
1093.51	393.1	12550.3
1093.61	393	12572.5
1093.71	392.9	12710.5
1093.81	392.8	12662.5
1093.91	392.7	12477
1094.01	392.6	12567.5
1094.11	392.5	12611.3
1094.21	392.4	12587.8
1094.31	392.3	12525
1094.41	392.2	12464.5
1094.51	392.1	12427.1
1094.61	392	12468.8
1094.71	391.9	12502.8
1094.81	391.8	12458.8
1094.91	391.7	12467.7
1095.01	391.6	12418.3
1095.11	391.5	12395.9
1095.21	391.4	12429.1
1095.31	391.3	12382.8
1095.41	391.2	12366.2
1095.51	391.1	12248.9
1095.61	391	12319.3
1095.71	390.9	12358
1095.81	390.8	12296.5
1095.91	390.7	12233.5
1096.01	390.6	12357.1
1096.11	390.5	12213.5
1096.21	390.4	12130
1096.31	390.3	12174.4
1096.41	390.2	12130.6
1096.51	390.1	12214.8
1096.61	390	12137.7
1096.71	389.9	12168
1096.81	389.8	12169.2
1096.91	389.7	12095.1
1097.01	389.6	12017.6
1097.11	389.5	12027.8
1097.21	389.4	11999.5
1097.31	389.3	12039.9
1097.41	389.2	11941.6
1097.51	389.1	12052.3
1097.61	389	12058
1097.71	388.9	11997.3
1097.81	388.8	11972.2
1097.91	388.7	12018.5
1098.01	388.6	11984.4
1098.11	388.5	12030.1
1098.21	388.4	12066.7
1098.31	388.3	12095.3
1098.41	388.2	12117.3
1098.51	388.1	12098.8
1098.61	388	12161.5
1098.71	387.9	12131.6
1098.81	387.8	12142.2
1098.91	387.7	12016.5
1099.01	387.6	12241.2
1099.11	387.5	12235
1099.21	387.4	12250.6
1099.31	387.3	12260.8
1099.41	387.2	12252.3
1099.51	387.1	12260.4
1099.61	387	12186.1
1099.71	386.9	12146.7
1099.81	386.8	12159.4
1099.91	386.7	12129.1
1100.01	386.6	12250.1
1100.11	386.5	12178.5
1100.21	386.4	12090.2
1100.31	386.3	12021.5
1100.41	386.2	12086.6
1100.51	386.1	12080
1100.61	386	12102.6
1100.71	385.9	11993.5
1100.81	385.8	11897.4
1100.91	385.7	11951.7
1101.01	385.6	11943.7
1101.11	385.5	12008.2
1101.21	385.4	11956.7
1101.31	385.3	11876.9
1101.41	385.2	11880
1101.51	385.1	11814.3
1101.61	385	11796
1101.71	384.9	11819
1101.81	384.8	11813.5
1101.91	384.7	11907.8
1102.01	384.6	11845.6
1102.11	384.5	11769.1
1102.21	384.4	11840.4
1102.31	384.3	11822.2
1102.41	384.2	11906.3
1102.51	384.1	11860.6
1102.61	384	11859.4
1102.71	383.9	11820.3
1102.81	383.8	11860.2
1102.91	383.7	11859.8
1103.01	383.6	11905.5
1103.11	383.5	11938.6
1103.21	383.4	11869.9
1103.31	383.3	12013.6
1103.41	383.2	12024.4
1103.51	383.1	12038.6
1103.61	383	12083.8
1103.71	382.9	12090.3
1103.81	382.8	12077.3
1103.91	382.7	12093.9
1104.01	382.6	12176.7
1104.11	382.5	12149.5
1104.21	382.4	12206.8
1104.31	382.3	12202.7
1104.41	382.2	12274.5
1104.51	382.1	12242.1
1104.61	382	12269.6
1104.71	381.9	12171.8
1104.81	381.8	12113.8
1104.91	381.7	12107.7
1105.01	381.6	12060.8
1105.11	381.5	12026.2
1105.21	381.4	12013.1
1105.31	381.3	11981.5
1105.41	381.2	11919.9
1105.51	381.1	12000.1
1105.61	381	11909.3
1105.71	380.9	11818.6
1105.81	380.8	11773.5
1105.91	380.7	11719.8
1106.01	380.6	11583.1
1106.11	380.5	11596.8
1106.21	380.4	11537.5
1106.31	380.3	11475.6
1106.41	380.2	11455.8
1106.51	380.1	11326.1
1106.61	380	11403.2
1106.71	379.9	11428.4
1106.81	379.8	11394.3
1106.91	379.7	11418.1
1107.01	379.6	11396.5
1107.11	379.5	11384.7
1107.21	379.4	11370.4
1107.31	379.3	11413.6
1107.41	379.2	11458
1107.51	379.1	11510
1107.61	379	11588.6
1107.71	378.9	11774.6
1107.81	378.8	11939.7
1107.91	378.7	12026.2
1108.01	378.6	12235.1
1108.11	378.5	12603.6
1108.21	378.4	12964.9
1108.31	378.3	13255.6
1108.41	378.2	13546.8
1108.51	378.1	13847.8
1108.61	378	14107.5
1108.71	377.9	14031.7
1108.81	377.8	13561.7
1108.91	377.7	13140.1
1109.01	377.6	12732.5
1109.11	377.5	12225.9
1109.21	377.4	11917.7
1109.31	377.3	11743.8
1109.41	377.2	11663.6
1109.51	377.1	11739.9
1109.61	377	11713.3
1109.71	376.9	11761.6
1109.81	376.8	11900.3
1109.91	376.7	12079.1
1110.01	376.6	12298.5
1110.11	376.5	12460.9
1110.21	376.4	12726.5
1110.31	376.3	12920.1
1110.41	376.2	13295.5
1110.51	376.1	13523.4
1110.61	376	13953.7
1110.71	375.9	14315.1
1110.81	375.8	14790.9
1110.91	375.7	15218.8
1111.01	375.6	16093.9
1111.11	375.5	16824.6
1111.21	375.4	17735
1111.31	375.3	19358.7
1111.41	375.2	21235.5
1111.51	375.1	24047
1111.61	375	28215.7
1111.71	374.9	34676.1
1111.81	374.8	44371.5
1111.91	374.7	57954.6
1112.01	374.6	75395.3
1112.11	374.5	95676.6
1112.21	374.4	115749
1112.31	374.3	130315
1112.41	374.2	133688
1112.51	374.1	124293
1112.61	374	105274
1112.71	373.9	80998
1112.81	373.8	57859.2
1112.91	373.7	39743.8
1113.01	373.6	28190.3
1113.11	373.5	21426.4
1113.21	373.4	17207
1113.31	373.3	14761.8
1113.41	373.2	13108.8
1113.51	373.1	12033.9
1113.61	373	11465.1
1113.71	372.9	11050.9
1113.81	372.8	10851.2
1113.91	372.7	10656.3
1114.01	372.6	10782
1114.11	372.5	11081.8
1114.21	372.4	11220.2
1114.31	372.3	11495.9
1114.41	372.2	11897
1114.51	372.1	12134.5
1114.61	372	12140.4
1114.71	371.9	11864.5
1114.81	371.8	11361.6
1114.91	371.7	10713
1115.01	371.6	9887.1
1115.11	371.5	9093.46
1115.21	371.4	8552.76
1115.31	371.3	8073.88
1115.41	371.2	7804.44
1115.51	371.1	7627.63
1115.61	371	7547.84
1115.71	370.9	7580.86
1115.81	370.8	7682.61
1115.91	370.7	7819.18
1116.01	370.6	8014.9
1116.11	370.5	8308.43
1116.21	370.4	8564.84
1116.31	370.3	8907.98
1116.41	370.2	9281.27
1116.51	370.1	9747.02
1116.61	370	10190.9
1116.71	369.9	10809
1116.81	369.8	11540.5
1116.91	369.7	12355.7
1117.01	369.6	13424.8
1117.11	369.5	14786.3
1117.21	369.4	16469.5
1117.31	369.3	18535
1117.41	369.2	21584.8
1117.51	369.1	25725.5
1117.61	369	32139.5
1117.71	368.9	41577.4
1117.81	368.8	55397.8
1117.91	368.7	74539.9
1118.01	368.6	99738.8
1118.11	368.5	128970
1118.21	368.4	157531
1118.31	368.3	178150
1118.41	368.2	183323
1118.51	368.1	170421
1118.61	368	143265
1118.71	367.9	109024
1118.81	367.8	76053.9
1118.91	367.7	49733.9
1119.01	367.6	32863.2
1119.11	367.5	22680.5
1119.21	367.4	16447.3
1119.31	367.3	12714.4
1119.41	367.2	10142.4
1119.51	367.1	8398.07
1119.61	367	7236.68
1119.71	366.9	6361.83
1119.81	366.8	5654.36
1119.91	366.7	5212.78
1120.01	366.6	4727.62
1120.11	366.5	4387.17
1120.21	366.4	4073.35
1120.31	366.3	3857.21
1120.41	366.2	3691.87
1120.51	366.1	3479.97
1120.61	366	3316.83
1120.71	365.9	3208.39
1120.81	365.8	3103.38
1120.91	365.7	2973.51
1121.01	365.6	2862.31
1121.11	365.5	2791.19
1121.21	365.4	2710.67
1121.31	365.3	2593.77
1121.41	365.2	2519.84
1121.51	365.1	2462.47
1121.61	365	2420.7
1121.71	364.9	2374.35
1121.81	364.8	2322
1121.91	364.7	2280.94
1122.01	364.6	2252.2
1122.11	364.5	2197.21
1122.21	364.4	2138.14
1122.31	364.3	2096.46
1122.41	364.2	2121.2
1122.51	364.1	2053.96
1122.61	364	2029.47
1122.71	363.9	1988.42
1122.81	363.8	1958.87
1122.91	363.7	1934.16
1123.01	363.6	1944.5
1123.11	363.5	1890.42
1123.21	363.4	1910.65
1123.31	363.3	1895.49
1123.41	363.2	1877.29
1123.51	363.1	1908.87
1123.61	363	1887.14
1123.71	362.9	1831.75
1123.81	362.8	1816.7
1123.91	362.7	1801.27
1124.01	362.6	1822.47
1124.11	362.5	1761.5
1124.21	362.4	1786.13
1124.31	362.3	1808.22
1124.41	362.2	1785.02
1124.51	362.1	1735.32
1124.61	362	1732.73
1124.71	361.9	1723.49
1124.81	361.8	1722.52
1124.91	361.7	1716.41
1125.01	361.6	1709.23
1125.11	361.5	1691.72
1125.21	361.4	1698.19
1125.31	361.3	1683.15
1125.41	361.2	1668.91
1125.51	361.1	1684.03
1125.61	361	1642.2
1125.71	360.9	1661.56
1125.81	360.8	1629.38
1125.91	360.7	1635.3
1126.01	360.6	1621.46
1126.11	360.5	1649.96
1126.21	360.4	1634.38
1126.31	360.3	1634.6
1126.41	360.2	1611.05
1126.51	360.1	1646.47
1126.61	360	1635.41
1126.71	359.9	1617.66
1126.81	359.8	1611.18
1126.91	359.7	1617.39
1127.01	359.6	1617.88
1127.11	359.5	1614.89
1127.21	359.4	1593.95
1127.31	359.3	1604.67
1127.41	359.2	1597.95
1127.51	359.1	1555.83
1127.61	359	1590.53
1127.71	358.9	1602.94
1127.81	358.8	1615.16
1127.91	358.7	1604.42
1128.01	358.6	1599.84
1128.11	358.5	1594.62
1128.21	358.4	1621.69
1128.31	358.3	1568.94
1128.41	358.2	1602.82
1128.51	358.1	1646.76
1128.61	358	1630.4
1128.71	357.9	1564.29
1128.81	357.8	1548.18
1128.91	357.7	1572.82
1129.01	357.6	1608.4
1129.11	357.5	1619.16
1129.21	357.4	1576.55
1129.31	357.3	1578.64
1129.41	357.2	1590.46
1129.51	357.1	1567.05
1129.61	357	1568.66
1129.71	356.9	1527.75
1129.81	356.8	1533.62
1129.91	356.7	1568.4
1130.01	356.6	1577.89
1130.11	356.5	1565.96
1130.21	356.4	1554.99
1130.31	356.3	1563.7
1130.41	356.2	1542.73
1130.51	356.1	1517
1130.61	356	1525.52
1130.71	355.9	1583.25
1130.81	355.8	1566.89
1130.91	355.7	1529.99
1131.01	355.6	1552.45
1131.11	355.5	1551.71
1131.21	355.4	1570.81
1131.31	355.3	1612.3
1131.41	355.2	1548.07
1131.51	355.1	1554.78
1131.61	355	1550.05
1131.71	354.9	1554.22
1131.81	354.8	1520.99
1131.91	354.7	1528.18
1132.01	354.6	1601.31
1132.11	354.5	1588.86
1132.21	354.4	1524.37
1132.31	354.3	1524.13
1132.41	354.2	1541.95
1132.51	354.1	1527.33
1132.61	354	1544.7
1132.71	353.9	1541.26
1132.81	353.8	1551.05
1132.91	353.7	1580.93
1133.01	353.6	1564.43
1133.11	353.5	1566.59
1133.21	353.4	1566.96
1133.31	353.3	1562.14
1133.41	353.2	1524.53
1133.51	353.1	1536.16
1133.61	353	1546.94
1133.71	352.9	1536.61
1133.81	352.8	1526.53
1133.91	352.7	1531.25
1134.01	352.6	1527.88
1134.11	352.5	1519.01
1134.21	352.4	1532.01
1134.31	352.3	1545.52
1134.41	352.2	1523.56
1134.51	352.1	1551.12
1134.61	352	1518.59
1134.71	351.9	1523.65
1134.81	351.8	1520.88
1134.91	351.7	1532.44
1135.01	351.6	1547.04
1135.11	351.5	1533.41
1135.21	351.4	1521.62
1135.31	351.3	1520.52
1135.41	351.2	1541.5
1135.51	351.1	1538.34
1135.61	351	1534.17
1135.71	350.9	1555.79
1135.81	350.8	1497.13
1135.91	350.7	1526.56
1136.01	350.6	1542.41
1136.11	350.5	1550.15
1136.21	350.4	1529.95
1136.31	350.3	1519.92
1136.41	350.2	1557.31
1136.51	350.1	1524.52
1136.61	350	1541.21