C:\Users\Mark\ownCloud\Muelheim Group\Projects\Gas phase background\EX318_CEC356_Au Ag Cu in N2_clean.vms
Ag3d
	Characteristic Energy eV	1486.61	Acquisition Time s	3.6
KE_Ag3d	BE_Ag3d	CPS_Ag3d
1036.61	450	2144.46
1036.71	449.9	2132.27
1036.81	449.8	2138.62
1036.91	449.7	2126.91
1037.01	449.6	2154.07
1037.11	449.5	2159.79
1037.21	449.4	2147.24
1037.31	449.3	2143.72
1037.41	449.2	2153.51
1037.51	449.1	2138.46
1037.61	449	2154.96
1037.71	448.9	2149.58
1037.81	448.8	2152
1037.91	448.7	2115.08
1038.01	448.6	2163.04
1038.11	448.5	2163.05
1038.21	448.4	2151.44
1038.31	448.3	2121.02
1038.41	448.2	2115.26
1038.51	448.1	2138.78
1038.61	448	2150.97
1038.71	447.9	2149.51
1038.81	447.8	2154.46
1038.91	447.7	2161.05
1039.01	447.6	2153.45
1039.11	447.5	2164.27
1039.21	447.4	2159.41
1039.31	447.3	2148.59
1039.41	447.2	2160.87
1039.51	447.1	2139.99
1039.61	447	2145.68
1039.71	446.9	2165.54
1039.81	446.8	2163.1
1039.91	446.7	2164.36
1040.01	446.6	2151.52
1040.11	446.5	2172.38
1040.21	446.4	2158.57
1040.31	446.3	2150.74
1040.41	446.2	2189.99
1040.51	446.1	2143.06
1040.61	446	2141.39
1040.71	445.9	2174.43
1040.81	445.8	2191.66
1040.91	445.7	2138.89
1041.01	445.6	2123.85
1041.11	445.5	2169.43
1041.21	445.4	2178.94
1041.31	445.3	2159.35
1041.41	445.2	2162.11
1041.51	445.1	2150.37
1041.61	445	2149.53
1041.71	444.9	2132.6
1041.81	444.8	2204.8
1041.91	444.7	2168.49
1042.01	444.6	2147.75
1042.11	444.5	2163.12
1042.21	444.4	2165.51
1042.31	444.3	2151.67
1042.41	444.2	2168.12
1042.51	444.1	2163.81
1042.61	444	2156.6
1042.71	443.9	2175.34
1042.81	443.8	2129.48
1042.91	443.7	2156.99
1043.01	443.6	2168.6
1043.11	443.5	2164.33
1043.21	443.4	2169.23
1043.31	443.3	2182.72
1043.41	443.2	2164.07
1043.51	443.1	2132.34
1043.61	443	2161.32
1043.71	442.9	2160.67
1043.81	442.8	2165.49
1043.91	442.7	2150.88
1044.01	442.6	2152.15
1044.11	442.5	2159.91
1044.21	442.4	2154.06
1044.31	442.3	2166.37
1044.41	442.2	2165.76
1044.51	442.1	2151.38
1044.61	442	2161.37
1044.71	441.9	2145.83
1044.81	441.8	2150.85
1044.91	441.7	2179.74
1045.01	441.6	2157.61
1045.11	441.5	2145.56
1045.21	441.4	2154.14
1045.31	441.3	2155.48
1045.41	441.2	2173.5
1045.51	441.1	2174.07
1045.61	441	2159.06
1045.71	440.9	2156.09
1045.81	440.8	2161.92
1045.91	440.7	2148.92
1046.01	440.6	2154.33
1046.11	440.5	2176.95
1046.21	440.4	2196
1046.31	440.3	2152.28
1046.41	440.2	2169.05
1046.51	440.1	2148.01
1046.61	440	2173.03
1046.71	439.9	2153.91
1046.81	439.8	2156.4
1046.91	439.7	2172.47
1047.01	439.6	2154.66
1047.11	439.5	2201.04
1047.21	439.4	2178.88
1047.31	439.3	2157.61
1047.41	439.2	2163.69
1047.51	439.1	2172.11
1047.61	439	2172.69
1047.71	438.9	2139.05
1047.81	438.8	2146.68
1047.91	438.7	2184.79
1048.01	438.6	2169.23
1048.11	438.5	2181.76
1048.21	438.4	2183.15
1048.31	438.3	2187.7
1048.41	438.2	2184.37
1048.51	438.1	2179.64
1048.61	438	2183.26
1048.71	437.9	2194.31
1048.81	437.8	2169.41
1048.91	437.7	2162.77
1049.01	437.6	2133.9
1049.11	437.5	2144.41
1049.21	437.4	2149.56
1049.31	437.3	2179.34
1049.41	437.2	2165.77
1049.51	437.1	2171.53
1049.61	437	2200.09
1049.71	436.9	2203.38
1049.81	436.8	2207.24
1049.91	436.7	2173.25
1050.01	436.6	2176.52
1050.11	436.5	2185.8
1050.21	436.4	2204.39
1050.31	436.3	2178.45
1050.41	436.2	2200.7
1050.51	436.1	2196.42
1050.61	436	2213.13
1050.71	435.9	2199.16
1050.81	435.8	2218.83
1050.91	435.7	2191.67
1051.01	435.6	2201.46
1051.11	435.5	2210.52
1051.21	435.4	2221.1
1051.31	435.3	2218.52
1051.41	435.2	2225.01
1051.51	435.1	2191.79
1051.61	435	2170.11
1051.71	434.9	2188.76
1051.81	434.8	2183.99
1051.91	434.7	2203.79
1052.01	434.6	2215.27
1052.11	434.5	2183.37
1052.21	434.4	2204.96
1052.31	434.3	2198.71
1052.41	434.2	2187.88
1052.51	434.1	2189.74
1052.61	434	2194.1
1052.71	433.9	2190.77
1052.81	433.8	2165.41
1052.91	433.7	2173.5
1053.01	433.6	2200.94
1053.11	433.5	2188.61
1053.21	433.4	2161.8
1053.31	433.3	2172.97
1053.41	433.2	2160.94
1053.51	433.1	2176.3
1053.61	433	2199.26
1053.71	432.9	2199.09
1053.81	432.8	2198.52
1053.91	432.7	2205.3
1054.01	432.6	2191.1
1054.11	432.5	2209.87
1054.21	432.4	2166.38
1054.31	432.3	2159.84
1054.41	432.2	2170.86
1054.51	432.1	2178.37
1054.61	432	2179.18
1054.71	431.9	2171.17
1054.81	431.8	2177.05
1054.91	431.7	2187.38
1055.01	431.6	2181.46
1055.11	431.5	2154.82
1055.21	431.4	2165.94
1055.31	431.3	2185.73
1055.41	431.2	2200.89
1055.51	431.1	2171.93
1055.61	431	2141.71
1055.71	430.9	2163.97
1055.81	430.8	2198.59
1055.91	430.7	2182.15
1056.01	430.6	2186.77
1056.11	430.5	2182.96
1056.21	430.4	2189.77
1056.31	430.3	2199.35
1056.41	430.2	2199.4
1056.51	430.1	2168.71
1056.61	430	2184.67
1056.71	429.9	2190.19
1056.81	429.8	2185.23
1056.91	429.7	2213.81
1057.01	429.6	2192.94
1057.11	429.5	2199.45
1057.21	429.4	2184.66
1057.31	429.3	2161.44
1057.41	429.2	2163.84
1057.51	429.1	2200.95
1057.61	429	2191.56
1057.71	428.9	2193.53
1057.81	428.8	2220.24
1057.91	428.7	2202.96
1058.01	428.6	2223.45
1058.11	428.5	2194.29
1058.21	428.4	2158.08
1058.31	428.3	2173.02
1058.41	428.2	2190.82
1058.51	428.1	2169.68
1058.61	428	2179.13
1058.71	427.9	2177.78
1058.81	427.8	2172.51
1058.91	427.7	2175.62
1059.01	427.6	2158.98
1059.11	427.5	2159.2
1059.21	427.4	2175.03
1059.31	427.3	2175.28
1059.41	427.2	2167.68
1059.51	427.1	2153.54
1059.61	427	2149.91
1059.71	426.9	2152.58
1059.81	426.8	2152.4
1059.91	426.7	2163.88
1060.01	426.6	2143.95
1060.11	426.5	2157.77
1060.21	426.4	2167.49
1060.31	426.3	2168.21
1060.41	426.2	2151.34
1060.51	426.1	2161.01
1060.61	426	2143.11
1060.71	425.9	2146.32
1060.81	425.8	2152.97
1060.91	425.7	2193.41
1061.01	425.6	2192.15
1061.11	425.5	2199
1061.21	425.4	2197.22
1061.31	425.3	2190.81
1061.41	425.2	2201.66
1061.51	425.1	2199.09
1061.61	425	2183.94
1061.71	424.9	2193.86
1061.81	424.8	2203.89
1061.91	424.7	2172.74
1062.01	424.6	2179.34
1062.11	424.5	2171.19
1062.21	424.4	2160.32
1062.31	424.3	2179.34
1062.41	424.2	2199.38
1062.51	424.1	2171.08
1062.61	424	2188.02
1062.71	423.9	2205.79
1062.81	423.8	2224.03
1062.91	423.7	2175.92
1063.01	423.6	2184.92
1063.11	423.5	2213.28
1063.21	423.4	2206.3
1063.31	423.3	2209.21
1063.41	423.2	2208.25
1063.51	423.1	2194.46
1063.61	423	2201.28
1063.71	422.9	2231.89
1063.81	422.8	2221.81
1063.91	422.7	2208.92
1064.01	422.6	2216.61
1064.11	422.5	2268.98
1064.21	422.4	2244.5
1064.31	422.3	2256.79
1064.41	422.2	2284.52
1064.51	422.1	2288.78
1064.61	422	2264.61
1064.71	421.9	2272.73
1064.81	421.8	2290.62
1064.91	421.7	2321.53
1065.01	421.6	2302.98
1065.11	421.5	2308.63
1065.21	421.4	2285.25
1065.31	421.3	2270.32
1065.41	421.2	2267.66
1065.51	421.1	2253.17
1065.61	421	2221.85
1065.71	420.9	2205.47
1065.81	420.8	2207.63
1065.91	420.7	2221.38
1066.01	420.6	2233.18
1066.11	420.5	2221.03
1066.21	420.4	2217.68
1066.31	420.3	2268.19
1066.41	420.2	2249.34
1066.51	420.1	2282.78
1066.61	420	2299.15
1066.71	419.9	2348.35
1066.81	419.8	2353.45
1066.91	419.7	2321.58
1067.01	419.6	2337.14
1067.11	419.5	2343.73
1067.21	419.4	2304.62
1067.31	419.3	2289.29
1067.41	419.2	2307.29
1067.51	419.1	2317.2
1067.61	419	2359.39
1067.71	418.9	2373.74
1067.81	418.8	2417.47
1067.91	418.7	2402.72
1068.01	418.6	2466.91
1068.11	418.5	2446.63
1068.21	418.4	2403.12
1068.31	418.3	2361.79
1068.41	418.2	2280.99
1068.51	418.1	2234.03
1068.61	418	2175.41
1068.71	417.9	2124.41
1068.81	417.8	2095.53
1068.91	417.7	2089.63
1069.01	417.6	2084.26
1069.11	417.5	2068.14
1069.21	417.4	2103.52
1069.31	417.3	2077.53
1069.41	417.2	2089.32
1069.51	417.1	2094.95
1069.61	417	2065.5
1069.71	416.9	2056.44
1069.81	416.8	2057.84
1069.91	416.7	2050.61
1070.01	416.6	2058.07
1070.11	416.5	2041.14
1070.21	416.4	2075.18
1070.31	416.3	2114.76
1070.41	416.2	2096.04
1070.51	416.1	2085.13
1070.61	416	2070.88
1070.71	415.9	2081.13
1070.81	415.8	2062.59
1070.91	415.7	2091.31
1071.01	415.6	2114.82
1071.11	415.5	2076.27
1071.21	415.4	2087.19
1071.31	415.3	2105.23
1071.41	415.2	2115.56
1071.51	415.1	2123.1
1071.61	415	2100.71
1071.71	414.9	2097.79
1071.81	414.8	2089.97
1071.91	414.7	2074.89
1072.01	414.6	2100.66
1072.11	414.5	2101.98
1072.21	414.4	2086.41
1072.31	414.3	2082.76
1072.41	414.2	2083.1
1072.51	414.1	2091.78
1072.61	414	2050.27
1072.71	413.9	2031.76
1072.81	413.8	2062.04
1072.91	413.7	2079.21
1073.01	413.6	2030.19
1073.11	413.5	2051.8
1073.21	413.4	2037.14
1073.31	413.3	2044.06
1073.41	413.2	2021.33
1073.51	413.1	2010.79
1073.61	413	2002.43
1073.71	412.9	2020.42
1073.81	412.8	2051.95
1073.91	412.7	2072.63
1074.01	412.6	2072.7
1074.11	412.5	2051.95
1074.21	412.4	2025.16
1074.31	412.3	2037.31
1074.41	412.2	2051.96
1074.51	412.1	2041.37
1074.61	412	2066.05
1074.71	411.9	2061.26
1074.81	411.8	2056.15
1074.91	411.7	2048.44
1075.01	411.6	2021.38
1075.11	411.5	2066.02
1075.21	411.4	2049.73
1075.31	411.3	2045.52
1075.41	411.2	2028.92
1075.51	411.1	2021.4
1075.61	411	2026.98
1075.71	410.9	2039.07
1075.81	410.8	2040.56
1075.91	410.7	2056.46
1076.01	410.6	2046.44
1076.11	410.5	2010.29
1076.21	410.4	2030.52
1076.31	410.3	2044.8
1076.41	410.2	2038.09
1076.51	410.1	2009.33
1076.61	410	2032.59
1076.71	409.9	2032.61
1076.81	409.8	2043.51
1076.91	409.7	2021
1077.01	409.6	2047.32
1077.11	409.5	2038.53
1077.21	409.4	2039.28
1077.31	409.3	2018.06
1077.41	409.2	2041.99
1077.51	409.1	2035.32
1077.61	409	2040.98
1077.71	408.9	2039.77
1077.81	408.8	2031.11
1077.91	408.7	2028.72
1078.01	408.6	2029.54
1078.11	408.5	2034.59
1078.21	408.4	2041.13
1078.31	408.3	2026.1
1078.41	408.2	2001.74
1078.51	408.1	2019.34
1078.61	408	2036.5
1078.71	407.9	2023.62
1078.81	407.8	2039.24
1078.91	407.7	2043
1079.01	407.6	2044
1079.11	407.5	2050.67
1079.21	407.4	2044.85
1079.31	407.3	2050.86
1079.41	407.2	2088
1079.51	407.1	2065.37
1079.61	407	2052.7
1079.71	406.9	2073.86
1079.81	406.8	2080.94
1079.91	406.7	2100.64
1080.01	406.6	2128.43
1080.11	406.5	2183.29
1080.21	406.4	2276.02
1080.31	406.3	2387.55
1080.41	406.2	2632.33
1080.51	406.1	2981.88
1080.61	406	3447.25
1080.71	405.9	3974
1080.81	405.8	4488.76
1080.91	405.7	4903.74
1081.01	405.6	4936.33
1081.11	405.5	4669.84
1081.21	405.4	4200.35
1081.31	405.3	3559.8
1081.41	405.2	2948.7
1081.51	405.1	2575.56
1081.61	405	2336.35
1081.71	404.9	2183.05
1081.81	404.8	2142.99
1081.91	404.7	2142.54
1082.01	404.6	2083.91
1082.11	404.5	2052.55
1082.21	404.4	2083.68
1082.31	404.3	2074.1
1082.41	404.2	2035.27
1082.51	404.1	2047.32
1082.61	404	2042.17
1082.71	403.9	2037.74
1082.81	403.8	2053.99
1082.91	403.7	2026.95
1083.01	403.6	2002.92
1083.11	403.5	2018.57
1083.21	403.4	2031.13
1083.31	403.3	2041.25
1083.41	403.2	2017.12
1083.51	403.1	2022.08
1083.61	403	2028.11
1083.71	402.9	2047.34
1083.81	402.8	2022.41
1083.91	402.7	2027.73
1084.01	402.6	2037.34
1084.11	402.5	2039.43
1084.21	402.4	2016.66
1084.31	402.3	2009.02
1084.41	402.2	2010.78
1084.51	402.1	2016.69
1084.61	402	2021.9
1084.71	401.9	2022.7
1084.81	401.8	2001.33
1084.91	401.7	2038.77
1085.01	401.6	2053.06
1085.11	401.5	2026.66
1085.21	401.4	2041.57
1085.31	401.3	2023.8
1085.41	401.2	2044.58
1085.51	401.1	2050.95
1085.61	401	2017.03
1085.71	400.9	2054.52
1085.81	400.8	2027.64
1085.91	400.7	2012.98
1086.01	400.6	2034.81
1086.11	400.5	2032.33
1086.21	400.4	2046.51
1086.31	400.3	2040.44
1086.41	400.2	2045.47
1086.51	400.1	2077.56
1086.61	400	2032.44
1086.71	399.9	2006.1
1086.81	399.8	1991.59
1086.91	399.7	2008.48
1087.01	399.6	1984.79
1087.11	399.5	2003.17
1087.21	399.4	2003.01
1087.31	399.3	1994.34
1087.41	399.2	1974.63
1087.51	399.1	1964.37
1087.61	399	1947.72
1087.71	398.9	1951.6
1087.81	398.8	1937.34
1087.91	398.7	1939.31
1088.01	398.6	1985.31
1088.11	398.5	1985.52
1088.21	398.4	1976.69
1088.31	398.3	1970.67
1088.41	398.2	1964.03
1088.51	398.1	1977.69
1088.61	398	1941.25
1088.71	397.9	1957.83
1088.81	397.8	1939.12
1088.91	397.7	1950.22
1089.01	397.6	1947.78
1089.11	397.5	1947.33
1089.21	397.4	1949.1
1089.31	397.3	1954.46
1089.41	397.2	1960.2
1089.51	397.1	1945.64
1089.61	397	1928.44
1089.71	396.9	1951.81
1089.81	396.8	1933.48
1089.91	396.7	1927.96
1090.01	396.6	1924.19
1090.11	396.5	1932.14
1090.21	396.4	1938.13
1090.31	396.3	1916.2
1090.41	396.2	1928.78
1090.51	396.1	1907.24
1090.61	396	1923.82
1090.71	395.9	1932.15
1090.81	395.8	1961.8
1090.91	395.7	1956.53
1091.01	395.6	1917.15
1091.11	395.5	1939.58
1091.21	395.4	1965.24
1091.31	395.3	1974.89
1091.41	395.2	1955.16
1091.51	395.1	1910
1091.61	395	1932.15
1091.71	394.9	1940.95
1091.81	394.8	1943.71
1091.91	394.7	1948.17
1092.01	394.6	1921.71
1092.11	394.5	1946.16
1092.21	394.4	1926.88
1092.31	394.3	1944.6
1092.41	394.2	1913.2
1092.51	394.1	1939.9
1092.61	394	1943.64
1092.71	393.9	1939.48
1092.81	393.8	1906.23
1092.91	393.7	1886.1
1093.01	393.6	1886.55
1093.11	393.5	1874.11
1093.21	393.4	1854.63
1093.31	393.3	1844.9
1093.41	393.2	1851.84
1093.51	393.1	1860.43
1093.61	393	1865.5
1093.71	392.9	1858.9
1093.81	392.8	1840.41
1093.91	392.7	1848.9
1094.01	392.6	1842.12
1094.11	392.5	1842.56
1094.21	392.4	1867.27
1094.31	392.3	1836.5
1094.41	392.2	1846.04
1094.51	392.1	1847.32
1094.61	392	1862.26
1094.71	391.9	1863.34
1094.81	391.8	1876.19
1094.91	391.7	1872.36
1095.01	391.6	1887.14
1095.11	391.5	1891.61
1095.21	391.4	1917.54
1095.31	391.3	1882.38
1095.41	391.2	1877.31
1095.51	391.1	1906.22
1095.61	391	1890.19
1095.71	390.9	1877.1
1095.81	390.8	1896.08
1095.91	390.7	1896.36
1096.01	390.6	1907.37
1096.11	390.5	1933.4
1096.21	390.4	1920.28
1096.31	390.3	1929.41
1096.41	390.2	1923.58
1096.51	390.1	1918.1
1096.61	390	1890.18
1096.71	389.9	1881.93
1096.81	389.8	1866
1096.91	389.7	1823.31
1097.01	389.6	1825
1097.11	389.5	1817.2
1097.21	389.4	1805.15
1097.31	389.3	1808.71
1097.41	389.2	1801.13
1097.51	389.1	1809.94
1097.61	389	1852.28
1097.71	388.9	1915.48
1097.81	388.8	1981.65
1097.91	388.7	2059.98
1098.01	388.6	2116.35
1098.11	388.5	2134.2
1098.21	388.4	2185.2
1098.31	388.3	2177.88
1098.41	388.2	2185.25
1098.51	388.1	2199.65
1098.61	388	2154.14
1098.71	387.9	2148.78
1098.81	387.8	2184.78
1098.91	387.7	2192.23
1099.01	387.6	2261.11
1099.11	387.5	2322.7
1099.21	387.4	2401.33
1099.31	387.3	2450.6
1099.41	387.2	2507.85
1099.51	387.1	2481.27
1099.61	387	2358.28
1099.71	386.9	2239.62
1099.81	386.8	2104.78
1099.91	386.7	1959.56
1100.01	386.6	1824.21
1100.11	386.5	1731.63
1100.21	386.4	1642.34
1100.31	386.3	1625.88
1100.41	386.2	1583.26
1100.51	386.1	1584.12
1100.61	386	1571.62
1100.71	385.9	1535.27
1100.81	385.8	1511.12
1100.91	385.7	1536.09
1101.01	385.6	1546.26
1101.11	385.5	1547.42
1101.21	385.4	1547
1101.31	385.3	1520.14
1101.41	385.2	1526.92
1101.51	385.1	1543.14
1101.61	385	1546.65
1101.71	384.9	1572.34
1101.81	384.8	1556.83
1101.91	384.7	1560.68
1102.01	384.6	1561.08
1102.11	384.5	1615.87
1102.21	384.4	1645.37
1102.31	384.3	1607.95
1102.41	384.2	1616.66
1102.51	384.1	1609.59
1102.61	384	1596.91
1102.71	383.9	1597.95
1102.81	383.8	1569.43
1102.91	383.7	1547.36
1103.01	383.6	1537.69
1103.11	383.5	1510.28
1103.21	383.4	1509.44
1103.31	383.3	1495.25
1103.41	383.2	1497.92
1103.51	383.1	1536.31
1103.61	383	1584.53
1103.71	382.9	1637.44
1103.81	382.8	1749.45
1103.91	382.7	1814.94
1104.01	382.6	1899.13
1104.11	382.5	1946.91
1104.21	382.4	2012.97
1104.31	382.3	2062.06
1104.41	382.2	2065.5
1104.51	382.1	1998.39
1104.61	382	1972.7
1104.71	381.9	1981.13
1104.81	381.8	1952.27
1104.91	381.7	1996.57
1105.01	381.6	2060.86
1105.11	381.5	2152.72
1105.21	381.4	2274.7
1105.31	381.3	2355.6
1105.41	381.2	2396.29
1105.51	381.1	2334.84
1105.61	381	2236.22
1105.71	380.9	2050.17
1105.81	380.8	1810.58
1105.91	380.7	1586.41
1106.01	380.6	1401.18
1106.11	380.5	1221.67
1106.21	380.4	1147.49
1106.31	380.3	1078.83
1106.41	380.2	1018.94
1106.51	380.1	949.42
1106.61	380	947.478
1106.71	379.9	939.708
1106.81	379.8	940.816
1106.91	379.7	916.002
1107.01	379.6	913.541
1107.11	379.5	907.177
1107.21	379.4	901.939
1107.31	379.3	910.738
1107.41	379.2	928.107
1107.51	379.1	911.635
1107.61	379	912.733
1107.71	378.9	913.816
1107.81	378.8	924.321
1107.91	378.7	935.325
1108.01	378.6	969.477
1108.11	378.5	981.771
1108.21	378.4	971.139
1108.31	378.3	983.303
1108.41	378.2	1025.02
1108.51	378.1	1053.51
1108.61	378	1082.69
1108.71	377.9	1059.41
1108.81	377.8	1038.88
1108.91	377.7	1026.28
1109.01	377.6	1003.5
1109.11	377.5	992.819
1109.21	377.4	969.584
1109.31	377.3	959.618
1109.41	377.2	939.874
1109.51	377.1	929.072
1109.61	377	932.504
1109.71	376.9	916.993
1109.81	376.8	930.736
1109.91	376.7	913.942
1110.01	376.6	916.06
1110.11	376.5	918.003
1110.21	376.4	930.83
1110.31	376.3	945.384
1110.41	376.2	956.725
1110.51	376.1	988.275
1110.61	376	984.195
1110.71	375.9	1006.32
1110.81	375.8	1039.51
1110.91	375.7	1070.68
1111.01	375.6	1089.9
1111.11	375.5	1143.21
1111.21	375.4	1195.17
1111.31	375.3	1276.23
1111.41	375.2	1348.07
1111.51	375.1	1510.71
1111.61	375	1750.7
1111.71	374.9	2068.59
1111.81	374.8	2577.92
1111.91	374.7	3267.98
1112.01	374.6	4235.99
1112.11	374.5	5255.72
1112.21	374.4	6265.41
1112.31	374.3	7007.58
1112.41	374.2	7100.81
1112.51	374.1	6616.76
1112.61	374	5583.76
1112.71	373.9	4380.75
1112.81	373.8	3197.96
1112.91	373.7	2313.13
1113.01	373.6	1743
1113.11	373.5	1384.15
1113.21	373.4	1176.36
1113.31	373.3	1038.89
1113.41	373.2	966.674
1113.51	373.1	906.402
1113.61	373	879.013
1113.71	372.9	848.037
1113.81	372.8	846.415
1113.91	372.7	817.684
1114.01	372.6	812.727
1114.11	372.5	855.263
1114.21	372.4	864.915
1114.31	372.3	885.62
1114.41	372.2	893.654
1114.51	372.1	899.685
1114.61	372	903.55
1114.71	371.9	901.551
1114.81	371.8	885.988
1114.91	371.7	842.07
1115.01	371.6	800.999
1115.11	371.5	765.626
1115.21	371.4	746.235
1115.31	371.3	721.812
1115.41	371.2	703.577
1115.51	371.1	680.22
1115.61	371	678.867
1115.71	370.9	689.829
1115.81	370.8	686.446
1115.91	370.7	681.925
1116.01	370.6	690.843
1116.11	370.5	704.277
1116.21	370.4	721.736
1116.31	370.3	755.246
1116.41	370.2	765.857
1116.51	370.1	789.811
1116.61	370	807.58
1116.71	369.9	859.247
1116.81	369.8	883.57
1116.91	369.7	937.329
1117.01	369.6	986.991
1117.11	369.5	1051.95
1117.21	369.4	1137.36
1117.31	369.3	1268.99
1117.41	369.2	1401.47
1117.51	369.1	1617
1117.61	369	1977.58
1117.71	368.9	2467.65
1117.81	368.8	3215.61
1117.91	368.7	4203.13
1118.01	368.6	5583.86
1118.11	368.5	7100.86
1118.21	368.4	8592.49
1118.31	368.3	9631.98
1118.41	368.2	9816.5
1118.51	368.1	9062.9
1118.61	368	7630.17
1118.71	367.9	5905.65
1118.81	367.8	4127.02
1118.91	367.7	2838.74
1119.01	367.6	2014.3
1119.11	367.5	1473.53
1119.21	367.4	1140.96
1119.31	367.3	947.258
1119.41	367.2	811.583
1119.51	367.1	727.643
1119.61	367	663.87
1119.71	366.9	615.564
1119.81	366.8	578.317
1119.91	366.7	538.929
1120.01	366.6	526.913
1120.11	366.5	514.909
1120.21	366.4	498.142
1120.31	366.3	492.347
1120.41	366.2	471.349
1120.51	366.1	475.652
1120.61	366	462.854
1120.71	365.9	449.33
1120.81	365.8	453.37
1120.91	365.7	446.761
1121.01	365.6	441.308
1121.11	365.5	440.847
1121.21	365.4	429.226
1121.31	365.3	427.237
1121.41	365.2	417.5
1121.51	365.1	414.193
1121.61	365	415.577
1121.71	364.9	419.808
1121.81	364.8	415.011
1121.91	364.7	407.872
1122.01	364.6	404.706
1122.11	364.5	405.645
1122.21	364.4	405.919
1122.31	364.3	401.943
1122.41	364.2	398.008
1122.51	364.1	399.099
1122.61	364	391.517
1122.71	363.9	396.296
1122.81	363.8	399.259
1122.91	363.7	392.986
1123.01	363.6	411.227
1123.11	363.5	401.432
1123.21	363.4	396.757
1123.31	363.3	375.216
1123.41	363.2	396.171
1123.51	363.1	385.665
1123.61	363	388.095
1123.71	362.9	390.493
1123.81	362.8	389.811
1123.91	362.7	384.751
1124.01	362.6	379.755
1124.11	362.5	369.828
1124.21	362.4	369.24
1124.31	362.3	384.177
1124.41	362.2	390.518
1124.51	362.1	387.65
1124.61	362	383.483
1124.71	361.9	380.233
1124.81	361.8	389.595
1124.91	361.7	395.161
1125.01	361.6	378.276
1125.11	361.5	382.402
1125.21	361.4	379.223
1125.31	361.3	386.474
1125.41	361.2	389.102
1125.51	361.1	375.553
1125.61	361	387.518
1125.71	360.9	383.52
1125.81	360.8	382.642
1125.91	360.7	374.095
1126.01	360.6	378.642
1126.11	360.5	371.608
1126.21	360.4	368.796
1126.31	360.3	365.61
1126.41	360.2	377.078
1126.51	360.1	372.46
1126.61	360	380.461
1126.71	359.9	378.717
1126.81	359.8	375.113
1126.91	359.7	376.432
1127.01	359.6	372.858
1127.11	359.5	372.19
1127.21	359.4	365.913
1127.31	359.3	378.252
1127.41	359.2	377.281
1127.51	359.1	384.825
1127.61	359	370.634
1127.71	358.9	362.941
1127.81	358.8	361.791
1127.91	358.7	389.469
1128.01	358.6	388.956
1128.11	358.5	380.88
1128.21	358.4	383.808
1128.31	358.3	371.311
1128.41	358.2	372.924
1128.51	358.1	368.515
1128.61	358	382.087
1128.71	357.9	376.015
1128.81	357.8	368.162
1128.91	357.7	376.092
1129.01	357.6	383.375
1129.11	357.5	380.429
1129.21	357.4	384.691
1129.31	357.3	380.399
1129.41	357.2	378.289
1129.51	357.1	373.451
1129.61	357	378.309
1129.71	356.9	369.519
1129.81	356.8	372.687
1129.91	356.7	383.889
1130.01	356.6	372.555
1130.11	356.5	372.217
1130.21	356.4	370.629
1130.31	356.3	373.696
1130.41	356.2	370.487
1130.51	356.1	376.618
1130.61	356	371.531
1130.71	355.9	381.372
1130.81	355.8	374.468
1130.91	355.7	371.034
1131.01	355.6	381.544
1131.11	355.5	385.023
1131.21	355.4	375.349
1131.31	355.3	372.479
1131.41	355.2	386.191
1131.51	355.1	382.148
1131.61	355	369.297
1131.71	354.9	377.255
1131.81	354.8	378.058
1131.91	354.7	371.29
1132.01	354.6	372.643
1132.11	354.5	366.411
1132.21	354.4	374.02
1132.31	354.3	364.072
1132.41	354.2	366.47
1132.51	354.1	373.314
1132.61	354	383.975
1132.71	353.9	374.344
1132.81	353.8	366.651
1132.91	353.7	379.731
1133.01	353.6	376.22
1133.11	353.5	370.079
1133.21	353.4	374.369
1133.31	353.3	379.219
1133.41	353.2	374.124
1133.51	353.1	364.149
1133.61	353	371.739
1133.71	352.9	371.414
1133.81	352.8	367.522
1133.91	352.7	369.518
1134.01	352.6	379.729
1134.11	352.5	372.254
1134.21	352.4	367.476
1134.31	352.3	375.875
1134.41	352.2	365.14
1134.51	352.1	360.709
1134.61	352	376.242
1134.71	351.9	383.545
1134.81	351.8	376.04
1134.91	351.7	383.283
1135.01	351.6	375.121
1135.11	351.5	377.584
1135.21	351.4	380.388
1135.31	351.3	378.289
1135.41	351.2	377.937
1135.51	351.1	376.847
1135.61	351	379.946
1135.71	350.9	375.008
1135.81	350.8	377.368
1135.91	350.7	377.497
1136.01	350.6	380.669
1136.11	350.5	387.041
1136.21	350.4	376.943
1136.31	350.3	369.1
1136.41	350.2	374.379
1136.51	350.1	371.25
1136.61	350	380.78