C:\Users\Mark\ownCloud\Muelheim Group\Projects\Gas phase background\EX318_CEC356_Au Ag Cu in N2_clean.vms
Ag3d
	Characteristic Energy eV	1486.61	Acquisition Time s	0.9
KE_Ag3d	BE_Ag3d	CPS_Ag3d
1036.61	450	4762.73
1036.71	449.9	4787.7
1036.81	449.8	4769.25
1036.91	449.7	4808.92
1037.01	449.6	4740.47
1037.11	449.5	4764.43
1037.21	449.4	4792.42
1037.31	449.3	4775.53
1037.41	449.2	4765.56
1037.51	449.1	4700.97
1037.61	449	4713.27
1037.71	448.9	4777.15
1037.81	448.8	4778.37
1037.91	448.7	4765.21
1038.01	448.6	4823.13
1038.11	448.5	4824.46
1038.21	448.4	4712.65
1038.31	448.3	4721.56
1038.41	448.2	4727.91
1038.51	448.1	4772.39
1038.61	448	4721.29
1038.71	447.9	4850.25
1038.81	447.8	4798
1038.91	447.7	4739.79
1039.01	447.6	4725.34
1039.11	447.5	4764.09
1039.21	447.4	4812.67
1039.31	447.3	4774.63
1039.41	447.2	4768.62
1039.51	447.1	4728.84
1039.61	447	4805.97
1039.71	446.9	4821.49
1039.81	446.8	4800.86
1039.91	446.7	4792.8
1040.01	446.6	4719.27
1040.11	446.5	4836.77
1040.21	446.4	4810.41
1040.31	446.3	4786.55
1040.41	446.2	4831.91
1040.51	446.1	4820.75
1040.61	446	4811.48
1040.71	445.9	4748.97
1040.81	445.8	4736.41
1040.91	445.7	4780.51
1041.01	445.6	4756.93
1041.11	445.5	4774.14
1041.21	445.4	4801.34
1041.31	445.3	4789.02
1041.41	445.2	4785.95
1041.51	445.1	4789.83
1041.61	445	4805.93
1041.71	444.9	4851.04
1041.81	444.8	4777.81
1041.91	444.7	4775.67
1042.01	444.6	4785.83
1042.11	444.5	4838.57
1042.21	444.4	4844.56
1042.31	444.3	4747.12
1042.41	444.2	4745.9
1042.51	444.1	4740.15
1042.61	444	4743.01
1042.71	443.9	4833.07
1042.81	443.8	4775.53
1042.91	443.7	4806.32
1043.01	443.6	4818.88
1043.11	443.5	4799.1
1043.21	443.4	4804.05
1043.31	443.3	4752.59
1043.41	443.2	4759.83
1043.51	443.1	4721.03
1043.61	443	4766.14
1043.71	442.9	4797.72
1043.81	442.8	4814.88
1043.91	442.7	4806.8
1044.01	442.6	4755.37
1044.11	442.5	4847.75
1044.21	442.4	4812.48
1044.31	442.3	4798.13
1044.41	442.2	4787.65
1044.51	442.1	4767.26
1044.61	442	4807.44
1044.71	441.9	4814.73
1044.81	441.8	4749.44
1044.91	441.7	4826.54
1045.01	441.6	4811.09
1045.11	441.5	4781.77
1045.21	441.4	4797.41
1045.31	441.3	4836.87
1045.41	441.2	4867.2
1045.51	441.1	4843.47
1045.61	441	4811.59
1045.71	440.9	4858.16
1045.81	440.8	4843.81
1045.91	440.7	4761.09
1046.01	440.6	4819.51
1046.11	440.5	4775.35
1046.21	440.4	4808.81
1046.31	440.3	4848.63
1046.41	440.2	4851.68
1046.51	440.1	4828.21
1046.61	440	4799.27
1046.71	439.9	4802.84
1046.81	439.8	4858.27
1046.91	439.7	4803.31
1047.01	439.6	4793.85
1047.11	439.5	4826.24
1047.21	439.4	4829.27
1047.31	439.3	4909.72
1047.41	439.2	4898.44
1047.51	439.1	4907.15
1047.61	439	4888.78
1047.71	438.9	4874.8
1047.81	438.8	4850.21
1047.91	438.7	4828.06
1048.01	438.6	4921.26
1048.11	438.5	4883.98
1048.21	438.4	4871.28
1048.31	438.3	4842.52
1048.41	438.2	4887.37
1048.51	438.1	4848.27
1048.61	438	4851.25
1048.71	437.9	4859.52
1048.81	437.8	4855.72
1048.91	437.7	4822.11
1049.01	437.6	4875.14
1049.11	437.5	4860.03
1049.21	437.4	4854.74
1049.31	437.3	4829.13
1049.41	437.2	4834.72
1049.51	437.1	4862.1
1049.61	437	4903.69
1049.71	436.9	4879.15
1049.81	436.8	4919.05
1049.91	436.7	4965.87
1050.01	436.6	4903.65
1050.11	436.5	4905.58
1050.21	436.4	4906.71
1050.31	436.3	4880.03
1050.41	436.2	4914.31
1050.51	436.1	4923.59
1050.61	436	4944.37
1050.71	435.9	4887.08
1050.81	435.8	4911.2
1050.91	435.7	4855.31
1051.01	435.6	4813.15
1051.11	435.5	4855.09
1051.21	435.4	4894.99
1051.31	435.3	4923.33
1051.41	435.2	4955.68
1051.51	435.1	4903.01
1051.61	435	4936.54
1051.71	434.9	4892.47
1051.81	434.8	4934.8
1051.91	434.7	4908.33
1052.01	434.6	4909.6
1052.11	434.5	4973.08
1052.21	434.4	4908.95
1052.31	434.3	4931.95
1052.41	434.2	4957.09
1052.51	434.1	4957.72
1052.61	434	4881.45
1052.71	433.9	4926.89
1052.81	433.8	4938.49
1052.91	433.7	4902.88
1053.01	433.6	4877.03
1053.11	433.5	4886.79
1053.21	433.4	4881.13
1053.31	433.3	4881.67
1053.41	433.2	4940.38
1053.51	433.1	4931.65
1053.61	433	4952.74
1053.71	432.9	4897.67
1053.81	432.8	4908.7
1053.91	432.7	4911.12
1054.01	432.6	4879.67
1054.11	432.5	4913.01
1054.21	432.4	4872.14
1054.31	432.3	4921.44
1054.41	432.2	4953.25
1054.51	432.1	4961.93
1054.61	432	4898.84
1054.71	431.9	4896.16
1054.81	431.8	4868.93
1054.91	431.7	4825.54
1055.01	431.6	4867.35
1055.11	431.5	4897.73
1055.21	431.4	4935.4
1055.31	431.3	4946.68
1055.41	431.2	4937.24
1055.51	431.1	4909.45
1055.61	431	4903.35
1055.71	430.9	4911.52
1055.81	430.8	4905.56
1055.91	430.7	4954.5
1056.01	430.6	5019.43
1056.11	430.5	5015.59
1056.21	430.4	4973.68
1056.31	430.3	4935.28
1056.41	430.2	5014.76
1056.51	430.1	4973.07
1056.61	430	4983.42
1056.71	429.9	4984
1056.81	429.8	4973.34
1056.91	429.7	4917.54
1057.01	429.6	4975.84
1057.11	429.5	4931.18
1057.21	429.4	4956.04
1057.31	429.3	4917.91
1057.41	429.2	4893.94
1057.51	429.1	4959
1057.61	429	4976.34
1057.71	428.9	4982.98
1057.81	428.8	4973.24
1057.91	428.7	4994.82
1058.01	428.6	4943.39
1058.11	428.5	4906.09
1058.21	428.4	5019.62
1058.31	428.3	4985.47
1058.41	428.2	4957.77
1058.51	428.1	4921.18
1058.61	428	4997.7
1058.71	427.9	4961.51
1058.81	427.8	4893.71
1058.91	427.7	4973.57
1059.01	427.6	5022.02
1059.11	427.5	4938.58
1059.21	427.4	4920.69
1059.31	427.3	4970.33
1059.41	427.2	4928.31
1059.51	427.1	4958.87
1059.61	427	4990.03
1059.71	426.9	4965.51
1059.81	426.8	4953.1
1059.91	426.7	4911.29
1060.01	426.6	4911.51
1060.11	426.5	4953.27
1060.21	426.4	4935.51
1060.31	426.3	4929.52
1060.41	426.2	4888.94
1060.51	426.1	4959.12
1060.61	426	4948.1
1060.71	425.9	4952.97
1060.81	425.8	4985.78
1060.91	425.7	4960.46
1061.01	425.6	4988.43
1061.11	425.5	5031.89
1061.21	425.4	4994.69
1061.31	425.3	5010.4
1061.41	425.2	5007.24
1061.51	425.1	5020.61
1061.61	425	5014.94
1061.71	424.9	4980.9
1061.81	424.8	4995.36
1061.91	424.7	4954.1
1062.01	424.6	5023.01
1062.11	424.5	4988.23
1062.21	424.4	4985.3
1062.31	424.3	4977.29
1062.41	424.2	5060.05
1062.51	424.1	5007.88
1062.61	424	5012.13
1062.71	423.9	5041.4
1062.81	423.8	5011.24
1062.91	423.7	5043.9
1063.01	423.6	5060.96
1063.11	423.5	5065.79
1063.21	423.4	5056.06
1063.31	423.3	5104.2
1063.41	423.2	5129
1063.51	423.1	5088.53
1063.61	423	5110.68
1063.71	422.9	5116.53
1063.81	422.8	5099.25
1063.91	422.7	5182.28
1064.01	422.6	5121.24
1064.11	422.5	5137.69
1064.21	422.4	5174.8
1064.31	422.3	5187.29
1064.41	422.2	5193.32
1064.51	422.1	5163.69
1064.61	422	5229
1064.71	421.9	5239.76
1064.81	421.8	5230.1
1064.91	421.7	5192.61
1065.01	421.6	5207.05
1065.11	421.5	5194.85
1065.21	421.4	5181.86
1065.31	421.3	5182.34
1065.41	421.2	5164.21
1065.51	421.1	5232.94
1065.61	421	5195.16
1065.71	420.9	5146.36
1065.81	420.8	5149.24
1065.91	420.7	5161.33
1066.01	420.6	5074.03
1066.11	420.5	5141.63
1066.21	420.4	5097.18
1066.31	420.3	5116.09
1066.41	420.2	5107.96
1066.51	420.1	5169.09
1066.61	420	5141.58
1066.71	419.9	5184.13
1066.81	419.8	5139.98
1066.91	419.7	5183.58
1067.01	419.6	5233.6
1067.11	419.5	5180.74
1067.21	419.4	5171.63
1067.31	419.3	5202.94
1067.41	419.2	5204.55
1067.51	419.1	5189.44
1067.61	419	5209.32
1067.71	418.9	5203.18
1067.81	418.8	5254.11
1067.91	418.7	5286.66
1068.01	418.6	5262.5
1068.11	418.5	5294.95
1068.21	418.4	5236.88
1068.31	418.3	5226.58
1068.41	418.2	5147.43
1068.51	418.1	5081.23
1068.61	418	5033.83
1068.71	417.9	4979.37
1068.81	417.8	4965.29
1068.91	417.7	4964.73
1069.01	417.6	4987.64
1069.11	417.5	4959.12
1069.21	417.4	4958.21
1069.31	417.3	4943.1
1069.41	417.2	4973.89
1069.51	417.1	4878.12
1069.61	417	4939.8
1069.71	416.9	4958.42
1069.81	416.8	4954.62
1069.91	416.7	4930.66
1070.01	416.6	4963.28
1070.11	416.5	5026.15
1070.21	416.4	4952.77
1070.31	416.3	4971.16
1070.41	416.2	4932.47
1070.51	416.1	4975.89
1070.61	416	4937.89
1070.71	415.9	4990.12
1070.81	415.8	5002.31
1070.91	415.7	5011.24
1071.01	415.6	5006.78
1071.11	415.5	4969.6
1071.21	415.4	5030.99
1071.31	415.3	5060.68
1071.41	415.2	5024.4
1071.51	415.1	5013.53
1071.61	415	5054.37
1071.71	414.9	5104.47
1071.81	414.8	5083.39
1071.91	414.7	5066.94
1072.01	414.6	5073.55
1072.11	414.5	5042.92
1072.21	414.4	5090.89
1072.31	414.3	4996.71
1072.41	414.2	4957.92
1072.51	414.1	4976.44
1072.61	414	4927.88
1072.71	413.9	4901.47
1072.81	413.8	5012.41
1072.91	413.7	5004.13
1073.01	413.6	4991.39
1073.11	413.5	4932.3
1073.21	413.4	4967.93
1073.31	413.3	4999.84
1073.41	413.2	4984.81
1073.51	413.1	5013.27
1073.61	413	5036.8
1073.71	412.9	5011.01
1073.81	412.8	4991.43
1073.91	412.7	4998.83
1074.01	412.6	4881.84
1074.11	412.5	4900.25
1074.21	412.4	4985.19
1074.31	412.3	5051.65
1074.41	412.2	5042.58
1074.51	412.1	5021.91
1074.61	412	5006.79
1074.71	411.9	4989.06
1074.81	411.8	5050.28
1074.91	411.7	4903.69
1075.01	411.6	4913.78
1075.11	411.5	4996.84
1075.21	411.4	5031.22
1075.31	411.3	4990.63
1075.41	411.2	4995.78
1075.51	411.1	5045.36
1075.61	411	5038.69
1075.71	410.9	4994.87
1075.81	410.8	5012.35
1075.91	410.7	4978.39
1076.01	410.6	5025.72
1076.11	410.5	4973
1076.21	410.4	4957.69
1076.31	410.3	5048.31
1076.41	410.2	5001.65
1076.51	410.1	5013.2
1076.61	410	4994.5
1076.71	409.9	4982.12
1076.81	409.8	4982.76
1076.91	409.7	4959.31
1077.01	409.6	5067.77
1077.11	409.5	4972.73
1077.21	409.4	4994.19
1077.31	409.3	5011.42
1077.41	409.2	5046.2
1077.51	409.1	5093.51
1077.61	409	4994.18
1077.71	408.9	5040.78
1077.81	408.8	5037.29
1077.91	408.7	5033.43
1078.01	408.6	4970.64
1078.11	408.5	5077.16
1078.21	408.4	5042.68
1078.31	408.3	5035.44
1078.41	408.2	5033.62
1078.51	408.1	5051.37
1078.61	408	5028.36
1078.71	407.9	5034.48
1078.81	407.8	5073.7
1078.91	407.7	5058.03
1079.01	407.6	5060.29
1079.11	407.5	5086.89
1079.21	407.4	5118.48
1079.31	407.3	5120.68
1079.41	407.2	5137.25
1079.51	407.1	5131.57
1079.61	407	5114.5
1079.71	406.9	5138.92
1079.81	406.8	5116.07
1079.91	406.7	5270.23
1080.01	406.6	5384.46
1080.11	406.5	5463
1080.21	406.4	5652.29
1080.31	406.3	5989
1080.41	406.2	6429.05
1080.51	406.1	7077.33
1080.61	406	7991.6
1080.71	405.9	9122.66
1080.81	405.8	9937.76
1080.91	405.7	10553.9
1081.01	405.6	10521
1081.11	405.5	9904.42
1081.21	405.4	8877.7
1081.31	405.3	7740.03
1081.41	405.2	6654.18
1081.51	405.1	5880.82
1081.61	405	5581.24
1081.71	404.9	5359.39
1081.81	404.8	5281.07
1081.91	404.7	5266.39
1082.01	404.6	5283.25
1082.11	404.5	5178.76
1082.21	404.4	5159.26
1082.31	404.3	5159.03
1082.41	404.2	5191.09
1082.51	404.1	5133.11
1082.61	404	5186.01
1082.71	403.9	5183.02
1082.81	403.8	5158.28
1082.91	403.7	5212.19
1083.01	403.6	5194.88
1083.11	403.5	5212.76
1083.21	403.4	5138.77
1083.31	403.3	5129.81
1083.41	403.2	5199.5
1083.51	403.1	5163.36
1083.61	403	5171.69
1083.71	402.9	5163.18
1083.81	402.8	5188.9
1083.91	402.7	5197.34
1084.01	402.6	5204.19
1084.11	402.5	5242.68
1084.21	402.4	5219.62
1084.31	402.3	5236.46
1084.41	402.2	5181.63
1084.51	402.1	5181.82
1084.61	402	5206.35
1084.71	401.9	5189.98
1084.81	401.8	5207.89
1084.91	401.7	5241.24
1085.01	401.6	5150.55
1085.11	401.5	5207.46
1085.21	401.4	5262.38
1085.31	401.3	5243.37
1085.41	401.2	5214.17
1085.51	401.1	5248.23
1085.61	401	5267.34
1085.71	400.9	5275.93
1085.81	400.8	5144.39
1085.91	400.7	5242.73
1086.01	400.6	5224.78
1086.11	400.5	5233.14
1086.21	400.4	5260.38
1086.31	400.3	5247.17
1086.41	400.2	5281
1086.51	400.1	5302.76
1086.61	400	5228.18
1086.71	399.9	5325.94
1086.81	399.8	5366.83
1086.91	399.7	5296.53
1087.01	399.6	5291.53
1087.11	399.5	5269
1087.21	399.4	5237.7
1087.31	399.3	5275.34
1087.41	399.2	5296.4
1087.51	399.1	5292.84
1087.61	399	5239.38
1087.71	398.9	5317.78
1087.81	398.8	5260.99
1087.91	398.7	5260.31
1088.01	398.6	5289.21
1088.11	398.5	5274.12
1088.21	398.4	5291.47
1088.31	398.3	5313.75
1088.41	398.2	5306.27
1088.51	398.1	5260.06
1088.61	398	5328.08
1088.71	397.9	5283.06
1088.81	397.8	5196.18
1088.91	397.7	5233.81
1089.01	397.6	5291.48
1089.11	397.5	5278.57
1089.21	397.4	5249.8
1089.31	397.3	5266.68
1089.41	397.2	5262.4
1089.51	397.1	5200.97
1089.61	397	5245.58
1089.71	396.9	5230.32
1089.81	396.8	5185.69
1089.91	396.7	5167.1
1090.01	396.6	5135.72
1090.11	396.5	5178.09
1090.21	396.4	5199.06
1090.31	396.3	5190.28
1090.41	396.2	5146.13
1090.51	396.1	5213.55
1090.61	396	5173.88
1090.71	395.9	5180.58
1090.81	395.8	5138.36
1090.91	395.7	5099.33
1091.01	395.6	5269.12
1091.11	395.5	5198.08
1091.21	395.4	5174.97
1091.31	395.3	5235.33
1091.41	395.2	5274.53
1091.51	395.1	5276.63
1091.61	395	5293.65
1091.71	394.9	5255.27
1091.81	394.8	5278.34
1091.91	394.7	5274.93
1092.01	394.6	5297.09
1092.11	394.5	5292.94
1092.21	394.4	5270.65
1092.31	394.3	5255.19
1092.41	394.2	5271.47
1092.51	394.1	5256.12
1092.61	394	5240.88
1092.71	393.9	5315.31
1092.81	393.8	5241.49
1092.91	393.7	5249.71
1093.01	393.6	5212.06
1093.11	393.5	5144.22
1093.21	393.4	5155.04
1093.31	393.3	5184.93
1093.41	393.2	5183.59
1093.51	393.1	5205.04
1093.61	393	5156.34
1093.71	392.9	5224.75
1093.81	392.8	5159.97
1093.91	392.7	5208.98
1094.01	392.6	5203.58
1094.11	392.5	5240.05
1094.21	392.4	5257.72
1094.31	392.3	5213.37
1094.41	392.2	5245.25
1094.51	392.1	5259.52
1094.61	392	5230.1
1094.71	391.9	5291.09
1094.81	391.8	5250.95
1094.91	391.7	5296.35
1095.01	391.6	5342.03
1095.11	391.5	5353.26
1095.21	391.4	5309.97
1095.31	391.3	5296.03
1095.41	391.2	5284.34
1095.51	391.1	5277.19
1095.61	391	5275.91
1095.71	390.9	5307.88
1095.81	390.8	5275.31
1095.91	390.7	5323.12
1096.01	390.6	5312.27
1096.11	390.5	5312.81
1096.21	390.4	5384.77
1096.31	390.3	5373.71
1096.41	390.2	5398
1096.51	390.1	5332.14
1096.61	390	5294.13
1096.71	389.9	5248.01
1096.81	389.8	5206.71
1096.91	389.7	5146.44
1097.01	389.6	5154.44
1097.11	389.5	5098.65
1097.21	389.4	5053.82
1097.31	389.3	5059.23
1097.41	389.2	5049.15
1097.51	389.1	5090.96
1097.61	389	5198.39
1097.71	388.9	5300.06
1097.81	388.8	5322.47
1097.91	388.7	5511.36
1098.01	388.6	5658.12
1098.11	388.5	5832.22
1098.21	388.4	5911.6
1098.31	388.3	5998.79
1098.41	388.2	5967.9
1098.51	388.1	5876.06
1098.61	388	5867.13
1098.71	387.9	5865.08
1098.81	387.8	5869.76
1098.91	387.7	5916.31
1099.01	387.6	6056.48
1099.11	387.5	6146.95
1099.21	387.4	6313.79
1099.31	387.3	6519.12
1099.41	387.2	6601.69
1099.51	387.1	6632.19
1099.61	387	6418.49
1099.71	386.9	6143.53
1099.81	386.8	5793.47
1099.91	386.7	5446.61
1100.01	386.6	5165.47
1100.11	386.5	4923.52
1100.21	386.4	4799.61
1100.31	386.3	4630.71
1100.41	386.2	4621.37
1100.51	386.1	4593.48
1100.61	386	4533.88
1100.71	385.9	4530.96
1100.81	385.8	4460.52
1100.91	385.7	4448.09
1101.01	385.6	4447.31
1101.11	385.5	4399.71
1101.21	385.4	4440.23
1101.31	385.3	4498.52
1101.41	385.2	4454.2
1101.51	385.1	4443.74
1101.61	385	4455.59
1101.71	384.9	4438.34
1101.81	384.8	4504.19
1101.91	384.7	4538.5
1102.01	384.6	4564.48
1102.11	384.5	4657.35
1102.21	384.4	4605.21
1102.31	384.3	4607.12
1102.41	384.2	4611.25
1102.51	384.1	4659.82
1102.61	384	4614.13
1102.71	383.9	4584.74
1102.81	383.8	4554.18
1102.91	383.7	4473.42
1103.01	383.6	4385.39
1103.11	383.5	4405.76
1103.21	383.4	4367.42
1103.31	383.3	4313.86
1103.41	383.2	4355.76
1103.51	383.1	4437.03
1103.61	383	4544.53
1103.71	382.9	4680.71
1103.81	382.8	4901.13
1103.91	382.7	5048.61
1104.01	382.6	5208.27
1104.11	382.5	5403.93
1104.21	382.4	5488.72
1104.31	382.3	5608.06
1104.41	382.2	5588.7
1104.51	382.1	5472.85
1104.61	382	5387.05
1104.71	381.9	5410.22
1104.81	381.8	5362.64
1104.91	381.7	5390.41
1105.01	381.6	5591.41
1105.11	381.5	5804.33
1105.21	381.4	6024.81
1105.31	381.3	6120.24
1105.41	381.2	6292.42
1105.51	381.1	6224.77
1105.61	381	5991.63
1105.71	380.9	5563.9
1105.81	380.8	5029.68
1105.91	380.7	4476
1106.01	380.6	4078.33
1106.11	380.5	3723.61
1106.21	380.4	3523.67
1106.31	380.3	3378.55
1106.41	380.2	3252.94
1106.51	380.1	3222.06
1106.61	380	3119.16
1106.71	379.9	3098.35
1106.81	379.8	3046.36
1106.91	379.7	3036.67
1107.01	379.6	2994.82
1107.11	379.5	3004.62
1107.21	379.4	3009.92
1107.31	379.3	2996.56
1107.41	379.2	2995.28
1107.51	379.1	3040.99
1107.61	379	3017.16
1107.71	378.9	3093.87
1107.81	378.8	3047.37
1107.91	378.7	3069.18
1108.01	378.6	3121.22
1108.11	378.5	3187.44
1108.21	378.4	3280.93
1108.31	378.3	3410.04
1108.41	378.2	3464.57
1108.51	378.1	3505.51
1108.61	378	3572.46
1108.71	377.9	3539.39
1108.81	377.8	3538.78
1108.91	377.7	3457.18
1109.01	377.6	3430.7
1109.11	377.5	3326.03
1109.21	377.4	3182.92
1109.31	377.3	3139.57
1109.41	377.2	3157.53
1109.51	377.1	3105.9
1109.61	377	3095.81
1109.71	376.9	3114.58
1109.81	376.8	3134.44
1109.91	376.7	3142.13
1110.01	376.6	3121.42
1110.11	376.5	3168.42
1110.21	376.4	3207.16
1110.31	376.3	3253.36
1110.41	376.2	3313.7
1110.51	376.1	3331.93
1110.61	376	3444.73
1110.71	375.9	3589.07
1110.81	375.8	3669.4
1110.91	375.7	3778.41
1111.01	375.6	3903.69
1111.11	375.5	4079.86
1111.21	375.4	4298.88
1111.31	375.3	4613.76
1111.41	375.2	5037.97
1111.51	375.1	5654.66
1111.61	375	6590.83
1111.71	374.9	8098.52
1111.81	374.8	10179.8
1111.91	374.7	13006.2
1112.01	374.6	16931.5
1112.11	374.5	21551.3
1112.21	374.4	25972.5
1112.31	374.3	29126.1
1112.41	374.2	29715.7
1112.51	374.1	27833.5
1112.61	374	23751.6
1112.71	373.9	18359.5
1112.81	373.8	13246.8
1112.91	373.7	9325.46
1113.01	373.6	6791.31
1113.11	373.5	5214.98
1113.21	373.4	4199.89
1113.31	373.3	3670.79
1113.41	373.2	3318.37
1113.51	373.1	3077.28
1113.61	373	2925.67
1113.71	372.9	2825.03
1113.81	372.8	2714.74
1113.91	372.7	2704.71
1114.01	372.6	2718.71
1114.11	372.5	2729.26
1114.21	372.4	2794.71
1114.31	372.3	2864.58
1114.41	372.2	2962.12
1114.51	372.1	2980.35
1114.61	372	2986.59
1114.71	371.9	3016.3
1114.81	371.8	2912.22
1114.91	371.7	2827.8
1115.01	371.6	2630.16
1115.11	371.5	2496.11
1115.21	371.4	2405.26
1115.31	371.3	2257.33
1115.41	371.2	2198.29
1115.51	371.1	2137.83
1115.61	371	2131.19
1115.71	370.9	2131.25
1115.81	370.8	2126.35
1115.91	370.7	2168.13
1116.01	370.6	2199.78
1116.11	370.5	2218.44
1116.21	370.4	2317.28
1116.31	370.3	2394.23
1116.41	370.2	2426.63
1116.51	370.1	2521.62
1116.61	370	2690.38
1116.71	369.9	2810.52
1116.81	369.8	2981.19
1116.91	369.7	3201.05
1117.01	369.6	3418.3
1117.11	369.5	3687.79
1117.21	369.4	4060.89
1117.31	369.3	4555.25
1117.41	369.2	5242.26
1117.51	369.1	6162.52
1117.61	369	7626.96
1117.71	368.9	9670.45
1117.81	368.8	12692.1
1117.91	368.7	17114.4
1118.01	368.6	22659.5
1118.11	368.5	28993
1118.21	368.4	35401.5
1118.31	368.3	39962.2
1118.41	368.2	40948.4
1118.51	368.1	38268
1118.61	368	32205.2
1118.71	367.9	24711.5
1118.81	367.8	17395.1
1118.91	367.7	11754.2
1119.01	367.6	7958.03
1119.11	367.5	5575.13
1119.21	367.4	4189.65
1119.31	367.3	3256.25
1119.41	367.2	2684.11
1119.51	367.1	2322.97
1119.61	367	2071.87
1119.71	366.9	1842.58
1119.81	366.8	1686.42
1119.91	366.7	1587.41
1120.01	366.6	1452.86
1120.11	366.5	1368.2
1120.21	366.4	1334.01
1120.31	366.3	1264.31
1120.41	366.2	1246.6
1120.51	366.1	1193.81
1120.61	366	1149.62
1120.71	365.9	1105.06
1120.81	365.8	1071.55
1120.91	365.7	1051.01
1121.01	365.6	1060.62
1121.11	365.5	1027.35
1121.21	365.4	1006.46
1121.31	365.3	987.913
1121.41	365.2	1004.62
1121.51	365.1	958.594
1121.61	365	939.893
1121.71	364.9	914.969
1121.81	364.8	921.02
1121.91	364.7	914.466
1122.01	364.6	929.676
1122.11	364.5	912.23
1122.21	364.4	869.593
1122.31	364.3	861.536
1122.41	364.2	873.9
1122.51	364.1	880.389
1122.61	364	889.527
1122.71	363.9	860.404
1122.81	363.8	854.099
1122.91	363.7	844.367
1123.01	363.6	854.948
1123.11	363.5	823.676
1123.21	363.4	831.122
1123.31	363.3	828.349
1123.41	363.2	801.656
1123.51	363.1	824.385
1123.61	363	832.317
1123.71	362.9	845.738
1123.81	362.8	831.325
1123.91	362.7	803.631
1124.01	362.6	809.746
1124.11	362.5	809.298
1124.21	362.4	808.867
1124.31	362.3	820.056
1124.41	362.2	810.732
1124.51	362.1	821.565
1124.61	362	798.303
1124.71	361.9	783.81
1124.81	361.8	791.663
1124.91	361.7	782.615
1125.01	361.6	789.411
1125.11	361.5	781.77
1125.21	361.4	768.575
1125.31	361.3	772.251
1125.41	361.2	781.311
1125.51	361.1	789.38
1125.61	361	776.329
1125.71	360.9	794.491
1125.81	360.8	787.362
1125.91	360.7	781.693
1126.01	360.6	784.986
1126.11	360.5	763.629
1126.21	360.4	766.894
1126.31	360.3	771.258
1126.41	360.2	781.93
1126.51	360.1	773.968
1126.61	360	776.963
1126.71	359.9	756.171
1126.81	359.8	749.778
1126.91	359.7	752.104
1127.01	359.6	763.101
1127.11	359.5	741.345
1127.21	359.4	772.442
1127.31	359.3	753.462
1127.41	359.2	753.869
1127.51	359.1	760.578
1127.61	359	758.391
1127.71	358.9	760.217
1127.81	358.8	777.288
1127.91	358.7	751.584
1128.01	358.6	758.529
1128.11	358.5	771.615
1128.21	358.4	763.787
1128.31	358.3	765.616
1128.41	358.2	766.984
1128.51	358.1	757.23
1128.61	358	768.817
1128.71	357.9	763.138
1128.81	357.8	755.221
1128.91	357.7	758.265
1129.01	357.6	746.73
1129.11	357.5	777.483
1129.21	357.4	773.304
1129.31	357.3	758.908
1129.41	357.2	758.355
1129.51	357.1	740.998
1129.61	357	728.92
1129.71	356.9	727.956
1129.81	356.8	746.982
1129.91	356.7	744.464
1130.01	356.6	750.532
1130.11	356.5	757.844
1130.21	356.4	757.084
1130.31	356.3	745.126
1130.41	356.2	745.403
1130.51	356.1	749.197
1130.61	356	787.466
1130.71	355.9	787.315
1130.81	355.8	788.122
1130.91	355.7	762.181
1131.01	355.6	745.789
1131.11	355.5	736.393
1131.21	355.4	762.73
1131.31	355.3	765.462
1131.41	355.2	768.331
1131.51	355.1	781.314
1131.61	355	781.064
1131.71	354.9	762.28
1131.81	354.8	738.619
1131.91	354.7	745.373
1132.01	354.6	764.615
1132.11	354.5	767.519
1132.21	354.4	736.509
1132.31	354.3	771.809
1132.41	354.2	786.095
1132.51	354.1	760.948
1132.61	354	749.706
1132.71	353.9	737.402
1132.81	353.8	738.657
1132.91	353.7	743.163
1133.01	353.6	733.354
1133.11	353.5	751.763
1133.21	353.4	753.651
1133.31	353.3	796.715
1133.41	353.2	756.463
1133.51	353.1	743.594
1133.61	353	736.109
1133.71	352.9	768.037
1133.81	352.8	759.642
1133.91	352.7	756.647
1134.01	352.6	751.469
1134.11	352.5	761.59
1134.21	352.4	751.358
1134.31	352.3	774.393
1134.41	352.2	745.945
1134.51	352.1	752.328
1134.61	352	757.507
1134.71	351.9	742.538
1134.81	351.8	750.572
1134.91	351.7	770.215
1135.01	351.6	776.243
1135.11	351.5	780.728
1135.21	351.4	768.068
1135.31	351.3	755.632
1135.41	351.2	756.4
1135.51	351.1	772.771
1135.61	351	771.466
1135.71	350.9	767.147
1135.81	350.8	755.29
1135.91	350.7	744.792
1136.01	350.6	752.398
1136.11	350.5	770.845
1136.21	350.4	771.726
1136.31	350.3	782.273
1136.41	350.2	769.655
1136.51	350.1	735.753
1136.61	350	770.285