C:\Users\Mark\ownCloud\Muelheim Group\Projects\Gas phase background\EX318_CEC356_Au Ag Cu in N2_clean.vms
Ag3d
	Characteristic Energy eV	1486.61	Acquisition Time s	0.1
KE_Ag3d	BE_Ag3d	CPS_Ag3d
1036.61	450	10124.5
1036.71	449.9	10397.9
1036.81	449.8	9788.25
1036.91	449.7	9964.52
1037.01	449.6	10231.3
1037.11	449.5	9526.43
1037.21	449.4	9818.89
1037.31	449.3	10264.8
1037.41	449.2	9903.81
1037.51	449.1	10266
1037.61	449	10130.4
1037.71	448.9	10269
1037.81	448.8	9907.59
1037.91	448.7	9418.68
1038.01	448.6	9767.28
1038.11	448.5	10169
1038.21	448.4	10417.1
1038.31	448.3	10591.1
1038.41	448.2	9797.09
1038.51	448.1	9878.89
1038.61	448	9819.63
1038.71	447.9	9568.53
1038.81	447.8	9295.08
1038.91	447.7	9768.66
1039.01	447.6	9921.69
1039.11	447.5	9811.95
1039.21	447.4	9929.85
1039.31	447.3	10199.7
1039.41	447.2	9982.84
1039.51	447.1	10543.3
1039.61	447	10048.3
1039.71	446.9	9949.3
1039.81	446.8	9577.63
1039.91	446.7	9664.1
1040.01	446.6	10180.9
1040.11	446.5	10381.6
1040.21	446.4	10110.4
1040.31	446.3	10050.3
1040.41	446.2	10093.7
1040.51	446.1	10376.8
1040.61	446	10630.9
1040.71	445.9	9758.81
1040.81	445.8	10400.9
1040.91	445.7	10405.9
1041.01	445.6	10405.7
1041.11	445.5	10108.4
1041.21	445.4	9483.91
1041.31	445.3	9623.81
1041.41	445.2	9841.63
1041.51	445.1	9840.71
1041.61	445	10295.9
1041.71	444.9	9455.09
1041.81	444.8	9928.21
1041.91	444.7	10168.2
1042.01	444.6	10417.9
1042.11	444.5	9900.75
1042.21	444.4	9666.98
1042.31	444.3	9428.29
1042.41	444.2	10093.1
1042.51	444.1	9948.8
1042.61	444	9846.17
1042.71	443.9	10184
1042.81	443.8	9661.04
1042.91	443.7	9756.27
1043.01	443.6	9919.53
1043.11	443.5	9966.32
1043.21	443.4	10031
1043.31	443.3	10338.5
1043.41	443.2	10006.3
1043.51	443.1	10091.3
1043.61	443	9882.96
1043.71	442.9	10201.3
1043.81	442.8	9804
1043.91	442.7	10126.9
1044.01	442.6	10264.7
1044.11	442.5	9984.03
1044.21	442.4	10148.8
1044.31	442.3	9626.47
1044.41	442.2	9954.99
1044.51	442.1	10279
1044.61	442	10265.6
1044.71	441.9	9906.36
1044.81	441.8	10071.2
1044.91	441.7	10120.2
1045.01	441.6	10559.3
1045.11	441.5	9951.47
1045.21	441.4	9598.57
1045.31	441.3	10203.1
1045.41	441.2	9597.97
1045.51	441.1	9359.74
1045.61	441	9505.59
1045.71	440.9	10122.2
1045.81	440.8	10108.6
1045.91	440.7	10249.7
1046.01	440.6	10435
1046.11	440.5	10385.3
1046.21	440.4	10250.2
1046.31	440.3	10012.4
1046.41	440.2	9645.47
1046.51	440.1	9923.99
1046.61	440	10036.1
1046.71	439.9	10128.6
1046.81	439.8	10593.7
1046.91	439.7	10325.8
1047.01	439.6	9900.84
1047.11	439.5	10023.9
1047.21	439.4	9541.93
1047.31	439.3	10189.4
1047.41	439.2	9828.79
1047.51	439.1	9950.22
1047.61	439	9890.38
1047.71	438.9	10330.6
1047.81	438.8	10097.5
1047.91	438.7	10145
1048.01	438.6	9806.26
1048.11	438.5	9786.55
1048.21	438.4	9964.4
1048.31	438.3	10170.8
1048.41	438.2	10510.5
1048.51	438.1	9714.17
1048.61	438	9898.1
1048.71	437.9	10262.8
1048.81	437.8	9866.1
1048.91	437.7	10128.4
1049.01	437.6	10160.5
1049.11	437.5	10132.9
1049.21	437.4	10238.6
1049.31	437.3	9817.49
1049.41	437.2	10107.2
1049.51	437.1	10652.8
1049.61	437	10263.3
1049.71	436.9	10409.5
1049.81	436.8	10098.3
1049.91	436.7	10174.8
1050.01	436.6	9870.89
1050.11	436.5	9610.85
1050.21	436.4	9566.97
1050.31	436.3	9963.93
1050.41	436.2	10303.1
1050.51	436.1	10096.1
1050.61	436	10384.2
1050.71	435.9	10037.4
1050.81	435.8	9809.74
1050.91	435.7	9664.32
1051.01	435.6	9773.11
1051.11	435.5	10232.9
1051.21	435.4	10490.2
1051.31	435.3	10446.9
1051.41	435.2	10261.5
1051.51	435.1	9948.13
1051.61	435	10098.9
1051.71	434.9	9955.48
1051.81	434.8	10250.8
1051.91	434.7	9979.59
1052.01	434.6	10075.3
1052.11	434.5	10410.6
1052.21	434.4	10412.4
1052.31	434.3	10125.2
1052.41	434.2	10102.7
1052.51	434.1	10362.1
1052.61	434	9979.43
1052.71	433.9	9928.63
1052.81	433.8	10640.5
1052.91	433.7	10315.4
1053.01	433.6	9866.63
1053.11	433.5	9909.39
1053.21	433.4	9944.79
1053.31	433.3	9495.01
1053.41	433.2	9955.69
1053.51	433.1	10297.5
1053.61	433	9896.96
1053.71	432.9	9945.89
1053.81	432.8	9749.89
1053.91	432.7	10232.9
1054.01	432.6	10324
1054.11	432.5	9794.76
1054.21	432.4	10193.2
1054.31	432.3	9900.7
1054.41	432.2	9799.42
1054.51	432.1	10186.1
1054.61	432	10052.5
1054.71	431.9	10283.3
1054.81	431.8	10040.1
1054.91	431.7	10093.2
1055.01	431.6	10301.2
1055.11	431.5	9837.74
1055.21	431.4	10137.5
1055.31	431.3	9676.87
1055.41	431.2	9952.91
1055.51	431.1	9853.1
1055.61	431	9802.71
1055.71	430.9	9923.12
1055.81	430.8	10732.9
1055.91	430.7	10572.1
1056.01	430.6	10026.4
1056.11	430.5	10085.2
1056.21	430.4	10192
1056.31	430.3	10328.7
1056.41	430.2	9993
1056.51	430.1	9991.91
1056.61	430	9925.88
1056.71	429.9	10456.9
1056.81	429.8	10281.8
1056.91	429.7	10211.7
1057.01	429.6	10158.2
1057.11	429.5	9818.72
1057.21	429.4	9972.01
1057.31	429.3	10190.7
1057.41	429.2	10482.2
1057.51	429.1	10182.4
1057.61	429	9956.21
1057.71	428.9	9800.75
1057.81	428.8	10450.8
1057.91	428.7	10459.6
1058.01	428.6	9800.5
1058.11	428.5	10165.2
1058.21	428.4	10007.4
1058.31	428.3	10014
1058.41	428.2	10361.2
1058.51	428.1	10682.4
1058.61	428	10421.7
1058.71	427.9	10938
1058.81	427.8	9875.15
1058.91	427.7	9881.84
1059.01	427.6	10435.8
1059.11	427.5	10398.4
1059.21	427.4	10106.3
1059.31	427.3	10278.9
1059.41	427.2	10108.2
1059.51	427.1	10255.2
1059.61	427	10094.7
1059.71	426.9	10406
1059.81	426.8	10682.8
1059.91	426.7	10018.4
1060.01	426.6	10315
1060.11	426.5	10172
1060.21	426.4	10528.3
1060.31	426.3	9906.38
1060.41	426.2	9966.84
1060.51	426.1	10163.2
1060.61	426	9931.19
1060.71	425.9	10406.4
1060.81	425.8	10447.9
1060.91	425.7	10207.9
1061.01	425.6	10007.4
1061.11	425.5	10705.3
1061.21	425.4	10466.5
1061.31	425.3	10625.7
1061.41	425.2	10467.5
1061.51	425.1	10053.3
1061.61	425	10214.1
1061.71	424.9	10216.1
1061.81	424.8	10219.8
1061.91	424.7	10626.7
1062.01	424.6	10511.4
1062.11	424.5	10279
1062.21	424.4	10490.4
1062.31	424.3	10432.6
1062.41	424.2	10130.4
1062.51	424.1	10464.4
1062.61	424	10493.6
1062.71	423.9	10373
1062.81	423.8	9969.24
1062.91	423.7	9559.36
1063.01	423.6	10009.5
1063.11	423.5	9962.77
1063.21	423.4	9875.18
1063.31	423.3	9994.32
1063.41	423.2	10299
1063.51	423.1	10543.7
1063.61	423	10610.1
1063.71	422.9	10152.3
1063.81	422.8	9977.24
1063.91	422.7	10028.4
1064.01	422.6	10791.4
1064.11	422.5	10958.7
1064.21	422.4	10487.5
1064.31	422.3	10585.9
1064.41	422.2	10467.8
1064.51	422.1	10341.6
1064.61	422	10312.1
1064.71	421.9	10339.8
1064.81	421.8	10213.4
1064.91	421.7	10174.5
1065.01	421.6	10301.6
1065.11	421.5	10393.4
1065.21	421.4	10466.4
1065.31	421.3	10615.5
1065.41	421.2	10630.4
1065.51	421.1	10575.2
1065.61	421	10352.6
1065.71	420.9	10449
1065.81	420.8	10538.5
1065.91	420.7	9829.27
1066.01	420.6	10497.1
1066.11	420.5	10447.9
1066.21	420.4	10229
1066.31	420.3	9978.32
1066.41	420.2	10493.6
1066.51	420.1	10592.3
1066.61	420	10016.6
1066.71	419.9	10295.3
1066.81	419.8	10412.3
1066.91	419.7	10225.4
1067.01	419.6	10153.6
1067.11	419.5	10158
1067.21	419.4	9898.85
1067.31	419.3	9940.58
1067.41	419.2	9883.2
1067.51	419.1	10862.4
1067.61	419	10647.9
1067.71	418.9	10448.1
1067.81	418.8	10594.5
1067.91	418.7	10598.4
1068.01	418.6	10184.4
1068.11	418.5	9962.98
1068.21	418.4	10227.9
1068.31	418.3	10186
1068.41	418.2	10309.6
1068.51	418.1	10268.4
1068.61	418	10418.5
1068.71	417.9	10134.3
1068.81	417.8	10316.4
1068.91	417.7	10254.3
1069.01	417.6	10390.5
1069.11	417.5	10588.9
1069.21	417.4	10661.1
1069.31	417.3	11010.1
1069.41	417.2	10897.8
1069.51	417.1	10188.2
1069.61	417	10019.2
1069.71	416.9	9956.86
1069.81	416.8	9879.34
1069.91	416.7	9880.41
1070.01	416.6	10572.2
1070.11	416.5	10572.4
1070.21	416.4	10112.6
1070.31	416.3	10685.7
1070.41	416.2	10791.1
1070.51	416.1	10242.4
1070.61	416	10026.7
1070.71	415.9	10586.5
1070.81	415.8	10337.6
1070.91	415.7	10583.5
1071.01	415.6	10058.6
1071.11	415.5	10559.2
1071.21	415.4	10376.5
1071.31	415.3	10260.5
1071.41	415.2	10430.2
1071.51	415.1	10395.9
1071.61	415	10129.4
1071.71	414.9	10802.6
1071.81	414.8	10356
1071.91	414.7	10856.1
1072.01	414.6	10277.6
1072.11	414.5	11086.2
1072.21	414.4	10742.6
1072.31	414.3	10703.1
1072.41	414.2	10581.4
1072.51	414.1	10668.3
1072.61	414	10953.4
1072.71	413.9	10444.6
1072.81	413.8	10568.1
1072.91	413.7	10299.6
1073.01	413.6	10056.8
1073.11	413.5	10438
1073.21	413.4	10296.8
1073.31	413.3	10499.4
1073.41	413.2	10448.5
1073.51	413.1	10057.7
1073.61	413	10167.6
1073.71	412.9	10250.1
1073.81	412.8	10153.3
1073.91	412.7	10356.5
1074.01	412.6	10280.2
1074.11	412.5	10728.3
1074.21	412.4	10638.6
1074.31	412.3	10466.6
1074.41	412.2	10743.1
1074.51	412.1	10339.4
1074.61	412	10126.6
1074.71	411.9	10146.6
1074.81	411.8	10036
1074.91	411.7	10210.6
1075.01	411.6	10713.8
1075.11	411.5	10498.4
1075.21	411.4	10386
1075.31	411.3	10140.2
1075.41	411.2	10837.1
1075.51	411.1	10869.6
1075.61	411	10346.9
1075.71	410.9	10433.3
1075.81	410.8	10900.7
1075.91	410.7	10648.8
1076.01	410.6	10670.7
1076.11	410.5	11394.8
1076.21	410.4	10768.9
1076.31	410.3	10155.7
1076.41	410.2	10189.7
1076.51	410.1	10368.6
1076.61	410	10688
1076.71	409.9	10748.8
1076.81	409.8	10873
1076.91	409.7	10637.6
1077.01	409.6	10777.7
1077.11	409.5	10451
1077.21	409.4	10594.5
1077.31	409.3	11144.2
1077.41	409.2	11066.2
1077.51	409.1	11152.8
1077.61	409	11349.1
1077.71	408.9	10495.5
1077.81	408.8	10422.8
1077.91	408.7	10637.6
1078.01	408.6	10507.5
1078.11	408.5	10674.5
1078.21	408.4	10002.5
1078.31	408.3	10304.5
1078.41	408.2	10314.6
1078.51	408.1	10640.1
1078.61	408	10561.2
1078.71	407.9	11012.5
1078.81	407.8	11021.9
1078.91	407.7	10660
1079.01	407.6	10442.9
1079.11	407.5	10920.1
1079.21	407.4	11027.7
1079.31	407.3	10307.9
1079.41	407.2	10301.4
1079.51	407.1	10463.3
1079.61	407	10247
1079.71	406.9	11116.7
1079.81	406.8	10780.1
1079.91	406.7	10539.5
1080.01	406.6	10945
1080.11	406.5	11078.9
1080.21	406.4	11080.6
1080.31	406.3	10867.7
1080.41	406.2	10836.7
1080.51	406.1	10722.4
1080.61	406	10907.2
1080.71	405.9	10974.2
1080.81	405.8	10964.6
1080.91	405.7	10782.1
1081.01	405.6	10943.8
1081.11	405.5	10831.8
1081.21	405.4	11082.5
1081.31	405.3	10734.1
1081.41	405.2	11116.9
1081.51	405.1	10738.8
1081.61	405	11082.3
1081.71	404.9	11095.9
1081.81	404.8	11271.5
1081.91	404.7	10835.3
1082.01	404.6	10944.4
1082.11	404.5	11395.2
1082.21	404.4	11352.3
1082.31	404.3	11066.4
1082.41	404.2	11121.4
1082.51	404.1	11466
1082.61	404	10927.4
1082.71	403.9	10842.7
1082.81	403.8	10770.6
1082.91	403.7	11338.8
1083.01	403.6	11149.1
1083.11	403.5	10941
1083.21	403.4	11204.9
1083.31	403.3	11429
1083.41	403.2	11384.7
1083.51	403.1	11552.4
1083.61	403	11629.8
1083.71	402.9	11257.2
1083.81	402.8	11253.3
1083.91	402.7	11202
1084.01	402.6	11223.5
1084.11	402.5	11147.4
1084.21	402.4	11185.4
1084.31	402.3	11356.1
1084.41	402.2	11854.4
1084.51	402.1	11685.4
1084.61	402	11098.6
1084.71	401.9	11487.6
1084.81	401.8	11249.5
1084.91	401.7	12014.2
1085.01	401.6	11313.5
1085.11	401.5	11044.5
1085.21	401.4	10667.7
1085.31	401.3	11312.3
1085.41	401.2	11817.5
1085.51	401.1	11748.3
1085.61	401	11852.5
1085.71	400.9	11403.2
1085.81	400.8	11405.1
1085.91	400.7	11668.8
1086.01	400.6	12047.1
1086.11	400.5	12218.5
1086.21	400.4	11924.7
1086.31	400.3	11992.6
1086.41	400.2	11922.6
1086.51	400.1	12101.2
1086.61	400	11639.9
1086.71	399.9	11302.3
1086.81	399.8	11847.5
1086.91	399.7	11760.4
1087.01	399.6	12107.3
1087.11	399.5	11953.2
1087.21	399.4	11805.1
1087.31	399.3	11763.2
1087.41	399.2	11790.5
1087.51	399.1	11753.3
1087.61	399	11912.3
1087.71	398.9	11961.1
1087.81	398.8	11929.4
1087.91	398.7	12065.4
1088.01	398.6	12166.9
1088.11	398.5	11789.8
1088.21	398.4	11904.8
1088.31	398.3	11518.7
1088.41	398.2	11956.4
1088.51	398.1	11924
1088.61	398	12264
1088.71	397.9	12209.7
1088.81	397.8	12230.3
1088.91	397.7	11756.8
1089.01	397.6	11698.5
1089.11	397.5	11132.1
1089.21	397.4	11798.1
1089.31	397.3	11132.2
1089.41	397.2	11544.1
1089.51	397.1	11701.5
1089.61	397	11547.6
1089.71	396.9	11561.6
1089.81	396.8	11695.5
1089.91	396.7	11091.5
1090.01	396.6	11466.6
1090.11	396.5	11914
1090.21	396.4	11788.1
1090.31	396.3	12156.6
1090.41	396.2	12136.7
1090.51	396.1	11168.3
1090.61	396	11669.5
1090.71	395.9	11427.4
1090.81	395.8	12072
1090.91	395.7	11759.5
1091.01	395.6	11581.7
1091.11	395.5	11837.1
1091.21	395.4	12174
1091.31	395.3	11551.4
1091.41	395.2	11473.1
1091.51	395.1	11967.3
1091.61	395	12017.2
1091.71	394.9	12029.3
1091.81	394.8	11828.8
1091.91	394.7	12220.8
1092.01	394.6	12551.2
1092.11	394.5	12243.5
1092.21	394.4	11608.6
1092.31	394.3	11773.2
1092.41	394.2	11975.8
1092.51	394.1	12796.1
1092.61	394	12027
1092.71	393.9	12346.4
1092.81	393.8	12378.7
1092.91	393.7	12020.9
1093.01	393.6	12047.8
1093.11	393.5	12360.9
1093.21	393.4	12787.3
1093.31	393.3	12536.9
1093.41	393.2	12601.1
1093.51	393.1	12256.8
1093.61	393	12890.5
1093.71	392.9	12339.9
1093.81	392.8	12297
1093.91	392.7	12482.5
1094.01	392.6	12876.6
1094.11	392.5	12676.8
1094.21	392.4	11742.6
1094.31	392.3	11902
1094.41	392.2	12555.3
1094.51	392.1	12795.4
1094.61	392	12615.7
1094.71	391.9	12298
1094.81	391.8	12505.8
1094.91	391.7	11948.4
1095.01	391.6	12290.1
1095.11	391.5	11929.9
1095.21	391.4	12224.8
1095.31	391.3	12014
1095.41	391.2	11755.3
1095.51	391.1	11672.8
1095.61	391	12035.3
1095.71	390.9	11755.6
1095.81	390.8	12320.9
1095.91	390.7	11530.7
1096.01	390.6	11889.3
1096.11	390.5	12471.1
1096.21	390.4	12064
1096.31	390.3	11435.8
1096.41	390.2	11978.8
1096.51	390.1	11947
1096.61	390	11553.5
1096.71	389.9	12078
1096.81	389.8	11613.8
1096.91	389.7	11701.4
1097.01	389.6	11861.3
1097.11	389.5	11269.4
1097.21	389.4	11372
1097.31	389.3	11730.7
1097.41	389.2	11662.5
1097.51	389.1	11923
1097.61	389	12043.9
1097.71	388.9	11901.7
1097.81	388.8	11496.3
1097.91	388.7	11571.9
1098.01	388.6	11477.8
1098.11	388.5	11738.5
1098.21	388.4	11910.4
1098.31	388.3	11785.9
1098.41	388.2	11368.6
1098.51	388.1	11133.8
1098.61	388	11459.8
1098.71	387.9	11740.1
1098.81	387.8	12078.2
1098.91	387.7	11482.6
1099.01	387.6	11461.9
1099.11	387.5	11873.9
1099.21	387.4	11682.3
1099.31	387.3	11443.8
1099.41	387.2	11427.7
1099.51	387.1	11085.2
1099.61	387	11588
1099.71	386.9	11556.5
1099.81	386.8	11682.2
1099.91	386.7	11706.2
1100.01	386.6	11642.2
1100.11	386.5	12119.2
1100.21	386.4	11395
1100.31	386.3	11015.1
1100.41	386.2	11697
1100.51	386.1	11772.9
1100.61	386	11914.6
1100.71	385.9	11254.8
1100.81	385.8	11277.8
1100.91	385.7	11512.8
1101.01	385.6	11982
1101.11	385.5	11975
1101.21	385.4	11460.5
1101.31	385.3	11385
1101.41	385.2	11319
1101.51	385.1	11526.7
1101.61	385	11182.4
1101.71	384.9	11600.6
1101.81	384.8	11514.8
1101.91	384.7	11164
1102.01	384.6	11209.6
1102.11	384.5	11206.7
1102.21	384.4	11460.2
1102.31	384.3	11031
1102.41	384.2	11520.2
1102.51	384.1	11385.4
1102.61	384	10840.7
1102.71	383.9	11528.4
1102.81	383.8	11525
1102.91	383.7	11351.9
1103.01	383.6	11090.2
1103.11	383.5	11302.7
1103.21	383.4	11775.3
1103.31	383.3	11262.4
1103.41	383.2	11454.4
1103.51	383.1	11362.8
1103.61	383	11641
1103.71	382.9	11967.6
1103.81	382.8	11382.4
1103.91	382.7	11217.9
1104.01	382.6	11028.6
1104.11	382.5	11566.3
1104.21	382.4	11534.4
1104.31	382.3	11298.3
1104.41	382.2	11148.1
1104.51	382.1	11163.8
1104.61	382	11426.6
1104.71	381.9	11359.3
1104.81	381.8	10969.6
1104.91	381.7	11105.3
1105.01	381.6	11348.2
1105.11	381.5	11415.1
1105.21	381.4	11567.7
1105.31	381.3	11266.1
1105.41	381.2	11386.5
1105.51	381.1	11111.8
1105.61	381	11062.6
1105.71	380.9	10889.3
1105.81	380.8	10849.8
1105.91	380.7	11021
1106.01	380.6	10838.6
1106.11	380.5	10863.9
1106.21	380.4	10873.1
1106.31	380.3	10857.9
1106.41	380.2	10633.5
1106.51	380.1	10888.3
1106.61	380	11109.6
1106.71	379.9	10265
1106.81	379.8	10217.9
1106.91	379.7	10655.1
1107.01	379.6	11035
1107.11	379.5	11107.4
1107.21	379.4	10945
1107.31	379.3	10586.9
1107.41	379.2	11276.5
1107.51	379.1	10710.7
1107.61	379	10606
1107.71	378.9	11069.5
1107.81	378.8	10908.6
1107.91	378.7	11293.5
1108.01	378.6	11339.8
1108.11	378.5	11643.6
1108.21	378.4	11820.1
1108.31	378.3	12741.9
1108.41	378.2	12596.1
1108.51	378.1	12507.3
1108.61	378	12758.1
1108.71	377.9	13419.9
1108.81	377.8	13112.5
1108.91	377.7	12534.3
1109.01	377.6	12083.9
1109.11	377.5	11703.4
1109.21	377.4	11380.3
1109.31	377.3	10735.9
1109.41	377.2	10804.7
1109.51	377.1	11033.1
1109.61	377	11127.9
1109.71	376.9	11119.1
1109.81	376.8	11512.1
1109.91	376.7	11522.3
1110.01	376.6	11487.4
1110.11	376.5	11982.9
1110.21	376.4	11876.6
1110.31	376.3	12693.6
1110.41	376.2	12578.1
1110.51	376.1	12733.4
1110.61	376	12597.8
1110.71	375.9	13648.1
1110.81	375.8	13671.8
1110.91	375.7	14232.6
1111.01	375.6	15328
1111.11	375.5	15698.9
1111.21	375.4	17059.6
1111.31	375.3	18531
1111.41	375.2	19880.3
1111.51	375.1	22573.7
1111.61	375	26241.9
1111.71	374.9	32416.1
1111.81	374.8	41055.1
1111.91	374.7	53628.9
1112.01	374.6	69369.4
1112.11	374.5	88155.9
1112.21	374.4	107384
1112.31	374.3	120863
1112.41	374.2	125510
1112.51	374.1	116634
1112.61	374	99537.8
1112.71	373.9	76744.6
1112.81	373.8	55146.9
1112.91	373.7	38061.6
1113.01	373.6	27038
1113.11	373.5	20854.1
1113.21	373.4	16567.5
1113.31	373.3	13848.5
1113.41	373.2	11956.3
1113.51	373.1	10820.3
1113.61	373	10523.8
1113.71	372.9	10739.5
1113.81	372.8	10366.3
1113.91	372.7	10089.1
1114.01	372.6	10176.8
1114.11	372.5	9784.77
1114.21	372.4	10323.6
1114.31	372.3	10972.4
1114.41	372.2	10859.3
1114.51	372.1	10228
1114.61	372	10890.4
1114.71	371.9	11292.6
1114.81	371.8	10665.4
1114.91	371.7	10028.7
1115.01	371.6	9659.22
1115.11	371.5	9351.34
1115.21	371.4	8538.82
1115.31	371.3	8205.61
1115.41	371.2	7681.07
1115.51	371.1	7684.3
1115.61	371	7482.38
1115.71	370.9	7328.93
1115.81	370.8	7543.06
1115.91	370.7	7384.98
1116.01	370.6	7470.4
1116.11	370.5	7817.3
1116.21	370.4	8246.43
1116.31	370.3	8562.74
1116.41	370.2	9266.84
1116.51	370.1	9844
1116.61	370	10062.2
1116.71	369.9	10496.6
1116.81	369.8	11267.8
1116.91	369.7	11647.2
1117.01	369.6	12574
1117.11	369.5	13972.2
1117.21	369.4	15397.2
1117.31	369.3	17860.5
1117.41	369.2	20168
1117.51	369.1	24340.6
1117.61	369	30112.9
1117.71	368.9	38528.4
1117.81	368.8	51592.1
1117.91	368.7	70375.9
1118.01	368.6	92606.3
1118.11	368.5	119222
1118.21	368.4	146291
1118.31	368.3	166615
1118.41	368.2	171333
1118.51	368.1	159907
1118.61	368	135060
1118.71	367.9	103231
1118.81	367.8	73132
1118.91	367.7	48886.9
1119.01	367.6	33496.3
1119.11	367.5	22801.4
1119.21	367.4	16336.7
1119.31	367.3	13266.9
1119.41	367.2	9714.33
1119.51	367.1	8585.69
1119.61	367	7346.83
1119.71	366.9	6013.37
1119.81	366.8	5485.89
1119.91	366.7	4913.67
1120.01	366.6	4370.62
1120.11	366.5	4326.38
1120.21	366.4	3782.31
1120.31	366.3	3829.95
1120.41	366.2	3650.45
1120.51	366.1	3556.19
1120.61	366	3490.37
1120.71	365.9	3181.52
1120.81	365.8	3049.77
1120.91	365.7	2842.83
1121.01	365.6	2955.7
1121.11	365.5	2547.25
1121.21	365.4	2539.79
1121.31	365.3	2528.21
1121.41	365.2	2448.37
1121.51	365.1	2129.25
1121.61	365	2089.49
1121.71	364.9	2159.62
1121.81	364.8	2141.15
1121.91	364.7	2122.57
1122.01	364.6	2275.44
1122.11	364.5	2217.81
1122.21	364.4	1950.89
1122.31	364.3	2212.14
1122.41	364.2	2078.5
1122.51	364.1	2077.46
1122.61	364	2019.91
1122.71	363.9	1814.31
1122.81	363.8	1885.93
1122.91	363.7	1757.57
1123.01	363.6	1894.59
1123.11	363.5	1899.48
1123.21	363.4	1784.12
1123.31	363.3	1752.58
1123.41	363.2	1679.36
1123.51	363.1	1679.65
1123.61	363	1839.76
1123.71	362.9	1819.1
1123.81	362.8	1966.11
1123.91	362.7	1925.23
1124.01	362.6	1792.37
1124.11	362.5	1875.66
1124.21	362.4	1805.73
1124.31	362.3	1823.57
1124.41	362.2	1734.91
1124.51	362.1	1740.94
1124.61	362	1522.35
1124.71	361.9	1719.58
1124.81	361.8	1935.64
1124.91	361.7	1753.14
1125.01	361.6	1616.73
1125.11	361.5	1765.46
1125.21	361.4	1673.34
1125.31	361.3	1732.62
1125.41	361.2	1542.72
1125.51	361.1	1727.87
1125.61	361	1457.6
1125.71	360.9	1605.42
1125.81	360.8	1813.7
1125.91	360.7	1630.37
1126.01	360.6	1410.66
1126.11	360.5	1623.69
1126.21	360.4	1531.93
1126.31	360.3	1608.87
1126.41	360.2	1760.33
1126.51	360.1	1683.9
1126.61	360	1545
1126.71	359.9	1752.23
1126.81	359.8	1512.72
1126.91	359.7	1725.71
1127.01	359.6	1736.11
1127.11	359.5	1576.42
1127.21	359.4	1524.84
1127.31	359.3	1502.47
1127.41	359.2	1329.55
1127.51	359.1	1459.1
1127.61	359	1652.87
1127.71	358.9	1357.22
1127.81	358.8	1410.73
1127.91	358.7	1552.13
1128.01	358.6	1486.98
1128.11	358.5	1641.43
1128.21	358.4	1492.89
1128.31	358.3	1714.18
1128.41	358.2	1380.62
1128.51	358.1	1487.47
1128.61	358	1472.07
1128.71	357.9	1522.6
1128.81	357.8	1598.73
1128.91	357.7	1701.46
1129.01	357.6	1577.02
1129.11	357.5	1448.6
1129.21	357.4	1557.5
1129.31	357.3	1569.05
1129.41	357.2	1393.15
1129.51	357.1	1499.28
1129.61	357	1504.13
1129.71	356.9	1621.71
1129.81	356.8	1513.15
1129.91	356.7	1414.81
1130.01	356.6	1480.31
1130.11	356.5	1526.05
1130.21	356.4	1552.18
1130.31	356.3	1740.83
1130.41	356.2	1603.63
1130.51	356.1	1575.03
1130.61	356	1626.99
1130.71	355.9	1393.4
1130.81	355.8	1528.13
1130.91	355.7	1545.66
1131.01	355.6	1483.87
1131.11	355.5	1551.84
1131.21	355.4	1421.99
1131.31	355.3	1366.46
1131.41	355.2	1519.29
1131.51	355.1	1482.78
1131.61	355	1314.74
1131.71	354.9	1443.7
1131.81	354.8	1477.4
1131.91	354.7	1408.97
1132.01	354.6	1539.96
1132.11	354.5	1525.58
1132.21	354.4	1532.09
1132.31	354.3	1476.16
1132.41	354.2	1372.83
1132.51	354.1	1502.45
1132.61	354	1586.17
1132.71	353.9	1720.63
1132.81	353.8	1693.6
1132.91	353.7	1551.2
1133.01	353.6	1423.88
1133.11	353.5	1591.66
1133.21	353.4	1304.42
1133.31	353.3	1475.78
1133.41	353.2	1604.72
1133.51	353.1	1503.84
1133.61	353	1448.34
1133.71	352.9	1490.72
1133.81	352.8	1470.04
1133.91	352.7	1598.85
1134.01	352.6	1723.32
1134.11	352.5	1477.28
1134.21	352.4	1501.13
1134.31	352.3	1528.73
1134.41	352.2	1459.31
1134.51	352.1	1359.24
1134.61	352	1429.85
1134.71	351.9	1326.85
1134.81	351.8	1517.32
1134.91	351.7	1511.9
1135.01	351.6	1429.06
1135.11	351.5	1531.87
1135.21	351.4	1392.05
1135.31	351.3	1501.92
1135.41	351.2	1544.54
1135.51	351.1	1380.21
1135.61	351	1263.66
1135.71	350.9	1320.91
1135.81	350.8	1442.94
1135.91	350.7	1510.83
1136.01	350.6	1480.28
1136.11	350.5	1531.26
1136.21	350.4	1477.91
1136.31	350.3	1378.87
1136.41	350.2	1477.82
1136.51	350.1	1264.26
1136.61	350	1418.85