EX318_CEC356_Au Ag Cu in N2_clean_vb_regions.vms
Survey
	Characteristic Energy eV	1486.61	Acquisition Time s	0.1
KE_Survey	BE_Survey	CPS_Survey	Background_Survey
977.61	509	11842.2	11842.2
978.11	508.5	11827.5	11827.5
978.61	508	11656.2	11656.2
979.11	507.5	11760.7	11760.7
979.61	507	11826.2	11826.2
980.11	506.5	11831.7	11831.7
980.61	506	12011.4	12011.4
981.11	505.5	11909.1	11909.1
981.61	505	11904.5	11904.5
982.11	504.5	12079.1	12079.1
982.61	504	11882.1	11882.1
983.11	503.5	11996.8	11996.8
983.61	503	11848.8	11848.8
984.11	502.5	11919.4	11919.4
984.61	502	11883	11883
985.11	501.5	11993.3	11993.3
985.61	501	12077	12077
986.11	500.5	12234.9	12234.9
986.61	500	12012.1	12012.1
987.11	499.5	12221.4	12221.4
987.61	499	12329.1	12329.1
988.11	498.5	12407.8	12407.8
988.61	498	12108.7	12108.7
989.11	497.5	12321.5	12321.5
989.61	497	12203	12203
990.11	496.5	12265.6	12265.6
990.61	496	12530.8	12530.8
991.11	495.5	12382.4	12382.4
991.61	495	12403.7	12403.7
992.11	494.5	12236.5	12236.5
992.61	494	12561.3	12561.3
993.11	493.5	12710.8	12710.8
993.61	493	12622.6	12622.6
994.11	492.5	12442.5	12442.5
994.61	492	12590.4	12590.4
995.11	491.5	12599.8	12599.8
995.61	491	12686.3	12686.3
996.11	490.5	12726.2	12726.2
996.61	490	12733.9	12733.9
997.11	489.5	12925.4	12925.4
997.61	489	12751.6	12751.6
998.11	488.5	12865.5	12865.5
998.61	488	12975	12975
999.11	487.5	12774.2	12774.2
999.61	487	12913.4	12913.4
1000.11	486.5	13037	13037
1000.61	486	13130.2	13130.2
1001.11	485.5	13012.3	13012.3
1001.61	485	12909.5	12909.5
1002.11	484.5	12796.8	12796.8
1002.61	484	12964	12964
1003.11	483.5	12987.2	12987.2
1003.61	483	13215.4	13215.4
1004.11	482.5	13057.4	13057.4
1004.61	482	13114.9	13114.9
1005.11	481.5	13167.8	13167.8
1005.61	481	13099	13099
1006.11	480.5	12979	12979
1006.61	480	13262.1	13262.1
1007.11	479.5	13305.8	13305.8
1007.61	479	13288.4	13288.4
1008.11	478.5	13247.7	13247.7
1008.61	478	13477.5	13477.5
1009.11	477.5	13370	13370
1009.61	477	13374.5	13374.5
1010.11	476.5	13303.7	13303.7
1010.61	476	13455.1	13455.1
1011.11	475.5	13500.7	13500.7
1011.61	475	13615.6	13615.6
1012.11	474.5	13539	13539
1012.61	474	13460.5	13460.5
1013.11	473.5	13506.6	13506.6
1013.61	473	13805.4	13805.4
1014.11	472.5	13487.1	13487.1
1014.61	472	13798.9	13798.9
1015.11	471.5	13783.3	13783.3
1015.61	471	13848.8	13848.8
1016.11	470.5	14014.7	14014.7
1016.61	470	13897.6	13897.6
1017.11	469.5	13820.7	13820.7
1017.61	469	13797.6	13797.6
1018.11	468.5	13743.2	13743.2
1018.61	468	13976.6	13976.6
1019.11	467.5	14089.9	14089.9
1019.61	467	14072.7	14072.7
1020.11	466.5	13927	13927
1020.61	466	13984.4	13984.4
1021.11	465.5	14199.8	14199.8
1021.61	465	14159.6	14159.6
1022.11	464.5	14212.2	14212.2
1022.61	464	14121.6	14121.6
1023.11	463.5	14348.9	14348.9
1023.61	463	14410.3	14410.3
1024.11	462.5	14171.4	14171.4
1024.61	462	14295.9	14295.9
1025.11	461.5	14341.7	14341.7
1025.61	461	14383.3	14383.3
1026.11	460.5	14434.9	14434.9
1026.61	460	14521.3	14521.3
1027.11	459.5	14605.3	14605.3
1027.61	459	14547.4	14547.4
1028.11	458.5	14642.2	14642.2
1028.61	458	14513.1	14513.1
1029.11	457.5	14606.9	14606.9
1029.61	457	14724.7	14724.7
1030.11	456.5	14402.1	14402.1
1030.61	456	14513.1	14513.1
1031.11	455.5	14614.6	14614.6
1031.61	455	14825.1	14825.1
1032.11	454.5	14719.5	14719.5
1032.61	454	14717.7	14717.7
1033.11	453.5	14689.8	14689.8
1033.61	453	14712.2	14712.2
1034.11	452.5	15012	15012
1034.61	452	14828.7	14828.7
1035.11	451.5	14838.1	14838.1
1035.61	451	15120.6	15120.6
1036.11	450.5	15031.9	15031.9
1036.61	450	14977.7	14977.7
1037.11	449.5	14948.8	14948.8
1037.61	449	15288	15288
1038.11	448.5	15172.4	15172.4
1038.61	448	15297.9	15297.9
1039.11	447.5	15112.8	15112.8
1039.61	447	14980.5	14980.5
1040.11	446.5	15083.4	15083.4
1040.61	446	15302.3	15302.3
1041.11	445.5	15231.6	15231.6
1041.61	445	15385.4	15385.4
1042.11	444.5	15397.1	15397.1
1042.61	444	15368.7	15368.7
1043.11	443.5	15642.7	15642.7
1043.61	443	15664.3	15664.3
1044.11	442.5	15554	15554
1044.61	442	15439.1	15439.1
1045.11	441.5	15616.1	15616.1
1045.61	441	15754.7	15754.7
1046.11	440.5	15575.3	15575.3
1046.61	440	15611.1	15611.1
1047.11	439.5	15554.1	15554.1
1047.61	439	15673.1	15673.1
1048.11	438.5	15646.5	15646.5
1048.61	438	15543.2	15543.2
1049.11	437.5	15836.4	15836.4
1049.61	437	16084.2	16084.2
1050.11	436.5	16009.6	16009.6
1050.61	436	15973.4	15973.4
1051.11	435.5	15894.3	15894.3
1051.61	435	16036.4	16036.4
1052.11	434.5	16323.1	16323.1
1052.61	434	16260.5	16260.5
1053.11	433.5	16033.1	16033.1
1053.61	433	16074.8	16074.8
1054.11	432.5	16392.2	16392.2
1054.61	432	16184.3	16184.3
1055.11	431.5	16075.5	16075.5
1055.61	431	16279.2	16279.2
1056.11	430.5	16335.7	16335.7
1056.61	430	16123.6	16123.6
1057.11	429.5	16437.5	16437.5
1057.61	429	16511.2	16511.2
1058.11	428.5	16134	16134
1058.61	428	16176.2	16176.2
1059.11	427.5	16093.7	16093.7
1059.61	427	16210.2	16210.2
1060.11	426.5	16316	16316
1060.61	426	16334.3	16334.3
1061.11	425.5	16462.7	16462.7
1061.61	425	16151.3	16151.3
1062.11	424.5	16195	16195
1062.61	424	16343.8	16343.8
1063.11	423.5	16456.6	16456.6
1063.61	423	16685.8	16685.8
1064.11	422.5	16732.6	16732.6
1064.61	422	17024.7	17024.7
1065.11	421.5	17255.9	17255.9
1065.61	421	17409.1	17409.1
1066.11	420.5	17476.9	17476.9
1066.61	420	17336.3	17336.3
1067.11	419.5	17411.9	17411.9
1067.61	419	17773.4	17773.4
1068.11	418.5	17693.6	17693.6
1068.61	418	17399.3	17399.3
1069.11	417.5	16935.3	16935.3
1069.61	417	16544.2	16544.2
1070.11	416.5	16277.4	16277.4
1070.61	416	16151.9	16151.9
1071.11	415.5	16364.1	16364.1
1071.61	415	16515.5	16515.5
1072.11	414.5	16294.8	16294.8
1072.61	414	16314.2	16314.2
1073.11	413.5	16445.6	16445.6
1073.61	413	16197.8	16197.8
1074.11	412.5	15992.9	15992.9
1074.61	412	16161.5	16161.5
1075.11	411.5	16148.3	16148.3
1075.61	411	16359.2	16359.2
1076.11	410.5	16115.8	16115.8
1076.61	410	16245.5	16245.5
1077.11	409.5	16235.3	16235.3
1077.61	409	16406.3	16406.3
1078.11	408.5	16699.7	16699.7
1078.61	408	16759.9	16759.9
1079.11	407.5	16784.2	16784.2
1079.61	407	17400.8	17400.8
1080.11	406.5	18786.4	18786.4
1080.61	406	20738	20738
1081.11	405.5	23142.5	23142.5
1081.61	405	23712	23712
1082.11	404.5	22350.6	22350.6
1082.61	404	20014.7	20014.7
1083.11	403.5	17679.5	17679.5
1083.61	403	16670	16670
1084.11	402.5	16544.8	16544.8
1084.61	402	16721.9	16721.9
1085.11	401.5	16729.1	16729.1
1085.61	401	16751.2	16751.2
1086.11	400.5	16792.5	16792.5
1086.61	400	16740.6	16740.6
1087.11	399.5	16719.4	16719.4
1087.61	399	16811.9	16811.9
1088.11	398.5	16636.6	16636.6
1088.61	398	16786.1	16786.1
1089.11	397.5	16753.9	16753.9
1089.61	397	16892.3	16892.3
1090.11	396.5	16837.1	16837.1
1090.61	396	16638.2	16638.2
1091.11	395.5	16794.1	16794.1
1091.61	395	16758.6	16758.6
1092.11	394.5	16840.4	16840.4
1092.61	394	16513.5	16513.5
1093.11	393.5	16500.8	16500.8
1093.61	393	16581.6	16581.6
1094.11	392.5	16750.2	16750.2
1094.61	392	16817.9	16817.9
1095.11	391.5	16934	16934
1095.61	391	16976.7	16976.7
1096.11	390.5	17001.9	17001.9
1096.61	390	16754.4	16754.4
1097.11	389.5	16697.4	16697.4
1097.61	389	16602.3	16602.3
1098.11	388.5	16842.3	16842.3
1098.61	388	16649.8	16649.8
1099.11	387.5	16598.7	16598.7
1099.61	387	16833.1	16833.1
1100.11	386.5	16836	16836
1100.61	386	16922.8	16922.8
1101.11	385.5	16739.4	16739.4
1101.61	385	16632.3	16632.3
1102.11	384.5	16532.3	16532.3
1102.61	384	16952.2	16952.2
1103.11	383.5	16532.5	16532.5
1103.61	383	16803.2	16803.2
1104.11	382.5	16805.5	16805.5
1104.61	382	16965.4	16965.4
1105.11	381.5	17162.6	17162.6
1105.61	381	16714.2	16714.2
1106.11	380.5	16631.7	16631.7
1106.61	380	16487.3	16487.3
1107.11	379.5	16486.7	16486.7
1107.61	379	16573.2	16573.2
1108.11	378.5	16572.5	16572.5
1108.61	378	16862.7	16862.7
1109.11	377.5	16224.8	16224.8
1109.61	377	16589.4	16589.4
1110.11	376.5	16344.4	16344.4
1110.61	376	16373.9	16373.9
1111.11	375.5	16121.9	16121.9
1111.61	375	16149.4	16149.4
1112.11	374.5	16466.2	16466.2
1112.61	374	16270.4	16270.4
1113.11	373.5	16499.1	16499.1
1113.61	373	16268.1	16268.1
1114.11	372.5	16634.1	16634.1
1114.61	372	16477.6	16477.6
1115.11	371.5	16297.7	16297.7
1115.61	371	16389.2	16389.2
1116.11	370.5	16488.3	16488.3
1116.61	370	16585.2	16585.2
1117.11	369.5	16421.2	16421.2
1117.61	369	16786.1	16786.1
1118.11	368.5	17118.3	17118.3
1118.61	368	17059.7	17059.7
1119.11	367.5	17015.2	17015.2
1119.61	367	16985.5	16985.5
1120.11	366.5	17098.4	17098.4
1120.61	366	16668.7	16668.7
1121.11	365.5	16231	16231
1121.61	365	15831.4	15831.4
1122.11	364.5	15432.2	15432.2
1122.61	364	15302.3	15302.3
1123.11	363.5	14979.8	14979.8
1123.61	363	14794.1	14794.1
1124.11	362.5	14303.1	14303.1
1124.61	362	14175.3	14175.3
1125.11	361.5	13989.8	13989.8
1125.61	361	13854.6	13854.6
1126.11	360.5	13655.3	13655.3
1126.61	360	13585.7	13585.7
1127.11	359.5	13822.8	13822.8
1127.61	359	13507.4	13507.4
1128.11	358.5	13300.6	13300.6
1128.61	358	13650.7	13650.7
1129.11	357.5	13780.8	13780.8
1129.61	357	14384.1	14384.1
1130.11	356.5	14701.3	14701.3
1130.61	356	15652.9	15652.9
1131.11	355.5	16536.5	16536.5
1131.61	355	17168.1	17168.1
1132.11	354.5	18365.5	18365.5
1132.61	354	19250.6	19250.6
1133.11	353.5	19838.2	19838.2
1133.61	353	20027.7	20027.7
1134.11	352.5	19664	19664
1134.61	352	18790.2	18790.2
1135.11	351.5	17977.9	17977.9
1135.61	351	16857	16857
1136.11	350.5	15795.7	15795.7
1136.61	350	14951.9	14951.9
1137.11	349.5	14305.5	14305.5
1137.61	349	13704.9	13704.9
1138.11	348.5	13287.7	13287.7
1138.61	348	12113.5	12113.5
1139.11	347.5	11421.5	11421.5
1139.61	347	10523.8	10523.8
1140.11	346.5	9643.49	9643.49
1140.61	346	8896.01	8896.01
1141.11	345.5	7988.23	7988.23
1141.61	345	7633.71	7633.71
1142.11	344.5	7471.34	7471.34
1142.61	344	7043.62	7043.62
1143.11	343.5	6641.64	6641.64
1143.61	343	6670.24	6670.24
1144.11	342.5	6368.77	6368.77
1144.61	342	6322.94	6322.94
1145.11	341.5	6595.96	6595.96
1145.61	341	6614.68	6614.68
1146.11	340.5	6631.38	6631.38
1146.61	340	6982.65	6982.65
1147.11	339.5	7263.76	7263.76
1147.61	339	8043.69	8043.69
1148.11	338.5	8713.08	8713.08
1148.61	338	10035.2	10035.2
1149.11	337.5	11336.6	11336.6
1149.61	337	12700.3	12700.3
1150.11	336.5	14246.3	14246.3
1150.61	336	15745.7	15745.7
1151.11	335.5	17169.2	17169.2
1151.61	335	16955.1	16955.1
1152.11	334.5	16196.8	16196.8
1152.61	334	14695.4	14695.4
1153.11	333.5	12510	12510
1153.61	333	10631.8	10631.8
1154.11	332.5	8747.06	8747.06
1154.61	332	7080.57	7080.57
1155.11	331.5	6059.91	6059.91
1155.61	331	5053.45	5053.45
1156.11	330.5	4406.24	4406.24
1156.61	330	3675.77	3675.77
1157.11	329.5	3022.65	3022.65
1157.61	329	2798.97	2798.97
1158.11	328.5	2562.72	2562.72
1158.61	328	2467.86	2467.86
1159.11	327.5	2226.89	2226.89
1159.61	327	1799.11	1799.11
1160.11	326.5	1821.55	1821.55
1160.61	326	1592.98	1592.98
1161.11	325.5	1538.22	1538.22
1161.61	325	1484.32	1484.32
1162.11	324.5	1539.6	1539.6
1162.61	324	1258.43	1258.43
1163.11	323.5	1368.06	1368.06
1163.61	323	1171.36	1171.36
1164.11	322.5	911.895	911.895
1164.61	322	1029.7	1029.7
1165.11	321.5	1024.67	1024.67
1165.61	321	968.207	968.207
1166.11	320.5	1019.62	1019.62
1166.61	320	1064.1	1064.1
1167.11	319.5	949.874	949.874
1167.61	319	804.845	804.845
1168.11	318.5	661.465	661.465
1168.61	318	1009.44	1009.44
1169.11	317.5	589.589	589.589
1169.61	317	621.858	621.858
1170.11	316.5	678.126	678.126
1170.61	316	655.765	655.765
1171.11	315.5	538.809	538.809
1171.61	315	539.786	539.786
1172.11	314.5	698.687	698.687
1172.61	314	595.232	595.232
1173.11	313.5	558.08	558.08
1173.61	313	516.999	516.999
1174.11	312.5	510.568	510.568
1174.61	312	554.169	554.169
1175.11	311.5	456.125	456.125
1175.61	311	457.92	457.92
1176.11	310.5	531.435	531.435
1176.61	310	523.184	523.184
1177.11	309.5	410.845	410.845
1177.61	309	445.706	445.706
1178.11	308.5	615.067	615.067
1178.61	308	447.962	447.962
1179.11	307.5	362.11	362.11
1179.61	307	418.509	418.509
1180.11	306.5	437.416	437.416
1180.61	306	452.373	452.373
1181.11	305.5	387.332	387.332
1181.61	305	217.682	217.682
1182.11	304.5	287.878	287.878
1182.61	304	141.703	141.703
1183.11	303.5	300.181	300.181
1183.61	303	259.626	259.626
1184.11	302.5	269.906	269.906
1184.61	302	161.369	161.369
1185.11	301.5	85.2411	85.2411
1185.61	301	315.304	315.304
1186.11	300.5	329.364	329.364
1186.61	300	543.879	543.879
1187.11	299.5	484.786	484.786
1187.61	299	393.887	393.887
1188.11	298.5	404.059	404.059
1188.61	298	394.302	394.302
1189.11	297.5	435.781	435.781
1189.61	297	157.272	157.272
1190.11	296.5	289.566	289.566
1190.61	296	295.444	295.444
1191.11	295.5	59.8086	59.8086
1191.61	295	142.33	142.33
1192.11	294.5	393.063	393.063
1192.61	294	336.16	336.16
1193.11	293.5	256.754	256.754
1193.61	293	279.314	279.314
1194.11	292.5	368.571	368.571
1194.61	292	391.676	391.676
1195.11	291.5	196.871	196.871
1195.61	291	261.97	261.97
1196.11	290.5	417.209	417.209
1196.61	290	277.546	277.546
1197.11	289.5	323.664	323.664
1197.61	289	444.347	444.347
1198.11	288.5	260.268	260.268
1198.61	288	177.385	177.385
1199.11	287.5	311.416	311.416
1199.61	287	213.802	213.802
1200.11	286.5	231.444	231.444
1200.61	286	274.767	274.767
1201.11	285.5	214.466	214.466
1201.61	285	300.116	300.116
1202.11	284.5	275.575	275.575
1202.61	284	281.598	281.598
1203.11	283.5	244.559	244.559
1203.61	283	0.64647	0.64647
1204.11	282.5	101.158	101.158
1204.61	282	-11.5564	-11.5564
1205.11	281.5	190.59	190.59
1205.61	281	-79.2424	-79.2424
1206.11	280.5	-125.29	-125.29
1206.61	280	88.6949	88.6949
1207.11	279.5	97.8532	97.8532
1207.61	279	-48.7636	-48.7636
1208.11	278.5	91.3247	91.3247
1208.61	278	198.583	198.583
1209.11	277.5	126.671	126.671
1209.61	277	144.568	144.568
1210.11	276.5	193.815	193.815
1210.61	276	116.309	116.309
1211.11	275.5	-24.4888	-24.4888
1211.61	275	-12.3729	-12.3729
1212.11	274.5	138.998	138.998
1212.61	274	71.3598	71.3598
1213.11	273.5	134.743	134.743
1213.61	273	222.741	222.741
1214.11	272.5	268.181	268.181
1214.61	272	69.1633	69.1633
1215.11	271.5	303.766	303.766
1215.61	271	96.1905	96.1905
1216.11	270.5	270.591	270.591
1216.61	270	231.169	231.169
1217.11	269.5	277.201	277.201
1217.61	269	71.8741	71.8741
1218.11	268.5	-12.8257	-12.8257
1218.61	268	73.8539	73.8539
1219.11	267.5	70.6031	70.6031
1219.61	267	186.461	186.461
1220.11	266.5	189.7	189.7
1220.61	266	44.6968	44.6968
1221.11	265.5	291.596	291.596
1221.61	265	328.18	328.18
1222.11	264.5	321.191	321.191
1222.61	264	14.6565	14.6565
1223.11	263.5	187.259	187.259
1223.61	263	-57.3578	-57.3578
1224.11	262.5	-16.316	-16.316
1224.61	262	101.09	101.09
1225.11	261.5	31.5403	31.5403
1225.61	261	122.664	122.664
1226.11	260.5	152.518	152.518
1226.61	260	43.2159	43.2159
1227.11	259.5	5.55604	5.55604
1227.61	259	-13.6135	-13.6135
1228.11	258.5	-44.4163	-44.4163
1228.61	258	92.6995	92.6995
1229.11	257.5	263.267	263.267
1229.61	257	361.44	361.44
1230.11	256.5	145.716	145.716
1230.61	256	174.561	174.561
1231.11	255.5	184.966	184.966
1231.61	255	-55.7226	-55.7226
1232.11	254.5	-5.74762	-5.74762
1232.61	254	154.522	154.522
1233.11	253.5	280.119	280.119
1233.61	253	177.254	177.254
1234.11	252.5	238.085	238.085
1234.61	252	131.024	131.024
1235.11	251.5	263.496	263.496
1235.61	251	201.036	201.036
1236.11	250.5	38.2286	38.2286
1236.61	250	211.68	211.68
1237.11	249.5	16.6418	16.6418
1237.61	249	22.3074	22.3074
1238.11	248.5	267.466	267.466
1238.61	248	325.072	325.072
1239.11	247.5	121.939	121.939
1239.61	247	140.582	140.582