C:\Users\Mark\ownCloud\Muelheim Group\Projects\Gas phase background\EX318_CEC356_Au Ag Cu in N2_clean.vms
Au4f
	Characteristic Energy eV	1486.61	Acquisition Time s	0.9
KE_Au4f	BE_Au4f	CPS_Au4f
1311.61	175	9941.68
1311.71	174.9	10069.2
1311.81	174.8	10043.5
1311.91	174.7	10004.2
1312.01	174.6	9965.78
1312.11	174.5	9969.19
1312.21	174.4	9957.63
1312.31	174.3	10006
1312.41	174.2	9878.08
1312.51	174.1	10003.7
1312.61	174	10005.7
1312.71	173.9	10075.9
1312.81	173.8	10053.4
1312.91	173.7	10045.5
1313.01	173.6	10034
1313.11	173.5	10018.7
1313.21	173.4	10070.7
1313.31	173.3	10026.1
1313.41	173.2	10030.1
1313.51	173.1	9987.31
1313.61	173	10005.3
1313.71	172.9	10022.1
1313.81	172.8	10035.2
1313.91	172.7	10010.2
1314.01	172.6	10024.4
1314.11	172.5	10059.3
1314.21	172.4	10062.4
1314.31	172.3	10052.6
1314.41	172.2	10035.6
1314.51	172.1	10037.6
1314.61	172	10040.3
1314.71	171.9	10033.7
1314.81	171.8	10063.1
1314.91	171.7	10084.5
1315.01	171.6	10036.7
1315.11	171.5	10083
1315.21	171.4	10016.2
1315.31	171.3	9996
1315.41	171.2	10127.7
1315.51	171.1	10050.6
1315.61	171	10049.9
1315.71	170.9	10115.8
1315.81	170.8	10142.2
1315.91	170.7	10089.4
1316.01	170.6	10085.5
1316.11	170.5	10056.2
1316.21	170.4	10098.4
1316.31	170.3	10046.3
1316.41	170.2	10107.8
1316.51	170.1	10057.6
1316.61	170	10156.2
1316.71	169.9	10063.2
1316.81	169.8	10135.6
1316.91	169.7	10174.4
1317.01	169.6	10169.7
1317.11	169.5	10121.9
1317.21	169.4	10188.8
1317.31	169.3	10107.2
1317.41	169.2	10155
1317.51	169.1	10131.4
1317.61	169	10122.1
1317.71	168.9	10129.7
1317.81	168.8	10130.5
1317.91	168.7	10124.2
1318.01	168.6	10144.7
1318.11	168.5	10092.3
1318.21	168.4	10156.2
1318.31	168.3	10171.4
1318.41	168.2	10162.9
1318.51	168.1	10122.5
1318.61	168	10072.8
1318.71	167.9	10173.9
1318.81	167.8	10174
1318.91	167.7	10078.6
1319.01	167.6	10230.9
1319.11	167.5	10194.7
1319.21	167.4	10159.8
1319.31	167.3	10141
1319.41	167.2	10206.3
1319.51	167.1	10145.1
1319.61	167	10138.2
1319.71	166.9	10171.2
1319.81	166.8	10150.3
1319.91	166.7	10228.5
1320.01	166.6	10226.5
1320.11	166.5	10170.9
1320.21	166.4	10285.6
1320.31	166.3	10190.8
1320.41	166.2	10172.9
1320.51	166.1	10278.1
1320.61	166	10183.4
1320.71	165.9	10188.2
1320.81	165.8	10218.9
1320.91	165.7	10185
1321.01	165.6	10152.2
1321.11	165.5	10153.6
1321.21	165.4	10217.6
1321.31	165.3	10219.5
1321.41	165.2	10127.9
1321.51	165.1	10153.8
1321.61	165	10215.4
1321.71	164.9	10244.1
1321.81	164.8	10226.3
1321.91	164.7	10271.2
1322.01	164.6	10166
1322.11	164.5	10205.4
1322.21	164.4	10281.7
1322.31	164.3	10232.6
1322.41	164.2	10211.1
1322.51	164.1	10269.9
1322.61	164	10296.9
1322.71	163.9	10215.8
1322.81	163.8	10258.4
1322.91	163.7	10330.5
1323.01	163.6	10256.9
1323.11	163.5	10180.6
1323.21	163.4	10142.2
1323.31	163.3	10269
1323.41	163.2	10244.3
1323.51	163.1	10292.4
1323.61	163	10280.8
1323.71	162.9	10324.5
1323.81	162.8	10326.8
1323.91	162.7	10331
1324.01	162.6	10284.2
1324.11	162.5	10352.6
1324.21	162.4	10281.4
1324.31	162.3	10369.3
1324.41	162.2	10238.1
1324.51	162.1	10276.8
1324.61	162	10342.5
1324.71	161.9	10283.7
1324.81	161.8	10219
1324.91	161.7	10283.3
1325.01	161.6	10238
1325.11	161.5	10335.4
1325.21	161.4	10385.5
1325.31	161.3	10305.3
1325.41	161.2	10357.5
1325.51	161.1	10309.1
1325.61	161	10403.7
1325.71	160.9	10429.8
1325.81	160.8	10383.5
1325.91	160.7	10354.8
1326.01	160.6	10318.6
1326.11	160.5	10396.7
1326.21	160.4	10396.9
1326.31	160.3	10416.7
1326.41	160.2	10434.8
1326.51	160.1	10373.7
1326.61	160	10381
1326.71	159.9	10394.9
1326.81	159.8	10344.8
1326.91	159.7	10392.6
1327.01	159.6	10402.9
1327.11	159.5	10482.4
1327.21	159.4	10414.4
1327.31	159.3	10418.8
1327.41	159.2	10504.3
1327.51	159.1	10473.6
1327.61	159	10414.6
1327.71	158.9	10369
1327.81	158.8	10323.5
1327.91	158.7	10467.5
1328.01	158.6	10427.7
1328.11	158.5	10519.3
1328.21	158.4	10487.9
1328.31	158.3	10505.7
1328.41	158.2	10436.5
1328.51	158.1	10413.8
1328.61	158	10493
1328.71	157.9	10447.6
1328.81	157.8	10550.4
1328.91	157.7	10503.4
1329.01	157.6	10501.7
1329.11	157.5	10437.5
1329.21	157.4	10491.8
1329.31	157.3	10510.3
1329.41	157.2	10522.9
1329.51	157.1	10485.5
1329.61	157	10531
1329.71	156.9	10509.6
1329.81	156.8	10625.4
1329.91	156.7	10549.1
1330.01	156.6	10527.1
1330.11	156.5	10503.9
1330.21	156.4	10499.7
1330.31	156.3	10573.5
1330.41	156.2	10451.7
1330.51	156.1	10470.7
1330.61	156	10550.3
1330.71	155.9	10539.8
1330.81	155.8	10464.9
1330.91	155.7	10528.6
1331.01	155.6	10573.1
1331.11	155.5	10657.7
1331.21	155.4	10580.3
1331.31	155.3	10587
1331.41	155.2	10571.8
1331.51	155.1	10582.6
1331.61	155	10569.5
1331.71	154.9	10616.4
1331.81	154.8	10609.6
1331.91	154.7	10556.5
1332.01	154.6	10607.9
1332.11	154.5	10618
1332.21	154.4	10614.4
1332.31	154.3	10701.2
1332.41	154.2	10651.1
1332.51	154.1	10676.7
1332.61	154	10605.5
1332.71	153.9	10638.9
1332.81	153.8	10574.4
1332.91	153.7	10574.9
1333.01	153.6	10728
1333.11	153.5	10729.3
1333.21	153.4	10741.9
1333.31	153.3	10680.7
1333.41	153.2	10671.8
1333.51	153.1	10746.2
1333.61	153	10676.2
1333.71	152.9	10772.5
1333.81	152.8	10694
1333.91	152.7	10790.2
1334.01	152.6	10753.7
1334.11	152.5	10774
1334.21	152.4	10744.2
1334.31	152.3	10780.2
1334.41	152.2	10797.7
1334.51	152.1	10796.1
1334.61	152	10771.4
1334.71	151.9	10760.5
1334.81	151.8	10805.6
1334.91	151.7	10760.5
1335.01	151.6	10760.6
1335.11	151.5	10714
1335.21	151.4	10832.3
1335.31	151.3	10743
1335.41	151.2	10830.5
1335.51	151.1	10785
1335.61	151	10768.8
1335.71	150.9	10767.3
1335.81	150.8	10856.4
1335.91	150.7	10857.6
1336.01	150.6	10822.6
1336.11	150.5	10913.6
1336.21	150.4	10822.5
1336.31	150.3	10793.1
1336.41	150.2	10794.6
1336.51	150.1	10880.8
1336.61	150	10851.9
1336.71	149.9	10828.5
1336.81	149.8	10909.3
1336.91	149.7	10861.7
1337.01	149.6	10867.7
1337.11	149.5	10848
1337.21	149.4	10845.3
1337.31	149.3	10805.8
1337.41	149.2	10871.5
1337.51	149.1	10805.9
1337.61	149	10800.2
1337.71	148.9	10874.9
1337.81	148.8	10797.6
1337.91	148.7	10874.8
1338.01	148.6	10852.3
1338.11	148.5	10868.3
1338.21	148.4	10861.2
1338.31	148.3	10905.4
1338.41	148.2	10901.9
1338.51	148.1	10904.7
1338.61	148	10897.7
1338.71	147.9	10861.7
1338.81	147.8	10939.4
1338.91	147.7	11034.8
1339.01	147.6	11018
1339.11	147.5	10967.1
1339.21	147.4	10862.7
1339.31	147.3	10833.6
1339.41	147.2	10844.1
1339.51	147.1	10923.7
1339.61	147	10946.6
1339.71	146.9	10928.6
1339.81	146.8	10900.1
1339.91	146.7	10920.1
1340.01	146.6	10910.5
1340.11	146.5	10978.3
1340.21	146.4	10952.5
1340.31	146.3	10916.7
1340.41	146.2	10936.9
1340.51	146.1	10936.4
1340.61	146	11010.9
1340.71	145.9	10997.3
1340.81	145.8	10981.3
1340.91	145.7	10938.7
1341.01	145.6	10890.6
1341.11	145.5	10853
1341.21	145.4	10967.9
1341.31	145.3	11032.5
1341.41	145.2	10910.8
1341.51	145.1	10903.4
1341.61	145	10958.8
1341.71	144.9	10998.3
1341.81	144.8	10889.1
1341.91	144.7	10980.8
1342.01	144.6	11014.2
1342.11	144.5	10906.8
1342.21	144.4	10905
1342.31	144.3	10986.4
1342.41	144.2	10931.7
1342.51	144.1	10906.2
1342.61	144	11028.2
1342.71	143.9	10994.1
1342.81	143.8	10979.2
1342.91	143.7	10885.9
1343.01	143.6	10897.9
1343.11	143.5	10936.6
1343.21	143.4	10983.3
1343.31	143.3	10949.1
1343.41	143.2	10988.5
1343.51	143.1	10986.6
1343.61	143	11071.9
1343.71	142.9	10902.4
1343.81	142.8	10919.6
1343.91	142.7	10952.4
1344.01	142.6	10905.2
1344.11	142.5	11052.3
1344.21	142.4	11079.4
1344.31	142.3	10980.9
1344.41	142.2	10903.1
1344.51	142.1	11072.5
1344.61	142	11000.6
1344.71	141.9	11042.4
1344.81	141.8	11007.9
1344.91	141.7	10993.5
1345.01	141.6	11016
1345.11	141.5	11018.5
1345.21	141.4	11013.4
1345.31	141.3	11028.3
1345.41	141.2	11085.7
1345.51	141.1	11080.2
1345.61	141	11052.3
1345.71	140.9	11026.1
1345.81	140.8	10965.1
1345.91	140.7	11077.2
1346.01	140.6	11129.6
1346.11	140.5	11109.2
1346.21	140.4	11082.9
1346.31	140.3	10982.8
1346.41	140.2	11081.9
1346.51	140.1	11073.7
1346.61	140	11023.2
1346.71	139.9	11052.5
1346.81	139.8	11091.1
1346.91	139.7	11086.8
1347.01	139.6	11121.2
1347.11	139.5	11078.6
1347.21	139.4	11082.3
1347.31	139.3	11111.3
1347.41	139.2	11203
1347.51	139.1	11194.1
1347.61	139	11140.3
1347.71	138.9	11154.9
1347.81	138.8	11112.2
1347.91	138.7	11072.8
1348.01	138.6	11132.6
1348.11	138.5	11155.8
1348.21	138.4	11141
1348.31	138.3	11187.5
1348.41	138.2	11102.5
1348.51	138.1	11167.9
1348.61	138	11177.9
1348.71	137.9	11217.1
1348.81	137.8	11139
1348.91	137.7	11103.3
1349.01	137.6	11190.6
1349.11	137.5	11217.7
1349.21	137.4	11192.9
1349.31	137.3	11239.1
1349.41	137.2	11162.9
1349.51	137.1	11275.5
1349.61	137	11127.7
1349.71	136.9	11105.7
1349.81	136.8	11246.7
1349.91	136.7	11354.9
1350.01	136.6	11182
1350.11	136.5	11276.6
1350.21	136.4	11220.2
1350.31	136.3	11195.8
1350.41	136.2	11236.9
1350.51	136.1	11243.8
1350.61	136	11259.4
1350.71	135.9	11208.9
1350.81	135.8	11300
1350.91	135.7	11320
1351.01	135.6	11337.1
1351.11	135.5	11312
1351.21	135.4	11283.8
1351.31	135.3	11304.3
1351.41	135.2	11382.2
1351.51	135.1	11290.8
1351.61	135	11344.2
1351.71	134.9	11259.4
1351.81	134.8	11341.3
1351.91	134.7	11315.7
1352.01	134.6	11373.2
1352.11	134.5	11372.4
1352.21	134.4	11313.4
1352.31	134.3	11308.1
1352.41	134.2	11372.5
1352.51	134.1	11344
1352.61	134	11388.7
1352.71	133.9	11342.5
1352.81	133.8	11467.2
1352.91	133.7	11375.5
1353.01	133.6	11279.4
1353.11	133.5	11415.9
1353.21	133.4	11455.2
1353.31	133.3	11438.7
1353.41	133.2	11414.2
1353.51	133.1	11498.6
1353.61	133	11507.3
1353.71	132.9	11479.5
1353.81	132.8	11477.9
1353.91	132.7	11462.5
1354.01	132.6	11516.7
1354.11	132.5	11459.3
1354.21	132.4	11407.8
1354.31	132.3	11437.6
1354.41	132.2	11426.6
1354.51	132.1	11401.4
1354.61	132	11415.3
1354.71	131.9	11432.2
1354.81	131.8	11559.9
1354.91	131.7	11567.7
1355.01	131.6	11494.9
1355.11	131.5	11544
1355.21	131.4	11519.8
1355.31	131.3	11511.7
1355.41	131.2	11485.5
1355.51	131.1	11558.5
1355.61	131	11547.4
1355.71	130.9	11523.2
1355.81	130.8	11546.5
1355.91	130.7	11520.8
1356.01	130.6	11491.8
1356.11	130.5	11556.6
1356.21	130.4	11517.7
1356.31	130.3	11578.8
1356.41	130.2	11597.2
1356.51	130.1	11528.4
1356.61	130	11564.5
1356.71	129.9	11596.5
1356.81	129.8	11614.2
1356.91	129.7	11633.7
1357.01	129.6	11650
1357.11	129.5	11685.6
1357.21	129.4	11619.1
1357.31	129.3	11602.2
1357.41	129.2	11671.9
1357.51	129.1	11671.2
1357.61	129	11592.7
1357.71	128.9	11695.4
1357.81	128.8	11723
1357.91	128.7	11648.8
1358.01	128.6	11662.3
1358.11	128.5	11779
1358.21	128.4	11728.3
1358.31	128.3	11771.6
1358.41	128.2	11798.9
1358.51	128.1	11738.9
1358.61	128	11638.7
1358.71	127.9	11697.6
1358.81	127.8	11821.4
1358.91	127.7	11778.2
1359.01	127.6	11780.6
1359.11	127.5	11802.7
1359.21	127.4	11788.2
1359.31	127.3	11768.4
1359.41	127.2	11778.4
1359.51	127.1	11811.2
1359.61	127	11791.5
1359.71	126.9	11826.2
1359.81	126.8	11794.7
1359.91	126.7	11837.3
1360.01	126.6	11894
1360.11	126.5	11883.3
1360.21	126.4	11874.7
1360.31	126.3	11901.5
1360.41	126.2	11919.2
1360.51	126.1	11990.6
1360.61	126	11872.7
1360.71	125.9	11898.5
1360.81	125.8	11941.8
1360.91	125.7	12012.9
1361.01	125.6	11955.2
1361.11	125.5	12002.9
1361.21	125.4	11970.5
1361.31	125.3	11994.7
1361.41	125.2	11950.1
1361.51	125.1	12018.6
1361.61	125	11996.9
1361.71	124.9	12085.5
1361.81	124.8	12022
1361.91	124.7	12030
1362.01	124.6	12132.6
1362.11	124.5	12141.9
1362.21	124.4	12076
1362.31	124.3	12060.9
1362.41	124.2	12142.5
1362.51	124.1	12141.5
1362.61	124	12172
1362.71	123.9	12175.5
1362.81	123.8	12223.4
1362.91	123.7	12231.7
1363.01	123.6	12234.4
1363.11	123.5	12189.1
1363.21	123.4	12115
1363.31	123.3	12155.1
1363.41	123.2	12257.9
1363.51	123.1	12296.7
1363.61	123	12360.6
1363.71	122.9	12312.2
1363.81	122.8	12360.7
1363.91	122.7	12411.9
1364.01	122.6	12443.5
1364.11	122.5	12405.7
1364.21	122.4	12364.3
1364.31	122.3	12404.9
1364.41	122.2	12426.2
1364.51	122.1	12475
1364.61	122	12515.2
1364.71	121.9	12487.3
1364.81	121.8	12489
1364.91	121.7	12402.1
1365.01	121.6	12449.7
1365.11	121.5	12621.5
1365.21	121.4	12584.7
1365.31	121.3	12593.7
1365.41	121.2	12557.7
1365.51	121.1	12516.6
1365.61	121	12549.7
1365.71	120.9	12485.8
1365.81	120.8	12524.3
1365.91	120.7	12528.4
1366.01	120.6	12621.3
1366.11	120.5	12527.3
1366.21	120.4	12666.4
1366.31	120.3	12690.8
1366.41	120.2	12687.1
1366.51	120.1	12648.6
1366.61	120	12576.8
1366.71	119.9	12633.1
1366.81	119.8	12654.6
1366.91	119.7	12719.7
1367.01	119.6	12697.1
1367.11	119.5	12762.1
1367.21	119.4	12692.6
1367.31	119.3	12689.3
1367.41	119.2	12770.8
1367.51	119.1	12786.6
1367.61	119	12717
1367.71	118.9	12611.3
1367.81	118.8	12651.2
1367.91	118.7	12734.3
1368.01	118.6	12794.6
1368.11	118.5	12761.7
1368.21	118.4	12760.9
1368.31	118.3	12806.8
1368.41	118.2	12742.6
1368.51	118.1	12889.8
1368.61	118	12830.9
1368.71	117.9	12826.8
1368.81	117.8	12784.4
1368.91	117.7	12803.5
1369.01	117.6	12791.5
1369.11	117.5	12844.4
1369.21	117.4	12712.9
1369.31	117.3	12710.6
1369.41	117.2	12761.2
1369.51	117.1	12796.9
1369.61	117	12725.2
1369.71	116.9	12826.5
1369.81	116.8	12796.1
1369.91	116.7	12773.3
1370.01	116.6	12775.9
1370.11	116.5	12932.6
1370.21	116.4	12811.1
1370.31	116.3	12825.1
1370.41	116.2	12826.2
1370.51	116.1	12920.6
1370.61	116	12902.5
1370.71	115.9	12944.9
1370.81	115.8	12855.1
1370.91	115.7	12911.1
1371.01	115.6	12945.6
1371.11	115.5	13028.9
1371.21	115.4	12973.4
1371.31	115.3	12934.4
1371.41	115.2	12897.2
1371.51	115.1	12961.6
1371.61	115	12934.8
1371.71	114.9	12943.6
1371.81	114.8	12896.9
1371.91	114.7	12857
1372.01	114.6	12929.9
1372.11	114.5	12976.6
1372.21	114.4	13044.6
1372.31	114.3	13087.6
1372.41	114.2	13096.7
1372.51	114.1	13059.5
1372.61	114	13034.8
1372.71	113.9	13075.5
1372.81	113.8	13137
1372.91	113.7	13158.4
1373.01	113.6	13214.4
1373.11	113.5	13177
1373.21	113.4	13257.2
1373.31	113.3	13205.7
1373.41	113.2	13184.2
1373.51	113.1	13083.5
1373.61	113	13141.9
1373.71	112.9	13229.1
1373.81	112.8	13171.5
1373.91	112.7	13280.1
1374.01	112.6	13149
1374.11	112.5	13218.3
1374.21	112.4	13265.1
1374.31	112.3	13330.3
1374.41	112.2	13314.4
1374.51	112.1	13220.9
1374.61	112	13371.9
1374.71	111.9	13209.2
1374.81	111.8	13266.3
1374.91	111.7	13475.9
1375.01	111.6	13383
1375.11	111.5	13272.9
1375.21	111.4	13414.1
1375.31	111.3	13405.2
1375.41	111.2	13372.3
1375.51	111.1	13325.9
1375.61	111	13431.8
1375.71	110.9	13422.9
1375.81	110.8	13376.4
1375.91	110.7	13304.7
1376.01	110.6	13331.1
1376.11	110.5	13329.1
1376.21	110.4	13375.5
1376.31	110.3	13353.2
1376.41	110.2	13313.5
1376.51	110.1	13348.4
1376.61	110	13272.1
1376.71	109.9	13361.5
1376.81	109.8	13313.5
1376.91	109.7	13217.4
1377.01	109.6	13159.4
1377.11	109.5	13228.5
1377.21	109.4	13204.2
1377.31	109.3	13144.1
1377.41	109.2	13093.8
1377.51	109.1	13106.4
1377.61	109	13155.1
1377.71	108.9	13040.3
1377.81	108.8	13153.9
1377.91	108.7	13078.9
1378.01	108.6	13076.4
1378.11	108.5	13015.7
1378.21	108.4	13025.6
1378.31	108.3	12971.3
1378.41	108.2	12920.3
1378.51	108.1	12964
1378.61	108	12895.8
1378.71	107.9	12870.3
1378.81	107.8	12806.9
1378.91	107.7	12772.5
1379.01	107.6	12687
1379.11	107.5	12735.2
1379.21	107.4	12673.6
1379.31	107.3	12598
1379.41	107.2	12656.1
1379.51	107.1	12466.5
1379.61	107	12501.5
1379.71	106.9	12598.7
1379.81	106.8	12445.9
1379.91	106.7	12398.2
1380.01	106.6	12408
1380.11	106.5	12414.1
1380.21	106.4	12436
1380.31	106.3	12235.2
1380.41	106.2	12250.9
1380.51	106.1	12298.1
1380.61	106	12238.7
1380.71	105.9	12211.2
1380.81	105.8	12203.1
1380.91	105.7	12235
1381.01	105.6	12214
1381.11	105.5	12190.2
1381.21	105.4	12137
1381.31	105.3	12100.1
1381.41	105.2	12038.3
1381.51	105.1	12081.2
1381.61	105	12052.7
1381.71	104.9	12094.9
1381.81	104.8	12033.7
1381.91	104.7	12088.8
1382.01	104.6	12057.7
1382.11	104.5	12101.5
1382.21	104.4	12090.5
1382.31	104.3	12056.4
1382.41	104.2	12041.1
1382.51	104.1	12079.9
1382.61	104	12044.5
1382.71	103.9	12152.7
1382.81	103.8	12088.5
1382.91	103.7	12110.5
1383.01	103.6	12111.1
1383.11	103.5	12205.7
1383.21	103.4	12092.4
1383.31	103.3	12104.1
1383.41	103.2	12193.4
1383.51	103.1	12237.4
1383.61	103	12161.9
1383.71	102.9	12177.9
1383.81	102.8	12121
1383.91	102.7	12138.4
1384.01	102.6	12272.4
1384.11	102.5	12233
1384.21	102.4	12255.3
1384.31	102.3	12303.9
1384.41	102.2	12292
1384.51	102.1	12290.8
1384.61	102	12279.5
1384.71	101.9	12285.9
1384.81	101.8	12380.9
1384.91	101.7	12361
1385.01	101.6	12401.5
1385.11	101.5	12462.4
1385.21	101.4	12448
1385.31	101.3	12424.2
1385.41	101.2	12489.2
1385.51	101.1	12536.6
1385.61	101	12519.6
1385.71	100.9	12628.4
1385.81	100.8	12645.2
1385.91	100.7	12727.1
1386.01	100.6	12725.5
1386.11	100.5	12627.1
1386.21	100.4	12712.8
1386.31	100.3	12740.2
1386.41	100.2	12822.6
1386.51	100.1	12755.2
1386.61	100	12749.5
1386.71	99.9	12760.3
1386.81	99.8	12898.8
1386.91	99.7	12923.6
1387.01	99.6	12938.7
1387.11	99.5	12981.9
1387.21	99.4	12977.4
1387.31	99.3	13035.1
1387.41	99.2	13005
1387.51	99.1	13030.9
1387.61	99	13041.4
1387.71	98.9	13131.8
1387.81	98.8	13046.9
1387.91	98.7	13041.4
1388.01	98.6	13038.3
1388.11	98.5	13168.3
1388.21	98.4	13116.6
1388.31	98.3	13213.8
1388.41	98.2	13338.8
1388.51	98.1	13332
1388.61	98	13245.1
1388.71	97.9	13203
1388.81	97.8	13110.1
1388.91	97.7	13229.3
1389.01	97.6	13225.3
1389.11	97.5	13117.7
1389.21	97.4	13189.5
1389.31	97.3	13119
1389.41	97.2	13196.7
1389.51	97.1	13124.5
1389.61	97	13103.9
1389.71	96.9	13031.2
1389.81	96.8	12989.5
1389.91	96.7	13022.2
1390.01	96.6	12972.8
1390.11	96.5	12870.5
1390.21	96.4	12725.6
1390.31	96.3	12764.6
1390.41	96.2	12753.7
1390.51	96.1	12812.7
1390.61	96	12828.5
1390.71	95.9	12782.7
1390.81	95.8	12801.7
1390.91	95.7	12794.7
1391.01	95.6	12978.9
1391.11	95.5	12918.4
1391.21	95.4	12991.9
1391.31	95.3	13032.3
1391.41	95.2	13092.2
1391.51	95.1	13177.8
1391.61	95	13176.4
1391.71	94.9	13167.2
1391.81	94.8	13286.6
1391.91	94.7	13257.5
1392.01	94.6	13335.1
1392.11	94.5	13297.3
1392.21	94.4	13402.9
1392.31	94.3	13402.4
1392.41	94.2	13438.4
1392.51	94.1	13457.8
1392.61	94	13537.2
1392.71	93.9	13467.7
1392.81	93.8	13461.2
1392.91	93.7	13525.5
1393.01	93.6	13497.6
1393.11	93.5	13508.3
1393.21	93.4	13323.7
1393.31	93.3	13392.4
1393.41	93.2	13281.9
1393.51	93.1	13243.8
1393.61	93	13144.3
1393.71	92.9	13077.2
1393.81	92.8	12967.6
1393.91	92.7	12880.6
1394.01	92.6	12940
1394.11	92.5	12901.7
1394.21	92.4	12803.7
1394.31	92.3	12828
1394.41	92.2	12801.3
1394.51	92.1	12792.5
1394.61	92	12874
1394.71	91.9	12812.6
1394.81	91.8	12813.2
1394.91	91.7	13059.1
1395.01	91.6	13178.3
1395.11	91.5	13190.1
1395.21	91.4	13237.6
1395.31	91.3	13434.2
1395.41	91.2	13675.3
1395.51	91.1	13737.5
1395.61	91	13796.4
1395.71	90.9	14066.4
1395.81	90.8	14173.5
1395.91	90.7	14263.6
1396.01	90.6	14257.3
1396.11	90.5	14321.3
1396.21	90.4	14486.5
1396.31	90.3	14610.5
1396.41	90.2	14569.5
1396.51	90.1	14534.2
1396.61	90	14628
1396.71	89.9	14591.7
1396.81	89.8	14597.2
1396.91	89.7	14683.7
1397.01	89.6	14881.2
1397.11	89.5	15109.9
1397.21	89.4	15555.4
1397.31	89.3	15899
1397.41	89.2	16518.9
1397.51	89.1	17328
1397.61	89	18193.6
1397.71	88.9	19503.6
1397.81	88.8	21092.2
1397.91	88.7	23040.8
1398.01	88.6	25966.7
1398.11	88.5	30127.2
1398.21	88.4	36267.8
1398.31	88.3	44878.9
1398.41	88.2	57021
1398.51	88.1	73479.9
1398.61	88	94059.5
1398.71	87.9	116129
1398.81	87.8	136781
1398.91	87.7	150290
1399.01	87.6	153403
1399.11	87.5	145179
1399.21	87.4	127910
1399.31	87.3	105830
1399.41	87.2	83855.8
1399.51	87.1	64835.2
1399.61	87	50051.1
1399.71	86.9	38725
1399.81	86.8	30786.6
1399.91	86.7	25050.2
1400.01	86.6	21444.3
1400.11	86.5	18833.6
1400.21	86.4	17023.9
1400.31	86.3	15717.7
1400.41	86.2	14859.5
1400.51	86.1	14314
1400.61	86	13830.2
1400.71	85.9	13588.9
1400.81	85.8	13623.2
1400.91	85.7	13849.4
1401.01	85.6	14168.8
1401.11	85.5	14727.4
1401.21	85.4	15529.3
1401.31	85.3	16661.5
1401.41	85.2	18000.2
1401.51	85.1	19828
1401.61	85	22629.1
1401.71	84.9	26540
1401.81	84.8	32011.6
1401.91	84.7	40081.6
1402.01	84.6	52189.5
1402.11	84.5	69179.7
1402.21	84.4	91444.8
1402.31	84.3	119146
1402.41	84.2	148586
1402.51	84.1	174742
1402.61	84	190391
1402.71	83.9	190241
1402.81	83.8	175910
1402.91	83.7	150837
1403.01	83.6	120665
1403.11	83.5	91921.5
1403.21	83.4	68272.5
1403.31	83.3	50119.8
1403.41	83.2	36626.2
1403.51	83.1	27149.5
1403.61	83	20359.6
1403.71	82.9	15958.6
1403.81	82.8	12943.3
1403.91	82.7	11043.3
1404.01	82.6	9451.35
1404.11	82.5	8377.64
1404.21	82.4	7570.71
1404.31	82.3	6897.09
1404.41	82.2	6427.19
1404.51	82.1	6060.81
1404.61	82	5702.01
1404.71	81.9	5376.52
1404.81	81.8	5142.48
1404.91	81.7	4876.89
1405.01	81.6	4726.95
1405.11	81.5	4496.09
1405.21	81.4	4321.11
1405.31	81.3	4196.12
1405.41	81.2	4082.7
1405.51	81.1	3966.98
1405.61	81	3835.58
1405.71	80.9	3766.22
1405.81	80.8	3681.67
1405.91	80.7	3631.12
1406.01	80.6	3540.19
1406.11	80.5	3477.64
1406.21	80.4	3389.44
1406.31	80.3	3301.22
1406.41	80.2	3253.66
1406.51	80.1	3295.77
1406.61	80	3222.9
1406.71	79.9	3213.64
1406.81	79.8	3139.51
1406.91	79.7	3135.8
1407.01	79.6	3077.06
1407.11	79.5	3032.39
1407.21	79.4	3019.3
1407.31	79.3	3007.11
1407.41	79.2	2965.15
1407.51	79.1	2920.23
1407.61	79	2955.1
1407.71	78.9	2929.02
1407.81	78.8	2911.04
1407.91	78.7	2922.82
1408.01	78.6	2939.32
1408.11	78.5	2917.43
1408.21	78.4	2890.42
1408.31	78.3	2919.73
1408.41	78.2	2870.47
1408.51	78.1	2869.65
1408.61	78	2886.16
1408.71	77.9	2884.91
1408.81	77.8	2877.1
1408.91	77.7	2853.86
1409.01	77.6	2883.11
1409.11	77.5	2862.03
1409.21	77.4	2865.17
1409.31	77.3	2884.62
1409.41	77.2	2881.35
1409.51	77.1	2880.57
1409.61	77	2877.02
1409.71	76.9	2860.37
1409.81	76.8	2879.31
1409.91	76.7	2917.64
1410.01	76.6	2969.38
1410.11	76.5	2940.23
1410.21	76.4	2940.22
1410.31	76.3	2998.95
1410.41	76.2	3028.73
1410.51	76.1	3027.74
1410.61	76	2990.14
1410.71	75.9	3026.34
1410.81	75.8	3034.3
1410.91	75.7	3074.69
1411.01	75.6	3077.01
1411.11	75.5	3121.61
1411.21	75.4	3176.48
1411.31	75.3	3207.2
1411.41	75.2	3198.52
1411.51	75.1	3224.98
1411.61	75	3210.29