C:\Users\Mark\ownCloud\Muelheim Group\Projects\Gas phase background\EX318_CEC356_Au Ag Cu in N2_clean.vms
Au4f
	Characteristic Energy eV	1486.61	Acquisition Time s	0.9
KE_Au4f	BE_Au4f	CPS_Au4f
1311.61	175	2909.64
1311.71	174.9	2940.6
1311.81	174.8	2944.11
1311.91	174.7	2950.37
1312.01	174.6	2917.17
1312.11	174.5	2925.77
1312.21	174.4	2927.93
1312.31	174.3	2925.35
1312.41	174.2	2949.48
1312.51	174.1	2965.64
1312.61	174	2957.19
1312.71	173.9	2948.99
1312.81	173.8	2943.92
1312.91	173.7	2979.34
1313.01	173.6	2963.66
1313.11	173.5	2960.99
1313.21	173.4	2975.93
1313.31	173.3	2961.57
1313.41	173.2	2938.78
1313.51	173.1	2968.19
1313.61	173	2956.59
1313.71	172.9	2950.27
1313.81	172.8	2985.18
1313.91	172.7	2982.35
1314.01	172.6	2965.53
1314.11	172.5	2990.77
1314.21	172.4	2981.15
1314.31	172.3	2981.5
1314.41	172.2	2948.01
1314.51	172.1	3025.88
1314.61	172	2975.38
1314.71	171.9	2958.55
1314.81	171.8	2961.12
1314.91	171.7	2952.01
1315.01	171.6	3005.83
1315.11	171.5	2975.58
1315.21	171.4	2984.89
1315.31	171.3	2953.6
1315.41	171.2	2975.68
1315.51	171.1	2986.85
1315.61	171	2941.97
1315.71	170.9	2963.25
1315.81	170.8	2989.26
1315.91	170.7	3008.33
1316.01	170.6	2962.56
1316.11	170.5	3016.55
1316.21	170.4	2999.68
1316.31	170.3	2991
1316.41	170.2	3002.88
1316.51	170.1	2966.74
1316.61	170	2986.57
1316.71	169.9	2989.07
1316.81	169.8	3010.39
1316.91	169.7	2986.1
1317.01	169.6	3016.93
1317.11	169.5	2988.74
1317.21	169.4	2984.26
1317.31	169.3	2972.32
1317.41	169.2	2999.92
1317.51	169.1	3006.21
1317.61	169	2982.38
1317.71	168.9	2934.2
1317.81	168.8	3011.85
1317.91	168.7	2979.55
1318.01	168.6	3000.68
1318.11	168.5	2985.88
1318.21	168.4	2961.03
1318.31	168.3	3035.53
1318.41	168.2	3030.65
1318.51	168.1	3046.37
1318.61	168	3041.64
1318.71	167.9	2973.51
1318.81	167.8	2994
1318.91	167.7	3027.51
1319.01	167.6	3001.38
1319.11	167.5	3041.51
1319.21	167.4	3005.8
1319.31	167.3	3010.82
1319.41	167.2	3001.62
1319.51	167.1	2985.89
1319.61	167	2985.74
1319.71	166.9	2952.33
1319.81	166.8	3028.56
1319.91	166.7	3049.97
1320.01	166.6	3005.58
1320.11	166.5	3015.16
1320.21	166.4	2986.31
1320.31	166.3	2963.48
1320.41	166.2	3001.78
1320.51	166.1	3016.93
1320.61	166	2996.4
1320.71	165.9	2992.36
1320.81	165.8	3064.17
1320.91	165.7	3002.51
1321.01	165.6	3013.03
1321.11	165.5	3022.5
1321.21	165.4	3018.47
1321.31	165.3	3056.4
1321.41	165.2	3066.41
1321.51	165.1	3023.72
1321.61	165	3026.43
1321.71	164.9	2988.52
1321.81	164.8	3025.1
1321.91	164.7	3078.14
1322.01	164.6	3050.05
1322.11	164.5	3037.64
1322.21	164.4	2966.36
1322.31	164.3	3005.81
1322.41	164.2	3015.7
1322.51	164.1	3032.24
1322.61	164	3042.84
1322.71	163.9	3020.08
1322.81	163.8	3079.63
1322.91	163.7	3083.68
1323.01	163.6	3069.48
1323.11	163.5	3066.11
1323.21	163.4	3042.04
1323.31	163.3	3080.77
1323.41	163.2	2999.37
1323.51	163.1	3049.22
1323.61	163	3069.52
1323.71	162.9	3076.01
1323.81	162.8	3060.92
1323.91	162.7	3007.03
1324.01	162.6	3034.15
1324.11	162.5	3033.52
1324.21	162.4	3031.6
1324.31	162.3	3037.23
1324.41	162.2	3089.59
1324.51	162.1	3105.89
1324.61	162	3105.87
1324.71	161.9	3078.26
1324.81	161.8	3049.82
1324.91	161.7	3077.67
1325.01	161.6	3017.62
1325.11	161.5	3054.46
1325.21	161.4	3069.21
1325.31	161.3	3060.87
1325.41	161.2	3056.54
1325.51	161.1	3067.4
1325.61	161	3080.58
1325.71	160.9	3088
1325.81	160.8	3083.54
1325.91	160.7	3008.61
1326.01	160.6	3059.22
1326.11	160.5	3060
1326.21	160.4	3067.44
1326.31	160.3	3072.38
1326.41	160.2	3065.7
1326.51	160.1	3057.89
1326.61	160	3065.36
1326.71	159.9	3078.92
1326.81	159.8	3087.78
1326.91	159.7	3082.98
1327.01	159.6	3112.43
1327.11	159.5	3044.46
1327.21	159.4	3048.71
1327.31	159.3	3037.89
1327.41	159.2	3110.06
1327.51	159.1	3102.04
1327.61	159	3062.87
1327.71	158.9	3071.8
1327.81	158.8	3075.27
1327.91	158.7	3087.34
1328.01	158.6	3056.71
1328.11	158.5	3047.98
1328.21	158.4	3078.7
1328.31	158.3	3071.12
1328.41	158.2	3126.04
1328.51	158.1	3065.18
1328.61	158	3066.6
1328.71	157.9	3118.47
1328.81	157.8	3170.92
1328.91	157.7	3115
1329.01	157.6	3075.18
1329.11	157.5	3120.08
1329.21	157.4	3104.25
1329.31	157.3	3071.16
1329.41	157.2	3075
1329.51	157.1	3057.45
1329.61	157	3121.14
1329.71	156.9	3047.79
1329.81	156.8	3019.28
1329.91	156.7	3076.33
1330.01	156.6	3098.93
1330.11	156.5	3096.31
1330.21	156.4	3138.74
1330.31	156.3	3078.56
1330.41	156.2	3046.1
1330.51	156.1	3075.34
1330.61	156	3116.94
1330.71	155.9	3092.36
1330.81	155.8	3093.86
1330.91	155.7	3087.35
1331.01	155.6	3121.97
1331.11	155.5	3084.57
1331.21	155.4	3081.38
1331.31	155.3	3095.17
1331.41	155.2	3128.12
1331.51	155.1	3129.21
1331.61	155	3109.92
1331.71	154.9	3098.89
1331.81	154.8	3091.83
1331.91	154.7	3089.41
1332.01	154.6	3099.82
1332.11	154.5	3102.5
1332.21	154.4	3116.99
1332.31	154.3	3114.58
1332.41	154.2	3164.98
1332.51	154.1	3175.77
1332.61	154	3073.64
1332.71	153.9	3062.89
1332.81	153.8	3143.5
1332.91	153.7	3127.67
1333.01	153.6	3090.69
1333.11	153.5	3125.07
1333.21	153.4	3164.16
1333.31	153.3	3137.48
1333.41	153.2	3076.74
1333.51	153.1	3084.02
1333.61	153	3126.3
1333.71	152.9	3122.56
1333.81	152.8	3123.02
1333.91	152.7	3136.84
1334.01	152.6	3110.58
1334.11	152.5	3100.46
1334.21	152.4	3104.84
1334.31	152.3	3134.49
1334.41	152.2	3137.08
1334.51	152.1	3181.3
1334.61	152	3130.02
1334.71	151.9	3128.63
1334.81	151.8	3153.51
1334.91	151.7	3158.71
1335.01	151.6	3135.33
1335.11	151.5	3117.43
1335.21	151.4	3149.23
1335.31	151.3	3132.07
1335.41	151.2	3182.43
1335.51	151.1	3147.78
1335.61	151	3141.56
1335.71	150.9	3171.66
1335.81	150.8	3141.49
1335.91	150.7	3108.89
1336.01	150.6	3117.14
1336.11	150.5	3162.9
1336.21	150.4	3133.13
1336.31	150.3	3205.77
1336.41	150.2	3127.54
1336.51	150.1	3155.46
1336.61	150	3161.4
1336.71	149.9	3169.93
1336.81	149.8	3177.34
1336.91	149.7	3141.32
1337.01	149.6	3188.54
1337.11	149.5	3145.29
1337.21	149.4	3138.97
1337.31	149.3	3176.12
1337.41	149.2	3148.53
1337.51	149.1	3231.62
1337.61	149	3186.92
1337.71	148.9	3163.13
1337.81	148.8	3135.02
1337.91	148.7	3139.27
1338.01	148.6	3138.41
1338.11	148.5	3141.53
1338.21	148.4	3172.84
1338.31	148.3	3178.58
1338.41	148.2	3177.88
1338.51	148.1	3172.29
1338.61	148	3214.32
1338.71	147.9	3189.81
1338.81	147.8	3124.62
1338.91	147.7	3157.76
1339.01	147.6	3171.2
1339.11	147.5	3190.56
1339.21	147.4	3166.61
1339.31	147.3	3206.75
1339.41	147.2	3193.22
1339.51	147.1	3157.39
1339.61	147	3194.51
1339.71	146.9	3141.5
1339.81	146.8	3123.67
1339.91	146.7	3190.6
1340.01	146.6	3203.36
1340.11	146.5	3146.3
1340.21	146.4	3200.19
1340.31	146.3	3165.27
1340.41	146.2	3151.12
1340.51	146.1	3255.52
1340.61	146	3199.09
1340.71	145.9	3209.07
1340.81	145.8	3200.7
1340.91	145.7	3151
1341.01	145.6	3152.05
1341.11	145.5	3178.95
1341.21	145.4	3174.08
1341.31	145.3	3191.74
1341.41	145.2	3209.84
1341.51	145.1	3149.09
1341.61	145	3194.68
1341.71	144.9	3186.27
1341.81	144.8	3189.99
1341.91	144.7	3174.51
1342.01	144.6	3212.74
1342.11	144.5	3193.95
1342.21	144.4	3186.71
1342.31	144.3	3150.53
1342.41	144.2	3159.09
1342.51	144.1	3142.54
1342.61	144	3181.46
1342.71	143.9	3215.98
1342.81	143.8	3212.39
1342.91	143.7	3180.71
1343.01	143.6	3154.05
1343.11	143.5	3155.13
1343.21	143.4	3199.13
1343.31	143.3	3219.17
1343.41	143.2	3211.6
1343.51	143.1	3230.44
1343.61	143	3208.58
1343.71	142.9	3200.51
1343.81	142.8	3246.01
1343.91	142.7	3174.83
1344.01	142.6	3245.96
1344.11	142.5	3201.37
1344.21	142.4	3219.68
1344.31	142.3	3188.68
1344.41	142.2	3211.93
1344.51	142.1	3209.99
1344.61	142	3233.16
1344.71	141.9	3207.25
1344.81	141.8	3220.68
1344.91	141.7	3191.21
1345.01	141.6	3198.55
1345.11	141.5	3189.29
1345.21	141.4	3240.58
1345.31	141.3	3158.44
1345.41	141.2	3203.22
1345.51	141.1	3252.42
1345.61	141	3232.86
1345.71	140.9	3233.9
1345.81	140.8	3219.28
1345.91	140.7	3250.75
1346.01	140.6	3203.1
1346.11	140.5	3206.36
1346.21	140.4	3234.33
1346.31	140.3	3211.78
1346.41	140.2	3178.83
1346.51	140.1	3224.66
1346.61	140	3169.11
1346.71	139.9	3165.36
1346.81	139.8	3197.5
1346.91	139.7	3190.58
1347.01	139.6	3205.52
1347.11	139.5	3257.09
1347.21	139.4	3218.71
1347.31	139.3	3233.89
1347.41	139.2	3236.94
1347.51	139.1	3199.16
1347.61	139	3213.88
1347.71	138.9	3234.01
1347.81	138.8	3226.78
1347.91	138.7	3280.86
1348.01	138.6	3256.03
1348.11	138.5	3189.71
1348.21	138.4	3242.97
1348.31	138.3	3247.41
1348.41	138.2	3264.58
1348.51	138.1	3264.08
1348.61	138	3278.67
1348.71	137.9	3238.6
1348.81	137.8	3250.64
1348.91	137.7	3271.33
1349.01	137.6	3228.36
1349.11	137.5	3174.81
1349.21	137.4	3207.22
1349.31	137.3	3217.69
1349.41	137.2	3215.06
1349.51	137.1	3270.17
1349.61	137	3272.87
1349.71	136.9	3258.52
1349.81	136.8	3281.16
1349.91	136.7	3269.3
1350.01	136.6	3273.29
1350.11	136.5	3253.55
1350.21	136.4	3233.48
1350.31	136.3	3230.69
1350.41	136.2	3237.06
1350.51	136.1	3257.48
1350.61	136	3224.39
1350.71	135.9	3260.51
1350.81	135.8	3271.44
1350.91	135.7	3272.12
1351.01	135.6	3237.8
1351.11	135.5	3268.83
1351.21	135.4	3236.79
1351.31	135.3	3279.35
1351.41	135.2	3249.66
1351.51	135.1	3258.92
1351.61	135	3273.84
1351.71	134.9	3275.48
1351.81	134.8	3265.04
1351.91	134.7	3258.09
1352.01	134.6	3240.45
1352.11	134.5	3286.39
1352.21	134.4	3263.68
1352.31	134.3	3262.1
1352.41	134.2	3222.25
1352.51	134.1	3279.02
1352.61	134	3259.05
1352.71	133.9	3276.4
1352.81	133.8	3271.1
1352.91	133.7	3237.28
1353.01	133.6	3253.67
1353.11	133.5	3315.97
1353.21	133.4	3301.83
1353.31	133.3	3258.68
1353.41	133.2	3257.03
1353.51	133.1	3291.27
1353.61	133	3273.11
1353.71	132.9	3241.15
1353.81	132.8	3248.09
1353.91	132.7	3250.38
1354.01	132.6	3268.94
1354.11	132.5	3284.63
1354.21	132.4	3242.93
1354.31	132.3	3237.19
1354.41	132.2	3250.03
1354.51	132.1	3223.86
1354.61	132	3296.11
1354.71	131.9	3293.56
1354.81	131.8	3231.59
1354.91	131.7	3248.54
1355.01	131.6	3246.83
1355.11	131.5	3265.49
1355.21	131.4	3263.78
1355.31	131.3	3290.39
1355.41	131.2	3262.18
1355.51	131.1	3257.97
1355.61	131	3239.16
1355.71	130.9	3288.92
1355.81	130.8	3322.06
1355.91	130.7	3266.46
1356.01	130.6	3254.95
1356.11	130.5	3256.67
1356.21	130.4	3248.71
1356.31	130.3	3264.9
1356.41	130.2	3235.71
1356.51	130.1	3265.1
1356.61	130	3287.44
1356.71	129.9	3256.08
1356.81	129.8	3254.98
1356.91	129.7	3295.48
1357.01	129.6	3292.66
1357.11	129.5	3275.16
1357.21	129.4	3276.14
1357.31	129.3	3291.66
1357.41	129.2	3284.46
1357.51	129.1	3278.48
1357.61	129	3296.65
1357.71	128.9	3291.1
1357.81	128.8	3311.75
1357.91	128.7	3270.46
1358.01	128.6	3301.91
1358.11	128.5	3270.31
1358.21	128.4	3269.01
1358.31	128.3	3260.33
1358.41	128.2	3230.68
1358.51	128.1	3221.01
1358.61	128	3251.44
1358.71	127.9	3247.75
1358.81	127.8	3267.13
1358.91	127.7	3295.62
1359.01	127.6	3270.49
1359.11	127.5	3272.69
1359.21	127.4	3287.68
1359.31	127.3	3289.22
1359.41	127.2	3245.63
1359.51	127.1	3265.92
1359.61	127	3265.2
1359.71	126.9	3259.19
1359.81	126.8	3213.77
1359.91	126.7	3246.06
1360.01	126.6	3252.12
1360.11	126.5	3267.6
1360.21	126.4	3273.56
1360.31	126.3	3260.02
1360.41	126.2	3299.33
1360.51	126.1	3289.06
1360.61	126	3291.08
1360.71	125.9	3281.98
1360.81	125.8	3239.63
1360.91	125.7	3291.16
1361.01	125.6	3275.92
1361.11	125.5	3285.79
1361.21	125.4	3247.69
1361.31	125.3	3239.33
1361.41	125.2	3256.35
1361.51	125.1	3256.71
1361.61	125	3320.53
1361.71	124.9	3299.11
1361.81	124.8	3256.4
1361.91	124.7	3298.17
1362.01	124.6	3240.52
1362.11	124.5	3265.91
1362.21	124.4	3261.92
1362.31	124.3	3259.71
1362.41	124.2	3281
1362.51	124.1	3231.81
1362.61	124	3258.47
1362.71	123.9	3234.72
1362.81	123.8	3236.43
1362.91	123.7	3279.42
1363.01	123.6	3251.41
1363.11	123.5	3273.28
1363.21	123.4	3280.24
1363.31	123.3	3222.65
1363.41	123.2	3224.81
1363.51	123.1	3226.12
1363.61	123	3279.41
1363.71	122.9	3263.02
1363.81	122.8	3272.42
1363.91	122.7	3275.66
1364.01	122.6	3246.33
1364.11	122.5	3233.07
1364.21	122.4	3205.96
1364.31	122.3	3277.37
1364.41	122.2	3295.22
1364.51	122.1	3252.18
1364.61	122	3291.9
1364.71	121.9	3247.1
1364.81	121.8	3263.25
1364.91	121.7	3319.15
1365.01	121.6	3326.29
1365.11	121.5	3272.08
1365.21	121.4	3310.74
1365.31	121.3	3238.48
1365.41	121.2	3241.49
1365.51	121.1	3246.27
1365.61	121	3257.67
1365.71	120.9	3279.63
1365.81	120.8	3303.51
1365.91	120.7	3291.7
1366.01	120.6	3236.54
1366.11	120.5	3268.72
1366.21	120.4	3287.37
1366.31	120.3	3299.89
1366.41	120.2	3309.4
1366.51	120.1	3324.93
1366.61	120	3294.94
1366.71	119.9	3359.19
1366.81	119.8	3330.7
1366.91	119.7	3328.41
1367.01	119.6	3270.49
1367.11	119.5	3328.62
1367.21	119.4	3368.27
1367.31	119.3	3329.36
1367.41	119.2	3268.87
1367.51	119.1	3304.91
1367.61	119	3271.85
1367.71	118.9	3295.05
1367.81	118.8	3289.73
1367.91	118.7	3299.21
1368.01	118.6	3316.83
1368.11	118.5	3341.25
1368.21	118.4	3313.28
1368.31	118.3	3309.93
1368.41	118.2	3351.88
1368.51	118.1	3335.87
1368.61	118	3364.89
1368.71	117.9	3333.64
1368.81	117.8	3271.2
1368.91	117.7	3347.61
1369.01	117.6	3325.36
1369.11	117.5	3345.34
1369.21	117.4	3391.81
1369.31	117.3	3316.71
1369.41	117.2	3300.43
1369.51	117.1	3304.57
1369.61	117	3281.53
1369.71	116.9	3324.18
1369.81	116.8	3377.38
1369.91	116.7	3380.67
1370.01	116.6	3328.59
1370.11	116.5	3324.65
1370.21	116.4	3318.32
1370.31	116.3	3358.26
1370.41	116.2	3327.95
1370.51	116.1	3297.06
1370.61	116	3367.54
1370.71	115.9	3380.45
1370.81	115.8	3370.49
1370.91	115.7	3338.21
1371.01	115.6	3382.55
1371.11	115.5	3315.63
1371.21	115.4	3307.17
1371.31	115.3	3331.73
1371.41	115.2	3390.39
1371.51	115.1	3406.2
1371.61	115	3359.36
1371.71	114.9	3404.49
1371.81	114.8	3390.25
1371.91	114.7	3424.78
1372.01	114.6	3416.68
1372.11	114.5	3404.5
1372.21	114.4	3415.96
1372.31	114.3	3363.31
1372.41	114.2	3363.98
1372.51	114.1	3346.07
1372.61	114	3430.55
1372.71	113.9	3397.05
1372.81	113.8	3387.68
1372.91	113.7	3347.45
1373.01	113.6	3367.78
1373.11	113.5	3347.85
1373.21	113.4	3343.58
1373.31	113.3	3295.62
1373.41	113.2	3297.29
1373.51	113.1	3354
1373.61	113	3348.39
1373.71	112.9	3316.08
1373.81	112.8	3312.3
1373.91	112.7	3311.41
1374.01	112.6	3316.74
1374.11	112.5	3311.38
1374.21	112.4	3274.12
1374.31	112.3	3268.64
1374.41	112.2	3249.33
1374.51	112.1	3234.37
1374.61	112	3289.75
1374.71	111.9	3261.53
1374.81	111.8	3294.74
1374.91	111.7	3257.19
1375.01	111.6	3291.46
1375.11	111.5	3278.15
1375.21	111.4	3295.77
1375.31	111.3	3317.49
1375.41	111.2	3316.64
1375.51	111.1	3317.58
1375.61	111	3340.04
1375.71	110.9	3321.21
1375.81	110.8	3311.83
1375.91	110.7	3303.08
1376.01	110.6	3344.31
1376.11	110.5	3206.09
1376.21	110.4	3257.65
1376.31	110.3	3264.67
1376.41	110.2	3230.41
1376.51	110.1	3193.69
1376.61	110	3205.45
1376.71	109.9	3249.03
1376.81	109.8	3219.4
1376.91	109.7	3236.35
1377.01	109.6	3156.55
1377.11	109.5	3170.57
1377.21	109.4	3141.61
1377.31	109.3	3147.6
1377.41	109.2	3143.9
1377.51	109.1	3105.48
1377.61	109	3020.05
1377.71	108.9	3045.18
1377.81	108.8	3040.77
1377.91	108.7	3057.43
1378.01	108.6	3030.42
1378.11	108.5	3048.4
1378.21	108.4	3063.68
1378.31	108.3	3053.09
1378.41	108.2	3059.6
1378.51	108.1	3061.52
1378.61	108	3041.05
1378.71	107.9	3071.3
1378.81	107.8	3088.41
1378.91	107.7	2985.91
1379.01	107.6	3068.08
1379.11	107.5	3009.67
1379.21	107.4	3060.11
1379.31	107.3	3088.2
1379.41	107.2	3077.07
1379.51	107.1	3081.7
1379.61	107	3116.61
1379.71	106.9	3103.69
1379.81	106.8	3064.75
1379.91	106.7	3114.74
1380.01	106.6	3094.47
1380.11	106.5	3076.41
1380.21	106.4	3070.73
1380.31	106.3	3061.8
1380.41	106.2	3029.41
1380.51	106.1	3048.05
1380.61	106	3101.41
1380.71	105.9	3019.37
1380.81	105.8	3094.51
1380.91	105.7	3058.89
1381.01	105.6	3033.99
1381.11	105.5	3102.35
1381.21	105.4	3095.4
1381.31	105.3	3038.13
1381.41	105.2	3016.16
1381.51	105.1	3064.15
1381.61	105	3061.29
1381.71	104.9	3056.11
1381.81	104.8	3043.08
1381.91	104.7	3068.82
1382.01	104.6	3042.06
1382.11	104.5	3095.99
1382.21	104.4	3094.99
1382.31	104.3	3083.22
1382.41	104.2	3097.93
1382.51	104.1	3184.47
1382.61	104	3221.2
1382.71	103.9	3136.07
1382.81	103.8	3243.19
1382.91	103.7	3187.48
1383.01	103.6	3224.6
1383.11	103.5	3222.27
1383.21	103.4	3251.96
1383.31	103.3	3285.07
1383.41	103.2	3169.2
1383.51	103.1	3123.79
1383.61	103	3136.7
1383.71	102.9	3111.9
1383.81	102.8	3097.41
1383.91	102.7	3103.71
1384.01	102.6	3154.85
1384.11	102.5	3218.51
1384.21	102.4	3273.53
1384.31	102.3	3329.08
1384.41	102.2	3499.34
1384.51	102.1	3611.4
1384.61	102	3641.91
1384.71	101.9	3753.61
1384.81	101.8	3789.45
1384.91	101.7	3842.74
1385.01	101.6	3834.75
1385.11	101.5	3780.48
1385.21	101.4	3825.62
1385.31	101.3	3855.93
1385.41	101.2	3877.72
1385.51	101.1	3915.47
1385.61	101	4020.44
1385.71	100.9	4053.45
1385.81	100.8	4188.57
1385.91	100.7	4335.76
1386.01	100.6	4380.4
1386.11	100.5	4326.64
1386.21	100.4	4227.52
1386.31	100.3	4045.25
1386.41	100.2	3841.93
1386.51	100.1	3629.91
1386.61	100	3423.29
1386.71	99.9	3242.88
1386.81	99.8	3119.02
1386.91	99.7	2972.16
1387.01	99.6	2865.77
1387.11	99.5	2804.57
1387.21	99.4	2751.76
1387.31	99.3	2649.13
1387.41	99.2	2623.47
1387.51	99.1	2590.45
1387.61	99	2546.64
1387.71	98.9	2593.71
1387.81	98.8	2633.99
1387.91	98.7	2721.43
1388.01	98.6	2869.29
1388.11	98.5	2971.77
1388.21	98.4	3131.13
1388.31	98.3	3256.88
1388.41	98.2	3332.41
1388.51	98.1	3403.28
1388.61	98	3503.06
1388.71	97.9	3405.54
1388.81	97.8	3351.98
1388.91	97.7	3386.55
1389.01	97.6	3406.96
1389.11	97.5	3415.98
1389.21	97.4	3507.77
1389.31	97.3	3597.57
1389.41	97.2	3767.08
1389.51	97.1	3888.06
1389.61	97	3984.4
1389.71	96.9	3978.09
1389.81	96.8	3875.92
1389.91	96.7	3657.39
1390.01	96.6	3380.49
1390.11	96.5	3085.55
1390.21	96.4	2722.34
1390.31	96.3	2453.71
1390.41	96.2	2252.38
1390.51	96.1	2079.94
1390.61	96	1940.56
1390.71	95.9	1869.07
1390.81	95.8	1801.7
1390.91	95.7	1772.55
1391.01	95.6	1709.93
1391.11	95.5	1690.37
1391.21	95.4	1686.36
1391.31	95.3	1671.79
1391.41	95.2	1687.66
1391.51	95.1	1666.3
1391.61	95	1657.15
1391.71	94.9	1669.97
1391.81	94.8	1706.38
1391.91	94.7	1657.01
1392.01	94.6	1650.77
1392.11	94.5	1676.67
1392.21	94.4	1650
1392.31	94.3	1704.77
1392.41	94.2	1702.88
1392.51	94.1	1692.7
1392.61	94	1681.95
1392.71	93.9	1725.75
1392.81	93.8	1695.63
1392.91	93.7	1695.33
1393.01	93.6	1698.28
1393.11	93.5	1702.58
1393.21	93.4	1724.91
1393.31	93.3	1695.52
1393.41	93.2	1694.81
1393.51	93.1	1666.22
1393.61	93	1678.18
1393.71	92.9	1663.23
1393.81	92.8	1673.07
1393.91	92.7	1629.55
1394.01	92.6	1612.48
1394.11	92.5	1605.38
1394.21	92.4	1588.33
1394.31	92.3	1580.36
1394.41	92.2	1559.25
1394.51	92.1	1586.71
1394.61	92	1559.2
1394.71	91.9	1557.1
1394.81	91.8	1563.15
1394.91	91.7	1599.98
1395.01	91.6	1583.07
1395.11	91.5	1603.37
1395.21	91.4	1581.18
1395.31	91.3	1582.44
1395.41	91.2	1649.49
1395.51	91.1	1665.72
1395.61	91	1662.73
1395.71	90.9	1679.66
1395.81	90.8	1670.44
1395.91	90.7	1694.92
1396.01	90.6	1685.05
1396.11	90.5	1694.59
1396.21	90.4	1740.66
1396.31	90.3	1734.08
1396.41	90.2	1726.25
1396.51	90.1	1726.63
1396.61	90	1751.34
1396.71	89.9	1746.09
1396.81	89.8	1766.8
1396.91	89.7	1750.7
1397.01	89.6	1756.24
1397.11	89.5	1791.65
1397.21	89.4	1801.3
1397.31	89.3	1868.47
1397.41	89.2	1923.49
1397.51	89.1	1960.9
1397.61	89	2079.98
1397.71	88.9	2199.4
1397.81	88.8	2272.67
1397.91	88.7	2520.18
1398.01	88.6	2813.85
1398.11	88.5	3174.86
1398.21	88.4	3661.01
1398.31	88.3	4508.04
1398.41	88.2	5654.83
1398.51	88.1	7120.25
1398.61	88	8863.3
1398.71	87.9	10893.4
1398.81	87.8	12671.7
1398.91	87.7	13859.8
1399.01	87.6	13939.1
1399.11	87.5	13130.9
1399.21	87.4	11463.3
1399.31	87.3	9426.57
1399.41	87.2	7344.28
1399.51	87.1	5636.16
1399.61	87	4417.72
1399.71	86.9	3514.4
1399.81	86.8	2894.06
1399.91	86.7	2489.01
1400.01	86.6	2199.4
1400.11	86.5	2025.42
1400.21	86.4	1889.19
1400.31	86.3	1773.84
1400.41	86.2	1720.96
1400.51	86.1	1672.08
1400.61	86	1603.22
1400.71	85.9	1614.86
1400.81	85.8	1624.71
1400.91	85.7	1680.94
1401.01	85.6	1666.81
1401.11	85.5	1767.45
1401.21	85.4	1825.46
1401.31	85.3	1912.44
1401.41	85.2	1997.64
1401.51	85.1	2189.49
1401.61	85	2426.44
1401.71	84.9	2833.83
1401.81	84.8	3337.34
1401.91	84.7	4041.25
1402.01	84.6	5189.64
1402.11	84.5	6802.79
1402.21	84.4	8882.18
1402.31	84.3	11196.9
1402.41	84.2	13888.2
1402.51	84.1	16079.8
1402.61	84	17406.4
1402.71	83.9	17296.6
1402.81	83.8	15939.2
1402.91	83.7	13408.1
1403.01	83.6	10666.1
1403.11	83.5	7998.53
1403.21	83.4	5867.99
1403.31	83.3	4367.12
1403.41	83.2	3348.93
1403.51	83.1	2544.14
1403.61	83	2017.46
1403.71	82.9	1671.07
1403.81	82.8	1427.57
1403.91	82.7	1320.96
1404.01	82.6	1200.75
1404.11	82.5	1095.23
1404.21	82.4	1028.83
1404.31	82.3	960.834
1404.41	82.2	935.279
1404.51	82.1	891.421
1404.61	82	869.013
1404.71	81.9	845.842
1404.81	81.8	828.624
1404.91	81.7	792.422
1405.01	81.6	801.368
1405.11	81.5	771.86
1405.21	81.4	744.755
1405.31	81.3	729.789
1405.41	81.2	719.271
1405.51	81.1	742.375
1405.61	81	723.431
1405.71	80.9	702.727
1405.81	80.8	679.239
1405.91	80.7	684.588
1406.01	80.6	678.695
1406.11	80.5	687.732
1406.21	80.4	690.932
1406.31	80.3	662.636
1406.41	80.2	651.703
1406.51	80.1	631.574
1406.61	80	640.661
1406.71	79.9	672.893
1406.81	79.8	651.975
1406.91	79.7	652.02
1407.01	79.6	653.906
1407.11	79.5	647.619
1407.21	79.4	630.399
1407.31	79.3	616.435
1407.41	79.2	613.96
1407.51	79.1	616.627
1407.61	79	624.651
1407.71	78.9	647.695
1407.81	78.8	634.428
1407.91	78.7	638.438
1408.01	78.6	620.212
1408.11	78.5	613.979
1408.21	78.4	636.17
1408.31	78.3	626.549
1408.41	78.2	622.854
1408.51	78.1	640.42
1408.61	78	624.841
1408.71	77.9	623.908
1408.81	77.8	601.266
1408.91	77.7	626.992
1409.01	77.6	618.847
1409.11	77.5	641.9
1409.21	77.4	638.401
1409.31	77.3	613.079
1409.41	77.2	623.073
1409.51	77.1	614.063
1409.61	77	618.973
1409.71	76.9	637.632
1409.81	76.8	633.249
1409.91	76.7	638.046
1410.01	76.6	645.718
1410.11	76.5	636.204
1410.21	76.4	641.07
1410.31	76.3	629.734
1410.41	76.2	632.983
1410.51	76.1	650.842
1410.61	76	673.347
1410.71	75.9	665.848
1410.81	75.8	624.256
1410.91	75.7	655.642
1411.01	75.6	656.982
1411.11	75.5	662.958
1411.21	75.4	647.086
1411.31	75.3	643.117
1411.41	75.2	662.365
1411.51	75.1	673.731
1411.61	75	648.86