EX318_CEC356_Au Ag Cu in N2_clean_vb_regions.vms
Survey
	Characteristic Energy eV	1486.61	Acquisition Time s	0.1
KE_Survey	BE_Survey	CPS_Survey	Background_Survey
656.61	830	5891.15	5891.15
657.11	829.5	5955.01	5955.01
657.61	829	5889.04	5889.04
658.11	828.5	5961.53	5961.53
658.61	828	6045.49	6045.49
659.11	827.5	6325.6	6325.6
659.61	827	6336.86	6336.86
660.11	826.5	6166.87	6166.87
660.61	826	6066.71	6066.71
661.11	825.5	6149.96	6149.96
661.61	825	6204.69	6204.69
662.11	824.5	6012.85	6012.85
662.61	824	6194.6	6194.6
663.11	823.5	6117.46	6117.46
663.61	823	6022.37	6022.37
664.11	822.5	6316.28	6316.28
664.61	822	6417.22	6417.22
665.11	821.5	6436.7	6436.7
665.61	821	6227.83	6227.83
666.11	820.5	6378.56	6378.56
666.61	820	6441.62	6441.62
667.11	819.5	6402.64	6402.64
667.61	819	6482	6482
668.11	818.5	6390.68	6390.68
668.61	818	6199.6	6199.6
669.11	817.5	6386.27	6386.27
669.61	817	6362.85	6362.85
670.11	816.5	6251.02	6251.02
670.61	816	6341.3	6341.3
671.11	815.5	6468.55	6468.55
671.61	815	6347.5	6347.5
672.11	814.5	6011.95	6011.95
672.61	814	6358.65	6358.65
673.11	813.5	6422.14	6422.14
673.61	813	6378.79	6378.79
674.11	812.5	6268.76	6268.76
674.61	812	6110.11	6110.11
675.11	811.5	6198.79	6198.79
675.61	811	6329.92	6329.92
676.11	810.5	6544.98	6544.98
676.61	810	6640.04	6640.04
677.11	809.5	6422.11	6422.11
677.61	809	6377.58	6377.58
678.11	808.5	6428.64	6428.64
678.61	808	6373.55	6373.55
679.11	807.5	6540.37	6540.37
679.61	807	6465.27	6465.27
680.11	806.5	6263.91	6263.91
680.61	806	6509.97	6509.97
681.11	805.5	6705.67	6705.67
681.61	805	6274.78	6274.78
682.11	804.5	6448.07	6448.07
682.61	804	6548.18	6548.18
683.11	803.5	6296.86	6296.86
683.61	803	6558.18	6558.18
684.11	802.5	6466.19	6466.19
684.61	802	6587.06	6587.06
685.11	801.5	6534.04	6534.04
685.61	801	6687.2	6687.2
686.11	800.5	6350.02	6350.02
686.61	800	6422.53	6422.53
687.11	799.5	6605.82	6605.82
687.61	799	6432.16	6432.16
688.11	798.5	6464.86	6464.86
688.61	798	6455.6	6455.6
689.11	797.5	6433.4	6433.4
689.61	797	6441.5	6441.5
690.11	796.5	6491.71	6491.71
690.61	796	6717.77	6717.77
691.11	795.5	6782.49	6782.49
691.61	795	6572.99	6572.99
692.11	794.5	6342.89	6342.89
692.61	794	6615.65	6615.65
693.11	793.5	6541.3	6541.3
693.61	793	6387.52	6387.52
694.11	792.5	6315.51	6315.51
694.61	792	6447.43	6447.43
695.11	791.5	6785.84	6785.84
695.61	791	6458.31	6458.31
696.11	790.5	6728.91	6728.91
696.61	790	6617.94	6617.94
697.11	789.5	6684.64	6684.64
697.61	789	6614.09	6614.09
698.11	788.5	6697.12	6697.12
698.61	788	6715.13	6715.13
699.11	787.5	6832.88	6832.88
699.61	787	6605.28	6605.28
700.11	786.5	6492.63	6492.63
700.61	786	6786.45	6786.45
701.11	785.5	6650.82	6650.82
701.61	785	6842.9	6842.9
702.11	784.5	6733.22	6733.22
702.61	784	6740.66	6740.66
703.11	783.5	6505.87	6505.87
703.61	783	6734.19	6734.19
704.11	782.5	6858.92	6858.92
704.61	782	6647.12	6647.12
705.11	781.5	6752.7	6752.7
705.61	781	6593.18	6593.18
706.11	780.5	6815.06	6815.06
706.61	780	6554.36	6554.36
707.11	779.5	6789.61	6789.61
707.61	779	6800.85	6800.85
708.11	778.5	6872.72	6872.72
708.61	778	6859.67	6859.67
709.11	777.5	6784.9	6784.9
709.61	777	6835.42	6835.42
710.11	776.5	6983.53	6983.53
710.61	776	6951.1	6951.1
711.11	775.5	6865.38	6865.38
711.61	775	6758.99	6758.99
712.11	774.5	6688.25	6688.25
712.61	774	6692.95	6692.95
713.11	773.5	6779.64	6779.64
713.61	773	6710.66	6710.66
714.11	772.5	6775.91	6775.91
714.61	772	6565.03	6565.03
715.11	771.5	6551.22	6551.22
715.61	771	6884.41	6884.41
716.11	770.5	6610.33	6610.33
716.61	770	6697.57	6697.57
717.11	769.5	6620.79	6620.79
717.61	769	6862.49	6862.49
718.11	768.5	6683.07	6683.07
718.61	768	6603.9	6603.9
719.11	767.5	6733.29	6733.29
719.61	767	6626.38	6626.38
720.11	766.5	6721.4	6721.4
720.61	766	6967.13	6967.13
721.11	765.5	7125.83	7125.83
721.61	765	6975.87	6975.87
722.11	764.5	7126.09	7126.09
722.61	764	7325.45	7325.45
723.11	763.5	7269.89	7269.89
723.61	763	7373.74	7373.74
724.11	762.5	7707.73	7707.73
724.61	762	7714.25	7714.25
725.11	761.5	7296.71	7296.71
725.61	761	7594.08	7594.08
726.11	760.5	7405.19	7405.19
726.61	760	7150.01	7150.01
727.11	759.5	7199.25	7199.25
727.61	759	7201.1	7201.1
728.11	758.5	6991.83	6991.83
728.61	758	6720.67	6720.67
729.11	757.5	6548.58	6548.58
729.61	757	6677.54	6677.54
730.11	756.5	6408.76	6408.76
730.61	756	6389.4	6389.4
731.11	755.5	6339.59	6339.59
731.61	755	6330.35	6330.35
732.11	754.5	6345.22	6345.22
732.61	754	6150.33	6150.33
733.11	753.5	6058.45	6058.45
733.61	753	6196.67	6196.67
734.11	752.5	6204.22	6204.22
734.61	752	6015.55	6015.55
735.11	751.5	6158.96	6158.96
735.61	751	6014.4	6014.4
736.11	750.5	5942.97	5942.97
736.61	750	5843.32	5843.32
737.11	749.5	6048.13	6048.13
737.61	749	5779.02	5779.02
738.11	748.5	5823.54	5823.54
738.61	748	5838.11	5838.11
739.11	747.5	5907.81	5907.81
739.61	747	5946.34	5946.34
740.11	746.5	5963.76	5963.76
740.61	746	6058.77	6058.77
741.11	745.5	5950.91	5950.91
741.61	745	5708.61	5708.61
742.11	744.5	6058.9	6058.9
742.61	744	5933.37	5933.37
743.11	743.5	5719.95	5719.95
743.61	743	5848.54	5848.54
744.11	742.5	6008.11	6008.11
744.61	742	6127.69	6127.69
745.11	741.5	5861.95	5861.95
745.61	741	5925.82	5925.82
746.11	740.5	5911.56	5911.56
746.61	740	6144.48	6144.48
747.11	739.5	5893.64	5893.64
747.61	739	5969.29	5969.29
748.11	738.5	6214.27	6214.27
748.61	738	6042.03	6042.03
749.11	737.5	6020.92	6020.92
749.61	737	5996.98	5996.98
750.11	736.5	6040.69	6040.69
750.61	736	5934.99	5934.99
751.11	735.5	5955.21	5955.21
751.61	735	6187.76	6187.76
752.11	734.5	6227.13	6227.13
752.61	734	6024.44	6024.44
753.11	733.5	5956.85	5956.85
753.61	733	5842.87	5842.87
754.11	732.5	5941.25	5941.25
754.61	732	6151.99	6151.99
755.11	731.5	6103.31	6103.31
755.61	731	5985.33	5985.33
756.11	730.5	6077.25	6077.25
756.61	730	6171.03	6171.03
757.11	729.5	5929.43	5929.43
757.61	729	6220.71	6220.71
758.11	728.5	6291.85	6291.85
758.61	728	5957.97	5957.97
759.11	727.5	5974.89	5974.89
759.61	727	6087.98	6087.98
760.11	726.5	6308.99	6308.99
760.61	726	6253.58	6253.58
761.11	725.5	6212.83	6212.83
761.61	725	6307.68	6307.68
762.11	724.5	6011.98	6011.98
762.61	724	6182.15	6182.15
763.11	723.5	6205.16	6205.16
763.61	723	6206.3	6206.3
764.11	722.5	6277.66	6277.66
764.61	722	6086.64	6086.64
765.11	721.5	6280.7	6280.7
765.61	721	6534.64	6534.64
766.11	720.5	6291.88	6291.88
766.61	720	6459.94	6459.94
767.11	719.5	6139.98	6139.98
767.61	719	6104.72	6104.72
768.11	718.5	6453.77	6453.77
768.61	718	6585.3	6585.3
769.11	717.5	6328.04	6328.04
769.61	717	6450.83	6450.83
770.11	716.5	6377.84	6377.84
770.61	716	6302.37	6302.37
771.11	715.5	6232.22	6232.22
771.61	715	6111.27	6111.27
772.11	714.5	6221.21	6221.21
772.61	714	6288.87	6288.87
773.11	713.5	6372.55	6372.55
773.61	713	6380.91	6380.91
774.11	712.5	6677.77	6677.77
774.61	712	6382.2	6382.2
775.11	711.5	6353.58	6353.58
775.61	711	6563.75	6563.75
776.11	710.5	6710.9	6710.9
776.61	710	6607.76	6607.76
777.11	709.5	6512.28	6512.28
777.61	709	6724.89	6724.89
778.11	708.5	6515.42	6515.42
778.61	708	6580.1	6580.1
779.11	707.5	6462.13	6462.13
779.61	707	6437.37	6437.37
780.11	706.5	6402.22	6402.22
780.61	706	6553.04	6553.04
781.11	705.5	6541.35	6541.35
781.61	705	6562.57	6562.57
782.11	704.5	6606.61	6606.61
782.61	704	6714.59	6714.59
783.11	703.5	6420.58	6420.58
783.61	703	6769.28	6769.28
784.11	702.5	6561.64	6561.64
784.61	702	6706.15	6706.15
785.11	701.5	6444.95	6444.95
785.61	701	6693.95	6693.95
786.11	700.5	6594.52	6594.52
786.61	700	6477.13	6477.13
787.11	699.5	6734.29	6734.29
787.61	699	7004.08	7004.08
788.11	698.5	6852.26	6852.26
788.61	698	6810.75	6810.75
789.11	697.5	6654.63	6654.63
789.61	697	6712.08	6712.08
790.11	696.5	6682.53	6682.53
790.61	696	6841.68	6841.68
791.11	695.5	6983.79	6983.79
791.61	695	6778.82	6778.82
792.11	694.5	6858.76	6858.76
792.61	694	6712.86	6712.86
793.11	693.5	6912.81	6912.81
793.61	693	7065.34	7065.34
794.11	692.5	6956.31	6956.31
794.61	692	7128.52	7128.52
795.11	691.5	7154.28	7154.28
795.61	691	6932.73	6932.73
796.11	690.5	6852.71	6852.71
796.61	690	7068.7	7068.7
797.11	689.5	6956.85	6956.85
797.61	689	6948.22	6948.22
798.11	688.5	7082.75	7082.75
798.61	688	7077.83	7077.83
799.11	687.5	6916.87	6916.87
799.61	687	6998.08	6998.08
800.11	686.5	7123.21	7123.21
800.61	686	6998.32	6998.32
801.11	685.5	7137.28	7137.28
801.61	685	7167.63	7167.63
802.11	684.5	7062.6	7062.6
802.61	684	7104.77	7104.77
803.11	683.5	7164.03	7164.03
803.61	683	7044.87	7044.87
804.11	682.5	7138.66	7138.66
804.61	682	7019.51	7019.51
805.11	681.5	6900.38	6900.38
805.61	681	7408.16	7408.16
806.11	680.5	7332.18	7332.18
806.61	680	7097.39	7097.39
807.11	679.5	7119.96	7119.96
807.61	679	7432.05	7432.05
808.11	678.5	7420.85	7420.85
808.61	678	7269.48	7269.48
809.11	677.5	7479.01	7479.01
809.61	677	7244.33	7244.33
810.11	676.5	7238.34	7238.34
810.61	676	7382.29	7382.29
811.11	675.5	7458.26	7458.26
811.61	675	7270.81	7270.81
812.11	674.5	7503.44	7503.44
812.61	674	7541.8	7541.8
813.11	673.5	7331.7	7331.7
813.61	673	7393.65	7393.65
814.11	672.5	7327.69	7327.69
814.61	672	7334.98	7334.98
815.11	671.5	7504.96	7504.96
815.61	671	7366.87	7366.87
816.11	670.5	7376.86	7376.86
816.61	670	7526.75	7526.75
817.11	669.5	7508.9	7508.9
817.61	669	7400.58	7400.58
818.11	668.5	7454.39	7454.39
818.61	668	7556.88	7556.88
819.11	667.5	7531.38	7531.38
819.61	667	7271.38	7271.38
820.11	666.5	7189.02	7189.02
820.61	666	7363.08	7363.08
821.11	665.5	7544.64	7544.64
821.61	665	7426.11	7426.11
822.11	664.5	7618.57	7618.57
822.61	664	7862.13	7862.13
823.11	663.5	7545.85	7545.85
823.61	663	7384.11	7384.11
824.11	662.5	7608.48	7608.48
824.61	662	7792.15	7792.15
825.11	661.5	7651.56	7651.56
825.61	661	7896.56	7896.56
826.11	660.5	7666.96	7666.96
826.61	660	7802.28	7802.28
827.11	659.5	7696.21	7696.21
827.61	659	7702.43	7702.43
828.11	658.5	7747.3	7747.3
828.61	658	7761.07	7761.07
829.11	657.5	7658.68	7658.68
829.61	657	7608.56	7608.56
830.11	656.5	7973.16	7973.16
830.61	656	7805.92	7805.92
831.11	655.5	7776.03	7776.03
831.61	655	7546.55	7546.55
832.11	654.5	7590.29	7590.29
832.61	654	7625.58	7625.58
833.11	653.5	7539.39	7539.39
833.61	653	7597.71	7597.71
834.11	652.5	7681.37	7681.37
834.61	652	7636.27	7636.27
835.11	651.5	7374.71	7374.71
835.61	651	7423.62	7423.62
836.11	650.5	7481.43	7481.43
836.61	650	7608.12	7608.12
837.11	649.5	7638.43	7638.43
837.61	649	7516.53	7516.53
838.11	648.5	7746.22	7746.22
838.61	648	7784.99	7784.99
839.11	647.5	7770.31	7770.31
839.61	647	7878.85	7878.85
840.11	646.5	7973.65	7973.65
840.61	646	8445.5	8445.5
841.11	645.5	8434.24	8434.24
841.61	645	8433.3	8433.3
842.11	644.5	8630.89	8630.89
842.61	644	9143.96	9143.96
843.11	643.5	9180.81	9180.81
843.61	643	9145.97	9145.97
844.11	642.5	9414.66	9414.66
844.61	642	9180.44	9180.44
845.11	641.5	8928.97	8928.97
845.61	641	9165.85	9165.85
846.11	640.5	8925.24	8925.24
846.61	640	8475.91	8475.91
847.11	639.5	8056.54	8056.54
847.61	639	7902.82	7902.82
848.11	638.5	7802.99	7802.99
848.61	638	7707.91	7707.91
849.11	637.5	7440.29	7440.29
849.61	637	7317.63	7317.63
850.11	636.5	7255.25	7255.25
850.61	636	6926.2	6926.2
851.11	635.5	6872.63	6872.63
851.61	635	6558.68	6558.68
852.11	634.5	6617.09	6617.09
852.61	634	6765.5	6765.5
853.11	633.5	6651.03	6651.03
853.61	633	6503.07	6503.07
854.11	632.5	6731.01	6731.01
854.61	632	6389.3	6389.3
855.11	631.5	6503.69	6503.69
855.61	631	6294.63	6294.63
856.11	630.5	6507.36	6507.36
856.61	630	6544.08	6544.08
857.11	629.5	6429.07	6429.07
857.61	629	6608.85	6608.85
858.11	628.5	6460.46	6460.46
858.61	628	6273.72	6273.72
859.11	627.5	6258.21	6258.21
859.61	627	6380.39	6380.39
860.11	626.5	6452.17	6452.17
860.61	626	6139.82	6139.82
861.11	625.5	6298.71	6298.71
861.61	625	6270.92	6270.92
862.11	624.5	6406.14	6406.14
862.61	624	6432.63	6432.63
863.11	623.5	5845.47	5845.47
863.61	623	6374.35	6374.35
864.11	622.5	6873.83	6873.83
864.61	622	6229.42	6229.42
865.11	621.5	6296.15	6296.15
865.61	621	6448.9	6448.9
866.11	620.5	6447.96	6447.96
866.61	620	6323.16	6323.16
867.11	619.5	6338.19	6338.19
867.61	619	6493.64	6493.64
868.11	618.5	6516.45	6516.45
868.61	618	6294.92	6294.92
869.11	617.5	6639.86	6639.86
869.61	617	6432.62	6432.62
870.11	616.5	6231.05	6231.05
870.61	616	6923.68	6923.68
871.11	615.5	6628.42	6628.42
871.61	615	6415.28	6415.28
872.11	614.5	6288.61	6288.61
872.61	614	6198.53	6198.53
873.11	613.5	6418.42	6418.42
873.61	613	6744.29	6744.29
874.11	612.5	6564.53	6564.53
874.61	612	6864.48	6864.48
875.11	611.5	6858.78	6858.78
875.61	611	6469.39	6469.39
876.11	610.5	6482.34	6482.34
876.61	610	6599.26	6599.26
877.11	609.5	6670.58	6670.58
877.61	609	6546.45	6546.45
878.11	608.5	6723.36	6723.36
878.61	608	6965.77	6965.77
879.11	607.5	6629.21	6629.21
879.61	607	6712.15	6712.15
880.11	606.5	6564.43	6564.43
880.61	606	6792.55	6792.55
881.11	605.5	6637.45	6637.45
881.61	605	6642.65	6642.65
882.11	604.5	6758.99	6758.99
882.61	604	7013.58	7013.58
883.11	603.5	6592.91	6592.91
883.61	603	6678.47	6678.47
884.11	602.5	6854.36	6854.36
884.61	602	6921.24	6921.24
885.11	601.5	6810.43	6810.43
885.61	601	6588.36	6588.36
886.11	600.5	6666.26	6666.26
886.61	600	6895.91	6895.91
887.11	599.5	6953.14	6953.14
887.61	599	6850.93	6850.93
888.11	598.5	6847.95	6847.95
888.61	598	7042.57	7042.57
889.11	597.5	7055.72	7055.72
889.61	597	7083.96	7083.96
890.11	596.5	6724.52	6724.52
890.61	596	6966.19	6966.19
891.11	595.5	7207.68	7207.68
891.61	595	7439.96	7439.96
892.11	594.5	7073.41	7073.41
892.61	594	7150.45	7150.45
893.11	593.5	7199.18	7199.18
893.61	593	7433.89	7433.89
894.11	592.5	7251.7	7251.7
894.61	592	7110.52	7110.52
895.11	591.5	7278.75	7278.75
895.61	591	7046.24	7046.24
896.11	590.5	6908.32	6908.32
896.61	590	7089.05	7089.05
897.11	589.5	7234.85	7234.85
897.61	589	7283.97	7283.97
898.11	588.5	7152.71	7152.71
898.61	588	7249.41	7249.41
899.11	587.5	7661.91	7661.91
899.61	587	7488.04	7488.04
900.11	586.5	7357.73	7357.73
900.61	586	7465.91	7465.91
901.11	585.5	7364.64	7364.64
901.61	585	7198.77	7198.77
902.11	584.5	7496.53	7496.53
902.61	584	7486.41	7486.41
903.11	583.5	7291.44	7291.44
903.61	583	7390.55	7390.55
904.11	582.5	7602.05	7602.05
904.61	582	7781.2	7781.2
905.11	581.5	7788.57	7788.57
905.61	581	7556.95	7556.95
906.11	580.5	7447.67	7447.67
906.61	580	7755.26	7755.26
907.11	579.5	7694	7694
907.61	579	7881.02	7881.02
908.11	578.5	7825.88	7825.88
908.61	578	8132.07	8132.07
909.11	577.5	8156.02	8156.02
909.61	577	7726.18	7726.18
910.11	576.5	7827.2	7827.2
910.61	576	7975.51	7975.51
911.11	575.5	7857.93	7857.93
911.61	575	7853.49	7853.49
912.11	574.5	7748.7	7748.7
912.61	574	7992.59	7992.59
913.11	573.5	7697.74	7697.74
913.61	573	7724.84	7724.84
914.11	572.5	7368.42	7368.42
914.61	572	7823.13	7823.13
915.11	571.5	8174.66	8174.66
915.61	571	7843.25	7843.25
916.11	570.5	7923	7923
916.61	570	7721.11	7721.11
917.11	569.5	7739.36	7739.36
917.61	569	7779.62	7779.62
918.11	568.5	7752.85	7752.85
918.61	568	7859.19	7859.19
919.11	567.5	7910.98	7910.98
919.61	567	7707.54	7707.54
920.11	566.5	7994.3	7994.3
920.61	566	7820.89	7820.89
921.11	565.5	7912.99	7912.99
921.61	565	7760.58	7760.58
922.11	564.5	7961.82	7961.82
922.61	564	7949.78	7949.78
923.11	563.5	7966.72	7966.72
923.61	563	8470.11	8470.11
924.11	562.5	8503.93	8503.93
924.61	562	8609.27	8609.27
925.11	561.5	8608.17	8608.17
925.61	561	8789.93	8789.93
926.11	560.5	8562.7	8562.7
926.61	560	8546.06	8546.06
927.11	559.5	8619.86	8619.86
927.61	559	8105.3	8105.3
928.11	558.5	7790.23	7790.23
928.61	558	7373.96	7373.96
929.11	557.5	7439.25	7439.25
929.61	557	7051.95	7051.95
930.11	556.5	6731.31	6731.31
930.61	556	6327.54	6327.54
931.11	555.5	6254.07	6254.07
931.61	555	6334.35	6334.35
932.11	554.5	6098.24	6098.24
932.61	554	6515.7	6515.7
933.11	553.5	6294.02	6294.02
933.61	553	6391.84	6391.84
934.11	552.5	6410.32	6410.32
934.61	552	6845.43	6845.43
935.11	551.5	7512.97	7512.97
935.61	551	7967.22	7967.22
936.11	550.5	8492.31	8492.31
936.61	550	9120.8	9120.8
937.11	549.5	10282.2	10282.2
937.61	549	11420.5	11420.5
938.11	548.5	12742.4	12742.4
938.61	548	14027.9	14027.9
939.11	547.5	15443.2	15443.2
939.61	547	16312.3	16312.3
940.11	546.5	16102	16102
940.61	546	16621.3	16621.3
941.11	545.5	15884.8	15884.8
941.61	545	14095.5	14095.5
942.11	544.5	12348	12348
942.61	544	10687	10687
943.11	543.5	9117.87	9117.87
943.61	543	7827.19	7827.19
944.11	542.5	6625.59	6625.59
944.61	542	5203.41	5203.41
945.11	541.5	4703.12	4703.12
945.61	541	4175.28	4175.28
946.11	540.5	3644.61	3644.61
946.61	540	2996.66	2996.66
947.11	539.5	2976.2	2976.2
947.61	539	2387.57	2387.57
948.11	538.5	2116.06	2116.06
948.61	538	2025.53	2025.53
949.11	537.5	1724.61	1724.61
949.61	537	1641.49	1641.49
950.11	536.5	1455.29	1455.29
950.61	536	1058.72	1058.72
951.11	535.5	1068.96	1068.96
951.61	535	1011.4	1011.4
952.11	534.5	1060.32	1060.32
952.61	534	1267.84	1267.84
953.11	533.5	1056.97	1056.97
953.61	533	972.716	972.716
954.11	532.5	909.973	909.973
954.61	532	759.127	759.127
955.11	531.5	615.575	615.575
955.61	531	703.405	703.405
956.11	530.5	662.059	662.059
956.61	530	640.698	640.698
957.11	529.5	496.275	496.275
957.61	529	411.841	411.841
958.11	528.5	111.978	111.978
958.61	528	383.959	383.959
959.11	527.5	455.833	455.833
959.61	527	395.942	395.942
960.11	526.5	352.63	352.63
960.61	526	359.342	359.342
961.11	525.5	484.253	484.253
961.61	525	494.778	494.778
962.11	524.5	124.96	124.96
962.61	524	420.728	420.728
963.11	523.5	511.215	511.215
963.61	523	174.942	174.942
964.11	522.5	222.701	222.701
964.61	522	244.482	244.482
965.11	521.5	407.333	407.333
965.61	521	177.033	177.033
966.11	520.5	276.868	276.868
966.61	520	157.223	157.223
967.11	519.5	189.486	189.486
967.61	519	174.424	174.424
968.11	518.5	256.198	256.198
968.61	518	-11.1956	-11.1956
969.11	517.5	191.243	191.243
969.61	517	48.2923	48.2923
970.11	516.5	273.035	273.035
970.61	516	61.3439	61.3439
971.11	515.5	89.425	89.425
971.61	515	-305.948	-305.948
972.11	514.5	-256.934	-256.934
972.61	514	18.1947	18.1947
973.11	513.5	-85.3081	-85.3081
973.61	513	3.61107	3.61107
974.11	512.5	-73.874	-73.874
974.61	512	-374.454	-374.454
975.11	511.5	-203.751	-203.751
975.61	511	72.9894	72.9894
976.11	510.5	196.486	196.486
976.61	510	-24.1039	-24.1039
977.11	509.5	-59.4787	-59.4787
977.61	509	225.125	225.125
978.11	508.5	140.613	140.613
978.61	508	27.5758	27.5758
979.11	507.5	-201.764	-201.764
979.61	507	-198.834	-198.834
980.11	506.5	111.551	111.551
980.61	506	-112.365	-112.365
981.11	505.5	-301.423	-301.423
981.61	505	94.9715	94.9715
982.11	504.5	72.7251	72.7251
982.61	504	45.5472	45.5472
983.11	503.5	125.47	125.47
983.61	503	-317.225	-317.225
984.11	502.5	-113.244	-113.244
984.61	502	-277.098	-277.098
985.11	501.5	-36.5282	-36.5282
985.61	501	-98.5696	-98.5696
986.11	500.5	-192.375	-192.375
986.61	500	-380.064	-380.064
987.11	499.5	-128.146	-128.146
987.61	499	-337.902	-337.902
988.11	498.5	-114.659	-114.659
988.61	498	-450.698	-450.698
989.11	497.5	-240.056	-240.056
989.61	497	-368.228	-368.228
990.11	496.5	-58.1705	-58.1705
990.61	496	-171.324	-171.324
991.11	495.5	-118.22	-118.22
991.61	495	-300.374	-300.374
992.11	494.5	-191.285	-191.285
992.61	494	-112.893	-112.893
993.11	493.5	-411.416	-411.416
993.61	493	-319.696	-319.696
994.11	492.5	-299.346	-299.346
994.61	492	-326.62	-326.62
995.11	491.5	-201.586	-201.586
995.61	491	-64.7532	-64.7532
996.11	490.5	-439.534	-439.534
996.61	490	-166.615	-166.615
997.11	489.5	-159.586	-159.586
997.61	489	-405.34	-405.34
998.11	488.5	-270.804	-270.804
998.61	488	-115.608	-115.608
999.11	487.5	-299.942	-299.942
999.61	487	-213.167	-213.167
1000.11	486.5	-225.477	-225.477
1000.61	486	-232.79	-232.79
1001.11	485.5	-170.394	-170.394
1001.61	485	-227.152	-227.152
1002.11	484.5	112.722	112.722
1002.61	484	-270.284	-270.284
1003.11	483.5	-132.206	-132.206
1003.61	483	-234.347	-234.347
1004.11	482.5	-340.387	-340.387
1004.61	482	-450.329	-450.329
1005.11	481.5	-396.143	-396.143
1005.61	481	-257.76	-257.76
1006.11	480.5	67.8777	67.8777
1006.61	480	-151.37	-151.37
1007.11	479.5	-352.028	-352.028
1007.61	479	-319.552	-319.552
1008.11	478.5	-189.272	-189.272
1008.61	478	-130.322	-130.322
1009.11	477.5	-125.689	-125.689
1009.61	477	-228.655	-228.655
1010.11	476.5	-100.124	-100.124
1010.61	476	-427.637	-427.637
1011.11	475.5	-320.416	-320.416
1011.61	475	-343.939	-343.939
1012.11	474.5	-80.4752	-80.4752
1012.61	474	-241.833	-241.833
1013.11	473.5	-282.555	-282.555
1013.61	473	-157.96	-157.96
1014.11	472.5	23.722	23.722
1014.61	472	-294.41	-294.41
1015.11	471.5	-6.64403	-6.64403
1015.61	471	-383.401	-383.401
1016.11	470.5	-373.82	-373.82
1016.61	470	-123.069	-123.069
1017.11	469.5	-413.857	-413.857
1017.61	469	-365.411	-365.411
1018.11	468.5	-97.1751	-97.1751
1018.61	468	-181.938	-181.938
1019.11	467.5	-125.59	-125.59
1019.61	467	-160.555	-160.555
1020.11	466.5	-434.027	-434.027
1020.61	466	-291.951	-291.951
1021.11	465.5	-165.877	-165.877
1021.61	465	-137.278	-137.278
1022.11	464.5	120.954	120.954
1022.61	464	-48.0957	-48.0957
1023.11	463.5	97.0622	97.0622
1023.61	463	-263.61	-263.61
1024.11	462.5	-201.581	-201.581
1024.61	462	-90.7251	-90.7251
1025.11	461.5	51.2555	51.2555
1025.61	461	212.752	212.752
1026.11	460.5	-143.139	-143.139
1026.61	460	-218.623	-218.623
1027.11	459.5	-406.074	-406.074
1027.61	459	-302.321	-302.321
1028.11	458.5	-92.5582	-92.5582
1028.61	458	-174.869	-174.869
1029.11	457.5	0.344381	0.344381
1029.61	457	54.356	54.356
1030.11	456.5	162.817	162.817
1030.61	456	-22.679	-22.679
1031.11	455.5	-301.553	-301.553
1031.61	455	-321.278	-321.278
1032.11	454.5	-388.165	-388.165
1032.61	454	56.8761	56.8761
1033.11	453.5	-220.229	-220.229
1033.61	453	-336.486	-336.486
1034.11	452.5	-54.0767	-54.0767
1034.61	452	-282.614	-282.614
1035.11	451.5	66.6136	66.6136
1035.61	451	-61.1244	-61.1244
1036.11	450.5	-14.2957	-14.2957
1036.61	450	-25.2324	-25.2324
1037.11	449.5	-36.9973	-36.9973
1037.61	449	-88.4555	-88.4555
1038.11	448.5	-275.303	-275.303
1038.61	448	-422.125	-422.125
1039.11	447.5	126.38	126.38
1039.61	447	214.368	214.368
1040.11	446.5	225.873	225.873
1040.61	446	97.4164	97.4164
1041.11	445.5	27.2828	27.2828
1041.61	445	-72.8214	-72.8214
1042.11	444.5	-167.654	-167.654
1042.61	444	-132.636	-132.636
1043.11	443.5	-95.0308	-95.0308
1043.61	443	215.332	215.332
1044.11	442.5	217.15	217.15
1044.61	442	-43.3627	-43.3627
1045.11	441.5	-48.0471	-48.0471
1045.61	441	182.603	182.603
1046.11	440.5	159.853	159.853
1046.61	440	171.293	171.293
1047.11	439.5	228.256	228.256
1047.61	439	116.905	116.905
1048.11	438.5	215.663	215.663
1048.61	438	282.458	282.458
1049.11	437.5	192.371	192.371
1049.61	437	187.184	187.184
1050.11	436.5	408.877	408.877
1050.61	436	473.155	473.155
1051.11	435.5	460.946	460.946
1051.61	435	656.418	656.418
1052.11	434.5	496.393	496.393
1052.61	434	124.875	124.875
1053.11	433.5	448.313	448.313
1053.61	433	573.678	573.678
1054.11	432.5	549.349	549.349
1054.61	432	787.084	787.084
1055.11	431.5	655.581	655.581
1055.61	431	751.307	751.307