EX318_CEC356_Au Ag Cu in N2_clean_vb_regions.vms
Survey
	Characteristic Energy eV	1486.61	Acquisition Time s	0.1
KE_Survey	BE_Survey	CPS_Survey	Background_Survey
656.61	830	20556.2	20556.2
657.11	829.5	20850.3	20850.3
657.61	829	20684.3	20684.3
658.11	828.5	20723.6	20723.6
658.61	828	20580.6	20580.6
659.11	827.5	20854.3	20854.3
659.61	827	20970.1	20970.1
660.11	826.5	20950.3	20950.3
660.61	826	20925.1	20925.1
661.11	825.5	21020.9	21020.9
661.61	825	20920.3	20920.3
662.11	824.5	21133.2	21133.2
662.61	824	21683.5	21683.5
663.11	823.5	21265.5	21265.5
663.61	823	20918.1	20918.1
664.11	822.5	20628.7	20628.7
664.61	822	20787.8	20787.8
665.11	821.5	20864.6	20864.6
665.61	821	20795.6	20795.6
666.11	820.5	21175.7	21175.7
666.61	820	21020.6	21020.6
667.11	819.5	20469.4	20469.4
667.61	819	20942.1	20942.1
668.11	818.5	20716.4	20716.4
668.61	818	20821.9	20821.9
669.11	817.5	21027.9	21027.9
669.61	817	21150.7	21150.7
670.11	816.5	21041.7	21041.7
670.61	816	21308	21308
671.11	815.5	20947.6	20947.6
671.61	815	21052.5	21052.5
672.11	814.5	21584.8	21584.8
672.61	814	21512.2	21512.2
673.11	813.5	21394.4	21394.4
673.61	813	21465.6	21465.6
674.11	812.5	21182	21182
674.61	812	21104.5	21104.5
675.11	811.5	20952.4	20952.4
675.61	811	21447.2	21447.2
676.11	810.5	21507.7	21507.7
676.61	810	21319.6	21319.6
677.11	809.5	21592.8	21592.8
677.61	809	21435.8	21435.8
678.11	808.5	21478.4	21478.4
678.61	808	21505.8	21505.8
679.11	807.5	21419.2	21419.2
679.61	807	22023.1	22023.1
680.11	806.5	21519	21519
680.61	806	21364.6	21364.6
681.11	805.5	21810.4	21810.4
681.61	805	21356.6	21356.6
682.11	804.5	21422.8	21422.8
682.61	804	21947.7	21947.7
683.11	803.5	22031.6	22031.6
683.61	803	22205.1	22205.1
684.11	802.5	21945	21945
684.61	802	21545.2	21545.2
685.11	801.5	21496.1	21496.1
685.61	801	21709.5	21709.5
686.11	800.5	21519.9	21519.9
686.61	800	21683.8	21683.8
687.11	799.5	21912.9	21912.9
687.61	799	21692.4	21692.4
688.11	798.5	22063.7	22063.7
688.61	798	22120.9	22120.9
689.11	797.5	21948	21948
689.61	797	21933	21933
690.11	796.5	22436.1	22436.1
690.61	796	22021.9	22021.9
691.11	795.5	22026.9	22026.9
691.61	795	21838.3	21838.3
692.11	794.5	22330.9	22330.9
692.61	794	22346.1	22346.1
693.11	793.5	22050.8	22050.8
693.61	793	22381.1	22381.1
694.11	792.5	22422	22422
694.61	792	22273.7	22273.7
695.11	791.5	21871	21871
695.61	791	22400.5	22400.5
696.11	790.5	22641.7	22641.7
696.61	790	22464.8	22464.8
697.11	789.5	22476.1	22476.1
697.61	789	22493.2	22493.2
698.11	788.5	22163.8	22163.8
698.61	788	22250	22250
699.11	787.5	22500.7	22500.7
699.61	787	23109.7	23109.7
700.11	786.5	22835	22835
700.61	786	22624.9	22624.9
701.11	785.5	22731.1	22731.1
701.61	785	22614.5	22614.5
702.11	784.5	22908.1	22908.1
702.61	784	22481.7	22481.7
703.11	783.5	22717.1	22717.1
703.61	783	22423.3	22423.3
704.11	782.5	22587.8	22587.8
704.61	782	22574.6	22574.6
705.11	781.5	22942.1	22942.1
705.61	781	23198.1	23198.1
706.11	780.5	22965.2	22965.2
706.61	780	23035.9	23035.9
707.11	779.5	23082.8	23082.8
707.61	779	22650	22650
708.11	778.5	22878	22878
708.61	778	23176.3	23176.3
709.11	777.5	23397.6	23397.6
709.61	777	23391.4	23391.4
710.11	776.5	23465.2	23465.2
710.61	776	23601.6	23601.6
711.11	775.5	23738.5	23738.5
711.61	775	23063.1	23063.1
712.11	774.5	23859	23859
712.61	774	23692.8	23692.8
713.11	773.5	24001.2	24001.2
713.61	773	24138.5	24138.5
714.11	772.5	24275	24275
714.61	772	23998.7	23998.7
715.11	771.5	24428.1	24428.1
715.61	771	24757.5	24757.5
716.11	770.5	24891.5	24891.5
716.61	770	25266.5	25266.5
717.11	769.5	25448.5	25448.5
717.61	769	25528.6	25528.6
718.11	768.5	26159.9	26159.9
718.61	768	26486.1	26486.1
719.11	767.5	26873.6	26873.6
719.61	767	27133.9	27133.9
720.11	766.5	27800.9	27800.9
720.61	766	28282	28282
721.11	765.5	28496.9	28496.9
721.61	765	29287	29287
722.11	764.5	30290.7	30290.7
722.61	764	30958.9	30958.9
723.11	763.5	31517.8	31517.8
723.61	763	31775.9	31775.9
724.11	762.5	32212	32212
724.61	762	32718.3	32718.3
725.11	761.5	32781	32781
725.61	761	32038.5	32038.5
726.11	760.5	31700.1	31700.1
726.61	760	31020	31020
727.11	759.5	30364.9	30364.9
727.61	759	29322	29322
728.11	758.5	28504.5	28504.5
728.61	758	27866.6	27866.6
729.11	757.5	26604.3	26604.3
729.61	757	25923.6	25923.6
730.11	756.5	25476.6	25476.6
730.61	756	24526.3	24526.3
731.11	755.5	24294.9	24294.9
731.61	755	23977.4	23977.4
732.11	754.5	22878.6	22878.6
732.61	754	22216.3	22216.3
733.11	753.5	22236.6	22236.6
733.61	753	22050	22050
734.11	752.5	22099.4	22099.4
734.61	752	21686.8	21686.8
735.11	751.5	21404.2	21404.2
735.61	751	21390.7	21390.7
736.11	750.5	21271.4	21271.4
736.61	750	20669.1	20669.1
737.11	749.5	20759.7	20759.7
737.61	749	20336.7	20336.7
738.11	748.5	20313	20313
738.61	748	19908	19908
739.11	747.5	20269.2	20269.2
739.61	747	20205.2	20205.2
740.11	746.5	20203	20203
740.61	746	19917.3	19917.3
741.11	745.5	20031	20031
741.61	745	19698.2	19698.2
742.11	744.5	19839.3	19839.3
742.61	744	19870.9	19870.9
743.11	743.5	20122.6	20122.6
743.61	743	20025.5	20025.5
744.11	742.5	19884.4	19884.4
744.61	742	19859.7	19859.7
745.11	741.5	19698.1	19698.1
745.61	741	19994.2	19994.2
746.11	740.5	19594.7	19594.7
746.61	740	19811.7	19811.7
747.11	739.5	19846.8	19846.8
747.61	739	19643.8	19643.8
748.11	738.5	19851.1	19851.1
748.61	738	19605.2	19605.2
749.11	737.5	20060.7	20060.7
749.61	737	19748.7	19748.7
750.11	736.5	19569.2	19569.2
750.61	736	19796.6	19796.6
751.11	735.5	20023.8	20023.8
751.61	735	19679.4	19679.4
752.11	734.5	19385.5	19385.5
752.61	734	19338.1	19338.1
753.11	733.5	19653.7	19653.7
753.61	733	19968.4	19968.4
754.11	732.5	19932.7	19932.7
754.61	732	19931.8	19931.8
755.11	731.5	19919.4	19919.4
755.61	731	20007.2	20007.2
756.11	730.5	19866.4	19866.4
756.61	730	19785.2	19785.2
757.11	729.5	19806.6	19806.6
757.61	729	19694.8	19694.8
758.11	728.5	20017.3	20017.3
758.61	728	19793	19793
759.11	727.5	19718.6	19718.6
759.61	727	19878.6	19878.6
760.11	726.5	19968.3	19968.3
760.61	726	19713.4	19713.4
761.11	725.5	19682.4	19682.4
761.61	725	20159.1	20159.1
762.11	724.5	20005.8	20005.8
762.61	724	20194.4	20194.4
763.11	723.5	19575.6	19575.6
763.61	723	19783.8	19783.8
764.11	722.5	19924	19924
764.61	722	19887.4	19887.4
765.11	721.5	20041.8	20041.8
765.61	721	19891.8	19891.8
766.11	720.5	19746.3	19746.3
766.61	720	19819.4	19819.4
767.11	719.5	19983.2	19983.2
767.61	719	20255.5	20255.5
768.11	718.5	19707.6	19707.6
768.61	718	20138.6	20138.6
769.11	717.5	20122.6	20122.6
769.61	717	19993.1	19993.1
770.11	716.5	19775.8	19775.8
770.61	716	19934	19934
771.11	715.5	19958.4	19958.4
771.61	715	20263.3	20263.3
772.11	714.5	19639	19639
772.61	714	20140.8	20140.8
773.11	713.5	19948.1	19948.1
773.61	713	19841.9	19841.9
774.11	712.5	20240.1	20240.1
774.61	712	20063.3	20063.3
775.11	711.5	20001.6	20001.6
775.61	711	19980.5	19980.5
776.11	710.5	20335.2	20335.2
776.61	710	20534.7	20534.7
777.11	709.5	20537	20537
777.61	709	20547	20547
778.11	708.5	20527.6	20527.6
778.61	708	20461.6	20461.6
779.11	707.5	20608.7	20608.7
779.61	707	20402.2	20402.2
780.11	706.5	20260.9	20260.9
780.61	706	20537.6	20537.6
781.11	705.5	20364.6	20364.6
781.61	705	20589	20589
782.11	704.5	20223	20223
782.61	704	20211.6	20211.6
783.11	703.5	20500.2	20500.2
783.61	703	20764.8	20764.8
784.11	702.5	20305.8	20305.8
784.61	702	20794.5	20794.5
785.11	701.5	20421.6	20421.6
785.61	701	20375	20375
786.11	700.5	20354.2	20354.2
786.61	700	20769.5	20769.5
787.11	699.5	20864	20864
787.61	699	20640.5	20640.5
788.11	698.5	20906.6	20906.6
788.61	698	20720.3	20720.3
789.11	697.5	20843	20843
789.61	697	20586.3	20586.3
790.11	696.5	20816.6	20816.6
790.61	696	20372.5	20372.5
791.11	695.5	20594.9	20594.9
791.61	695	20650.6	20650.6
792.11	694.5	21152.5	21152.5
792.61	694	20841.7	20841.7
793.11	693.5	20809.3	20809.3
793.61	693	20690.2	20690.2
794.11	692.5	21093.7	21093.7
794.61	692	20851.7	20851.7
795.11	691.5	20745.8	20745.8
795.61	691	21252.8	21252.8
796.11	690.5	20999.5	20999.5
796.61	690	20932.6	20932.6
797.11	689.5	20894.3	20894.3
797.61	689	21071.8	21071.8
798.11	688.5	21295.8	21295.8
798.61	688	21032.2	21032.2
799.11	687.5	21301.1	21301.1
799.61	687	21312.4	21312.4
800.11	686.5	21405.1	21405.1
800.61	686	21547.4	21547.4
801.11	685.5	21470.1	21470.1
801.61	685	21728.3	21728.3
802.11	684.5	21311.8	21311.8
802.61	684	21328.3	21328.3
803.11	683.5	21468.6	21468.6
803.61	683	21350.5	21350.5
804.11	682.5	21674	21674
804.61	682	21512.4	21512.4
805.11	681.5	21619.5	21619.5
805.61	681	21689.8	21689.8
806.11	680.5	21343.8	21343.8
806.61	680	22006.2	22006.2
807.11	679.5	21418.2	21418.2
807.61	679	21395.3	21395.3
808.11	678.5	21904.6	21904.6
808.61	678	21981.7	21981.7
809.11	677.5	21683.3	21683.3
809.61	677	22370.7	22370.7
810.11	676.5	22111.1	22111.1
810.61	676	22069.8	22069.8
811.11	675.5	22298.3	22298.3
811.61	675	21698.9	21698.9
812.11	674.5	22022.5	22022.5
812.61	674	21980.7	21980.7
813.11	673.5	22377	22377
813.61	673	22182.7	22182.7
814.11	672.5	22467.5	22467.5
814.61	672	22557.8	22557.8
815.11	671.5	22537.9	22537.9
815.61	671	22113.7	22113.7
816.11	670.5	22339.1	22339.1
816.61	670	21979.9	21979.9
817.11	669.5	22656.8	22656.8
817.61	669	22489.9	22489.9
818.11	668.5	22057.7	22057.7
818.61	668	22420.2	22420.2
819.11	667.5	22342.6	22342.6
819.61	667	22275.4	22275.4
820.11	666.5	22442.8	22442.8
820.61	666	23002.4	23002.4
821.11	665.5	22605.6	22605.6
821.61	665	22520.2	22520.2
822.11	664.5	22739.1	22739.1
822.61	664	22501.4	22501.4
823.11	663.5	22696.8	22696.8
823.61	663	22918.4	22918.4
824.11	662.5	22475.9	22475.9
824.61	662	22707.2	22707.2
825.11	661.5	22749.5	22749.5
825.61	661	22796.4	22796.4
826.11	660.5	23165.7	23165.7
826.61	660	22933.8	22933.8
827.11	659.5	23170.2	23170.2
827.61	659	23013.9	23013.9
828.11	658.5	23127.9	23127.9
828.61	658	23391.1	23391.1
829.11	657.5	23674.9	23674.9
829.61	657	23679.7	23679.7
830.11	656.5	23677.3	23677.3
830.61	656	23909.3	23909.3
831.11	655.5	23867.2	23867.2
831.61	655	24664.4	24664.4
832.11	654.5	24477.2	24477.2
832.61	654	24176.4	24176.4
833.11	653.5	24480.8	24480.8
833.61	653	24615.3	24615.3
834.11	652.5	25034.8	25034.8
834.61	652	25180.1	25180.1
835.11	651.5	25491.7	25491.7
835.61	651	26000.3	26000.3
836.11	650.5	26190.7	26190.7
836.61	650	25992.5	25992.5
837.11	649.5	26655.9	26655.9
837.61	649	27225.9	27225.9
838.11	648.5	28051.4	28051.4
838.61	648	28587.9	28587.9
839.11	647.5	29301.1	29301.1
839.61	647	29644.2	29644.2
840.11	646.5	30811.5	30811.5
840.61	646	31676	31676
841.11	645.5	33128.6	33128.6
841.61	645	34278.3	34278.3
842.11	644.5	35237.6	35237.6
842.61	644	36541.8	36541.8
843.11	643.5	37461.1	37461.1
843.61	643	38584.4	38584.4
844.11	642.5	38369.3	38369.3
844.61	642	38515.6	38515.6
845.11	641.5	37166.1	37166.1
845.61	641	35784.6	35784.6
846.11	640.5	34510.9	34510.9
846.61	640	33456.5	33456.5
847.11	639.5	31771.8	31771.8
847.61	639	29971.8	29971.8
848.11	638.5	28530.5	28530.5
848.61	638	27623.2	27623.2
849.11	637.5	26692.7	26692.7
849.61	637	25536.9	25536.9
850.11	636.5	24693.6	24693.6
850.61	636	23871.9	23871.9
851.11	635.5	23464.7	23464.7
851.61	635	22395.3	22395.3
852.11	634.5	21797.8	21797.8
852.61	634	21437.1	21437.1
853.11	633.5	21064.5	21064.5
853.61	633	20775	20775
854.11	632.5	20581.8	20581.8
854.61	632	20145.7	20145.7
855.11	631.5	20305.4	20305.4
855.61	631	20099.8	20099.8
856.11	630.5	19733.9	19733.9
856.61	630	19267.3	19267.3
857.11	629.5	19582.7	19582.7
857.61	629	19635.4	19635.4
858.11	628.5	18881.8	18881.8
858.61	628	19248.1	19248.1
859.11	627.5	19588.4	19588.4
859.61	627	19092.9	19092.9
860.11	626.5	19204.1	19204.1
860.61	626	19250.4	19250.4
861.11	625.5	18962.3	18962.3
861.61	625	18931.4	18931.4
862.11	624.5	18825.8	18825.8
862.61	624	18771.7	18771.7
863.11	623.5	18985.8	18985.8
863.61	623	18375.9	18375.9
864.11	622.5	18808.8	18808.8
864.61	622	18491.5	18491.5
865.11	621.5	18238.1	18238.1
865.61	621	18385.3	18385.3
866.11	620.5	18306.1	18306.1
866.61	620	18450.7	18450.7
867.11	619.5	18602.6	18602.6
867.61	619	18481.6	18481.6
868.11	618.5	18406.6	18406.6
868.61	618	18878.6	18878.6
869.11	617.5	18960.9	18960.9
869.61	617	18398.4	18398.4
870.11	616.5	18122.8	18122.8
870.61	616	18783.7	18783.7
871.11	615.5	19096.7	19096.7
871.61	615	18859.6	18859.6
872.11	614.5	18513.1	18513.1
872.61	614	18467.6	18467.6
873.11	613.5	18767.6	18767.6
873.61	613	18974.7	18974.7
874.11	612.5	18791	18791
874.61	612	18790.3	18790.3
875.11	611.5	18877.9	18877.9
875.61	611	18846.9	18846.9
876.11	610.5	18712.5	18712.5
876.61	610	19097.4	19097.4
877.11	609.5	19102.3	19102.3
877.61	609	19233.7	19233.7
878.11	608.5	18815.7	18815.7
878.61	608	18500.6	18500.6
879.11	607.5	18860.9	18860.9
879.61	607	19074	19074
880.11	606.5	19034.4	19034.4
880.61	606	18791.9	18791.9
881.11	605.5	19205.3	19205.3
881.61	605	18852.1	18852.1
882.11	604.5	19369.6	19369.6
882.61	604	19182	19182
883.11	603.5	18927.8	18927.8
883.61	603	19563.7	19563.7
884.11	602.5	19412.7	19412.7
884.61	602	19025.5	19025.5
885.11	601.5	19380.3	19380.3
885.61	601	18503.9	18503.9
886.11	600.5	18794.7	18794.7
886.61	600	19217.1	19217.1
887.11	599.5	19518	19518
887.61	599	18921.2	18921.2
888.11	598.5	19313.4	19313.4
888.61	598	19396.3	19396.3
889.11	597.5	19373.6	19373.6
889.61	597	19658.4	19658.4
890.11	596.5	19466.4	19466.4
890.61	596	19256.4	19256.4
891.11	595.5	19572.1	19572.1
891.61	595	19647.6	19647.6
892.11	594.5	19676.6	19676.6
892.61	594	19638.4	19638.4
893.11	593.5	19788.8	19788.8
893.61	593	19909	19909
894.11	592.5	19698.5	19698.5
894.61	592	19624.2	19624.2
895.11	591.5	19655	19655
895.61	591	19849.3	19849.3
896.11	590.5	19673.1	19673.1
896.61	590	20024.5	20024.5
897.11	589.5	20059.4	20059.4
897.61	589	19797.7	19797.7
898.11	588.5	20128.9	20128.9
898.61	588	20284.2	20284.2
899.11	587.5	20415.4	20415.4
899.61	587	20778.8	20778.8
900.11	586.5	20744.8	20744.8
900.61	586	20195.5	20195.5
901.11	585.5	20300.3	20300.3
901.61	585	20634.4	20634.4
902.11	584.5	20219	20219
902.61	584	20455	20455
903.11	583.5	21163.1	21163.1
903.61	583	20703.8	20703.8
904.11	582.5	20886	20886
904.61	582	21002	21002
905.11	581.5	21036.1	21036.1
905.61	581	21124.7	21124.7
906.11	580.5	21118	21118
906.61	580	21371	21371
907.11	579.5	21013.3	21013.3
907.61	579	21477.2	21477.2
908.11	578.5	21887	21887
908.61	578	21778.3	21778.3
909.11	577.5	21580.7	21580.7
909.61	577	21315.7	21315.7
910.11	576.5	21610.6	21610.6
910.61	576	22021.8	22021.8
911.11	575.5	21702.5	21702.5
911.61	575	21353.3	21353.3
912.11	574.5	21233.5	21233.5
912.61	574	21773.9	21773.9
913.11	573.5	21725.3	21725.3
913.61	573	21444.9	21444.9
914.11	572.5	21676.3	21676.3
914.61	572	21575.9	21575.9
915.11	571.5	21432	21432
915.61	571	22079.9	22079.9
916.11	570.5	21801.1	21801.1
916.61	570	21771.8	21771.8
917.11	569.5	21912.2	21912.2
917.61	569	21453	21453
918.11	568.5	21419.7	21419.7
918.61	568	21889.9	21889.9
919.11	567.5	22196.1	22196.1
919.61	567	22312.1	22312.1
920.11	566.5	21908.7	21908.7
920.61	566	21771.3	21771.3
921.11	565.5	22141.9	22141.9
921.61	565	22057.8	22057.8
922.11	564.5	21664.4	21664.4
922.61	564	22336.3	22336.3
923.11	563.5	22596.7	22596.7
923.61	563	22405.6	22405.6
924.11	562.5	22727.5	22727.5
924.61	562	23167.7	23167.7
925.11	561.5	23864.5	23864.5
925.61	561	23921.5	23921.5
926.11	560.5	24113.3	24113.3
926.61	560	23964.1	23964.1
927.11	559.5	24556	24556
927.61	559	24851.8	24851.8
928.11	558.5	25196.9	25196.9
928.61	558	25478.2	25478.2
929.11	557.5	25878.3	25878.3
929.61	557	26382.2	26382.2
930.11	556.5	26760.2	26760.2
930.61	556	27434.8	27434.8
931.11	555.5	27697.8	27697.8
931.61	555	28706.7	28706.7
932.11	554.5	29114.7	29114.7
932.61	554	30025.7	30025.7
933.11	553.5	31400.2	31400.2
933.61	553	32113.1	32113.1
934.11	552.5	34057.4	34057.4
934.61	552	35982.7	35982.7
935.11	551.5	37933.2	37933.2
935.61	551	40692.1	40692.1
936.11	550.5	43921.6	43921.6
936.61	550	48320.1	48320.1
937.11	549.5	54042.7	54042.7
937.61	549	59098.5	59098.5
938.11	548.5	66029.1	66029.1
938.61	548	73917.8	73917.8
939.11	547.5	81479.3	81479.3
939.61	547	86777.7	86777.7
940.11	546.5	89698.8	89698.8
940.61	546	88602.4	88602.4
941.11	545.5	83713.9	83713.9
941.61	545	76998.4	76998.4
942.11	544.5	68371.9	68371.9
942.61	544	59629.4	59629.4
943.11	543.5	50808.5	50808.5
943.61	543	43386.9	43386.9
944.11	542.5	36654.6	36654.6
944.61	542	31611.7	31611.7
945.11	541.5	26871.5	26871.5
945.61	541	23042.9	23042.9
946.11	540.5	20379.7	20379.7
946.61	540	17766.7	17766.7
947.11	539.5	16018.2	16018.2
947.61	539	14174	14174
948.11	538.5	12626.7	12626.7
948.61	538	11338.6	11338.6
949.11	537.5	10435.4	10435.4
949.61	537	9322.12	9322.12
950.11	536.5	8077.98	8077.98
950.61	536	7765.26	7765.26
951.11	535.5	7262.25	7262.25
951.61	535	6737.21	6737.21
952.11	534.5	6530.82	6530.82
952.61	534	5778.86	5778.86
953.11	533.5	5306.33	5306.33
953.61	533	5297.88	5297.88
954.11	532.5	4988.76	4988.76
954.61	532	4520.37	4520.37
955.11	531.5	4935.4	4935.4
955.61	531	4494.76	4494.76
956.11	530.5	4195.95	4195.95
956.61	530	3590.8	3590.8
957.11	529.5	3314.98	3314.98
957.61	529	3320.85	3320.85
958.11	528.5	3119.35	3119.35
958.61	528	3007.42	3007.42
959.11	527.5	2911.93	2911.93
959.61	527	2685.11	2685.11
960.11	526.5	2659.81	2659.81
960.61	526	2389.01	2389.01
961.11	525.5	2264.7	2264.7
961.61	525	2738.05	2738.05
962.11	524.5	1828.71	1828.71
962.61	524	1589.34	1589.34
963.11	523.5	1849.15	1849.15
963.61	523	2039.49	2039.49
964.11	522.5	2390.17	2390.17
964.61	522	1840.58	1840.58
965.11	521.5	1947.29	1947.29
965.61	521	2297.91	2297.91
966.11	520.5	1922.84	1922.84
966.61	520	1597.82	1597.82
967.11	519.5	1880.24	1880.24
967.61	519	1663.45	1663.45
968.11	518.5	1590.88	1590.88
968.61	518	1746.08	1746.08
969.11	517.5	1178.24	1178.24
969.61	517	1273.48	1273.48
970.11	516.5	1226.52	1226.52
970.61	516	948.094	948.094
971.11	515.5	869.998	869.998
971.61	515	1063.85	1063.85
972.11	514.5	839.676	839.676
972.61	514	734.711	734.711
973.11	513.5	1355.54	1355.54
973.61	513	972.734	972.734
974.11	512.5	1031.7	1031.7
974.61	512	998.98	998.98
975.11	511.5	991.184	991.184
975.61	511	852.701	852.701
976.11	510.5	587.549	587.549
976.61	510	422.729	422.729
977.11	509.5	390.309	390.309
977.61	509	986.688	986.688
978.11	508.5	754.708	754.708
978.61	508	525.461	525.461
979.11	507.5	68.5901	68.5901
979.61	507	285.874	285.874
980.11	506.5	818.622	818.622
980.61	506	1108.28	1108.28
981.11	505.5	642.429	642.429
981.61	505	367.515	367.515
982.11	504.5	488.106	488.106
982.61	504	452.196	452.196
983.11	503.5	159.247	159.247
983.61	503	352.648	352.648
984.11	502.5	205.081	205.081
984.61	502	638.079	638.079
985.11	501.5	481.618	481.618
985.61	501	459.237	459.237
986.11	500.5	144.438	144.438
986.61	500	389.288	389.288
987.11	499.5	112.335	112.335
987.61	499	117.031	117.031
988.11	498.5	385.787	385.787
988.61	498	651.891	651.891
989.11	497.5	71.7752	71.7752
989.61	497	167.628	167.628
990.11	496.5	68.3641	68.3641
990.61	496	-213.805	-213.805
991.11	495.5	182.748	182.748
991.61	495	20.1108	20.1108
992.11	494.5	37.481	37.481
992.61	494	-158.827	-158.827
993.11	493.5	-163.372	-163.372
993.61	493	336.796	336.796
994.11	492.5	338.039	338.039
994.61	492	-56.4145	-56.4145
995.11	491.5	16.199	16.199
995.61	491	269.575	269.575
996.11	490.5	40.1614	40.1614
996.61	490	109.255	109.255
997.11	489.5	-487.835	-487.835
997.61	489	196.159	196.159
998.11	488.5	-278.785	-278.785
998.61	488	-478.064	-478.064
999.11	487.5	-92.372	-92.372
999.61	487	143.963	143.963
1000.11	486.5	-66.7683	-66.7683
1000.61	486	113.537	113.537
1001.11	485.5	-338.088	-338.088
1001.61	485	-572.729	-572.729
1002.11	484.5	-498.66	-498.66
1002.61	484	-84.3233	-84.3233
1003.11	483.5	225.876	225.876
1003.61	483	-752.721	-752.721
1004.11	482.5	-153.439	-153.439
1004.61	482	-219.641	-219.641
1005.11	481.5	142.112	142.112
1005.61	481	116.144	116.144
1006.11	480.5	-236.252	-236.252
1006.61	480	-205.585	-205.585
1007.11	479.5	-678.814	-678.814
1007.61	479	-407.65	-407.65
1008.11	478.5	-49.1342	-49.1342
1008.61	478	-387.008	-387.008
1009.11	477.5	-342.411	-342.411
1009.61	477	-349.231	-349.231
1010.11	476.5	-664.392	-664.392
1010.61	476	-600.18	-600.18
1011.11	475.5	-465.541	-465.541
1011.61	475	-731.571	-731.571
1012.11	474.5	-284.096	-284.096
1012.61	474	-166.409	-166.409
1013.11	473.5	-62.7764	-62.7764
1013.61	473	-425.805	-425.805
1014.11	472.5	-139.758	-139.758
1014.61	472	-337.42	-337.42
1015.11	471.5	-330.97	-330.97
1015.61	471	-347.54	-347.54
1016.11	470.5	-357.532	-357.532
1016.61	470	-600.518	-600.518
1017.11	469.5	-698.298	-698.298
1017.61	469	-475.616	-475.616
1018.11	468.5	-958.315	-958.315
1018.61	468	-1456.75	-1456.75
1019.11	467.5	-847.801	-847.801
1019.61	467	-431.516	-431.516
1020.11	466.5	-767.691	-767.691
1020.61	466	-299.691	-299.691
1021.11	465.5	-279.034	-279.034
1021.61	465	-431.106	-431.106
1022.11	464.5	-824.826	-824.826
1022.61	464	-374.305	-374.305
1023.11	463.5	-672.581	-672.581
1023.61	463	-597.899	-597.899
1024.11	462.5	-360.951	-360.951
1024.61	462	-491.702	-491.702
1025.11	461.5	-327.76	-327.76
1025.61	461	-257.721	-257.721
1026.11	460.5	-550.808	-550.808
1026.61	460	-850.793	-850.793
1027.11	459.5	-623.943	-623.943
1027.61	459	-675.82	-675.82
1028.11	458.5	-55.044	-55.044
1028.61	458	-678.011	-678.011
1029.11	457.5	-293.511	-293.511
1029.61	457	-416.947	-416.947
1030.11	456.5	-941.03	-941.03
1030.61	456	-840.151	-840.151
1031.11	455.5	-778.587	-778.587
1031.61	455	-481.372	-481.372
1032.11	454.5	-89.8853	-89.8853
1032.61	454	-318.802	-318.802
1033.11	453.5	-256.249	-256.249
1033.61	453	-402.535	-402.535
1034.11	452.5	-529.541	-529.541
1034.61	452	-346.911	-346.911
1035.11	451.5	-113.144	-113.144
1035.61	451	-625.471	-625.471
1036.11	450.5	-359.298	-359.298
1036.61	450	-565.404	-565.404
1037.11	449.5	-383.134	-383.134
1037.61	449	-456.142	-456.142
1038.11	448.5	-112.35	-112.35
1038.61	448	-486.911	-486.911
1039.11	447.5	-340.723	-340.723
1039.61	447	-221.913	-221.913
1040.11	446.5	-72.103	-72.103
1040.61	446	-294.185	-294.185
1041.11	445.5	-638.083	-638.083
1041.61	445	-348.431	-348.431
1042.11	444.5	76.5721	76.5721
1042.61	444	-231.636	-231.636
1043.11	443.5	-229.345	-229.345
1043.61	443	-349.926	-349.926
1044.11	442.5	-385.906	-385.906
1044.61	442	-234.012	-234.012
1045.11	441.5	-444.349	-444.349
1045.61	441	132.538	132.538
1046.11	440.5	-327.738	-327.738
1046.61	440	359.334	359.334
1047.11	439.5	488.859	488.859
1047.61	439	429.882	429.882
1048.11	438.5	504.94	504.94
1048.61	438	222.542	222.542
1049.11	437.5	451.515	451.515
1049.61	437	84.6976	84.6976
1050.11	436.5	116.89	116.89
1050.61	436	316.837	316.837
1051.11	435.5	227.312	227.312
1051.61	435	-90.8615	-90.8615
1052.11	434.5	483.145	483.145
1052.61	434	411.742	411.742
1053.11	433.5	729.606	729.606
1053.61	433	425.081	425.081
1054.11	432.5	201.688	201.688
1054.61	432	480.199	480.199
1055.11	431.5	672.712	672.712
1055.61	431	1419.37	1419.37