C:\Users\Mark\ownCloud\Muelheim Group\Projects\Gas phase background\EX318_CEC356_Au Ag Cu in N2_clean.vms
Cu2p
	Characteristic Energy eV	1486.61	Acquisition Time s	2.5
KE_Cu2p	BE_Cu2p	CPS_Cu2p
456.61	1030	21165.5
456.71	1029.9	21239.9
456.81	1029.8	21116.7
456.91	1029.7	21132.7
457.01	1029.6	21173
457.11	1029.5	21221.7
457.21	1029.4	21241.4
457.31	1029.3	21155.1
457.41	1029.2	21187.2
457.51	1029.1	21292.2
457.61	1029	21291.8
457.71	1028.9	21197.7
457.81	1028.8	21207.3
457.91	1028.7	21182.9
458.01	1028.6	21222.3
458.11	1028.5	21242.2
458.21	1028.4	21270.7
458.31	1028.3	21155.7
458.41	1028.2	21180.5
458.51	1028.1	21219.5
458.61	1028	21200.7
458.71	1027.9	21260.5
458.81	1027.8	21325.5
458.91	1027.7	21337.1
459.01	1027.6	21355.1
459.11	1027.5	21349.4
459.21	1027.4	21362
459.31	1027.3	21334.2
459.41	1027.2	21313.2
459.51	1027.1	21365.3
459.61	1027	21397.3
459.71	1026.9	21322.5
459.81	1026.8	21324
459.91	1026.7	21362.3
460.01	1026.6	21318.1
460.11	1026.5	21352.8
460.21	1026.4	21474
460.31	1026.3	21300
460.41	1026.2	21319.2
460.51	1026.1	21397.3
460.61	1026	21395.1
460.71	1025.9	21495.5
460.81	1025.8	21355.4
460.91	1025.7	21376.7
461.01	1025.6	21340.1
461.11	1025.5	21312.3
461.21	1025.4	21446.3
461.31	1025.3	21429.7
461.41	1025.2	21471.1
461.51	1025.1	21461.2
461.61	1025	21441.2
461.71	1024.9	21448.6
461.81	1024.8	21501.6
461.91	1024.7	21433.1
462.01	1024.6	21458.4
462.11	1024.5	21508.7
462.21	1024.4	21505.6
462.31	1024.3	21449.5
462.41	1024.2	21360.7
462.51	1024.1	21437.4
462.61	1024	21525.4
462.71	1023.9	21521.1
462.81	1023.8	21452
462.91	1023.7	21468.9
463.01	1023.6	21542.6
463.11	1023.5	21528.3
463.21	1023.4	21446.8
463.31	1023.3	21498
463.41	1023.2	21401.2
463.51	1023.1	21454.2
463.61	1023	21574.4
463.71	1022.9	21568.4
463.81	1022.8	21583.1
463.91	1022.7	21600.9
464.01	1022.6	21598.5
464.11	1022.5	21632.3
464.21	1022.4	21558.4
464.31	1022.3	21606.6
464.41	1022.2	21679.2
464.51	1022.1	21643.8
464.61	1022	21712.4
464.71	1021.9	21742.1
464.81	1021.8	21688.3
464.91	1021.7	21678.4
465.01	1021.6	21637.6
465.11	1021.5	21688
465.21	1021.4	21703
465.31	1021.3	21651.6
465.41	1021.2	21589.2
465.51	1021.1	21696.5
465.61	1021	21679.7
465.71	1020.9	21708.5
465.81	1020.8	21644.8
465.91	1020.7	21646.7
466.01	1020.6	21719.3
466.11	1020.5	21767.6
466.21	1020.4	21652.3
466.31	1020.3	21606.3
466.41	1020.2	21686.2
466.51	1020.1	21629.3
466.61	1020	21603.2
466.71	1019.9	21745.3
466.81	1019.8	21784.4
466.91	1019.7	21743.6
467.01	1019.6	21742.1
467.11	1019.5	21815.6
467.21	1019.4	21881.3
467.31	1019.3	21836
467.41	1019.2	21811.8
467.51	1019.1	21780.7
467.61	1019	21794.8
467.71	1018.9	21738.8
467.81	1018.8	21811.9
467.91	1018.7	21692.2
468.01	1018.6	21862.5
468.11	1018.5	21804.4
468.21	1018.4	21862.7
468.31	1018.3	21784.4
468.41	1018.2	21923.7
468.51	1018.1	21876.9
468.61	1018	21814.4
468.71	1017.9	21819.5
468.81	1017.8	21840.9
468.91	1017.7	21929.3
469.01	1017.6	21820.8
469.11	1017.5	21859.7
469.21	1017.4	21869.8
469.31	1017.3	21989.1
469.41	1017.2	21907.1
469.51	1017.1	21894.6
469.61	1017	21873.9
469.71	1016.9	21974.8
469.81	1016.8	21967.4
469.91	1016.7	21941.4
470.01	1016.6	21961.7
470.11	1016.5	21918.7
470.21	1016.4	21913.9
470.31	1016.3	22000.4
470.41	1016.2	21924.4
470.51	1016.1	21984.9
470.61	1016	22088.1
470.71	1015.9	22085.4
470.81	1015.8	22185.1
470.91	1015.7	22124.2
471.01	1015.6	21941
471.11	1015.5	22060.3
471.21	1015.4	22044
471.31	1015.3	22062.3
471.41	1015.2	22135.9
471.51	1015.1	21997.4
471.61	1015	22014.3
471.71	1014.9	21960.4
471.81	1014.8	22018
471.91	1014.7	22046.3
472.01	1014.6	22061.4
472.11	1014.5	22017.4
472.21	1014.4	22116.2
472.31	1014.3	22103.2
472.41	1014.2	22098.3
472.51	1014.1	22176.4
472.61	1014	22133
472.71	1013.9	22164.1
472.81	1013.8	22105.2
472.91	1013.7	22141.4
473.01	1013.6	22179.8
473.11	1013.5	22184.4
473.21	1013.4	22093
473.31	1013.3	22052.2
473.41	1013.2	22154.4
473.51	1013.1	22261.9
473.61	1013	22158.3
473.71	1012.9	22226.6
473.81	1012.8	22246.2
473.91	1012.7	22161.1
474.01	1012.6	22145.8
474.11	1012.5	22163.9
474.21	1012.4	22300.6
474.31	1012.3	22262.4
474.41	1012.2	22289
474.51	1012.1	22207.1
474.61	1012	22249.2
474.71	1011.9	22178.2
474.81	1011.8	22176.5
474.91	1011.7	22281.1
475.01	1011.6	22266.3
475.11	1011.5	22257
475.21	1011.4	22420.2
475.31	1011.3	22499.7
475.41	1011.2	22381.1
475.51	1011.1	22340.5
475.61	1011	22377.7
475.71	1010.9	22330.9
475.81	1010.8	22303.5
475.91	1010.7	22226.9
476.01	1010.6	22224.5
476.11	1010.5	22306.5
476.21	1010.4	22372
476.31	1010.3	22391.9
476.41	1010.2	22434.5
476.51	1010.1	22448.9
476.61	1010	22422.2
476.71	1009.9	22448.5
476.81	1009.8	22427.3
476.91	1009.7	22411.6
477.01	1009.6	22376.3
477.11	1009.5	22472.8
477.21	1009.4	22446.7
477.31	1009.3	22410.4
477.41	1009.2	22320.8
477.51	1009.1	22478.1
477.61	1009	22520.5
477.71	1008.9	22429.1
477.81	1008.8	22476.3
477.91	1008.7	22460.9
478.01	1008.6	22482.5
478.11	1008.5	22482.5
478.21	1008.4	22423.5
478.31	1008.3	22437.1
478.41	1008.2	22471.9
478.51	1008.1	22584.4
478.61	1008	22538.5
478.71	1007.9	22406.7
478.81	1007.8	22466.3
478.91	1007.7	22603
479.01	1007.6	22493.6
479.11	1007.5	22503.9
479.21	1007.4	22534.1
479.31	1007.3	22628.1
479.41	1007.2	22531.4
479.51	1007.1	22575
479.61	1007	22640.9
479.71	1006.9	22594.3
479.81	1006.8	22587.4
479.91	1006.7	22599.1
480.01	1006.6	22553
480.11	1006.5	22576.8
480.21	1006.4	22636.3
480.31	1006.3	22712.1
480.41	1006.2	22653.7
480.51	1006.1	22566
480.61	1006	22633.6
480.71	1005.9	22679.5
480.81	1005.8	22739.8
480.91	1005.7	22760.9
481.01	1005.6	22706.7
481.11	1005.5	22685.2
481.21	1005.4	22619.1
481.31	1005.3	22665.5
481.41	1005.2	22661.5
481.51	1005.1	22686.6
481.61	1005	22782.8
481.71	1004.9	22705.5
481.81	1004.8	22606.2
481.91	1004.7	22785.3
482.01	1004.6	22705
482.11	1004.5	22885.7
482.21	1004.4	22906.5
482.31	1004.3	22724.7
482.41	1004.2	22730.3
482.51	1004.1	22839.9
482.61	1004	22727.6
482.71	1003.9	22740.1
482.81	1003.8	22772.4
482.91	1003.7	22834.2
483.01	1003.6	22832.6
483.11	1003.5	22828.4
483.21	1003.4	22878.5
483.31	1003.3	22859.7
483.41	1003.2	22919.8
483.51	1003.1	22910.8
483.61	1003	22848.2
483.71	1002.9	22917.4
483.81	1002.8	23012.1
483.91	1002.7	22938.2
484.01	1002.6	22946.8
484.11	1002.5	22941.7
484.21	1002.4	23047.4
484.31	1002.3	22972.6
484.41	1002.2	23098.7
484.51	1002.1	22994.1
484.61	1002	22986
484.71	1001.9	23026.2
484.81	1001.8	23073.2
484.91	1001.7	23034.4
485.01	1001.6	23021.7
485.11	1001.5	23070.2
485.21	1001.4	22977.9
485.31	1001.3	23060.4
485.41	1001.2	23151.8
485.51	1001.1	23073.3
485.61	1001	23183.2
485.71	1000.9	23240.9
485.81	1000.8	23097.4
485.91	1000.7	23154.4
486.01	1000.6	23145.2
486.11	1000.5	23133.6
486.21	1000.4	23114.1
486.31	1000.3	22973.7
486.41	1000.2	23218
486.51	1000.1	23189.5
486.61	1000	23184.8
486.71	999.9	23247.2
486.81	999.8	23191.8
486.91	999.7	23154.7
487.01	999.6	23343.6
487.11	999.5	23279.3
487.21	999.4	23256.9
487.31	999.3	23242.8
487.41	999.2	23173.6
487.51	999.1	23160.3
487.61	999	23280.5
487.71	998.9	23338.2
487.81	998.8	23401.5
487.91	998.7	23382.8
488.01	998.6	23363.2
488.11	998.5	23391.3
488.21	998.4	23404.5
488.31	998.3	23328
488.41	998.2	23327.1
488.51	998.1	23386.3
488.61	998	23368.1
488.71	997.9	23371.3
488.81	997.8	23330.6
488.91	997.7	23460.2
489.01	997.6	23494.3
489.11	997.5	23439.5
489.21	997.4	23552.1
489.31	997.3	23552
489.41	997.2	23480.7
489.51	997.1	23406.6
489.61	997	23462.8
489.71	996.9	23488.2
489.81	996.8	23504.4
489.91	996.7	23574.3
490.01	996.6	23527.2
490.11	996.5	23383.6
490.21	996.4	23462.1
490.31	996.3	23499.3
490.41	996.2	23553.1
490.51	996.1	23606.7
490.61	996	23565
490.71	995.9	23542.3
490.81	995.8	23640
490.91	995.7	23665.5
491.01	995.6	23630.4
491.11	995.5	23543.8
491.21	995.4	23686.5
491.31	995.3	23536.2
491.41	995.2	23678.5
491.51	995.1	23785.9
491.61	995	23773.9
491.71	994.9	23640.6
491.81	994.8	23639.9
491.91	994.7	23667
492.01	994.6	23748.5
492.11	994.5	23745.9
492.21	994.4	23744.6
492.31	994.3	23761
492.41	994.2	23705.9
492.51	994.1	23728.9
492.61	994	23705.2
492.71	993.9	23676.9
492.81	993.8	23809.9
492.91	993.7	23893.3
493.01	993.6	23830.9
493.11	993.5	23774.9
493.21	993.4	23877.8
493.31	993.3	23824.3
493.41	993.2	23840.1
493.51	993.1	23784.7
493.61	993	23710.2
493.71	992.9	23818.4
493.81	992.8	23948.8
493.91	992.7	23934.8
494.01	992.6	23893.8
494.11	992.5	23949.8
494.21	992.4	23880.8
494.31	992.3	23876.3
494.41	992.2	23871.8
494.51	992.1	23932
494.61	992	23907
494.71	991.9	23880.2
494.81	991.8	23881.9
494.91	991.7	23955
495.01	991.6	23961.8
495.11	991.5	23916.6
495.21	991.4	23913.5
495.31	991.3	24021.5
495.41	991.2	23898.9
495.51	991.1	24009.5
495.61	991	23993.2
495.71	990.9	24027
495.81	990.8	23956.5
495.91	990.7	24023.9
496.01	990.6	24010.6
496.11	990.5	23981.9
496.21	990.4	24027.7
496.31	990.3	24000.1
496.41	990.2	24016.6
496.51	990.1	24088.3
496.61	990	24057.3
496.71	989.9	24131.6
496.81	989.8	24116.9
496.91	989.7	24209.2
497.01	989.6	24139
497.11	989.5	24144.2
497.21	989.4	24037.7
497.31	989.3	24187
497.41	989.2	24153.2
497.51	989.1	24200.3
497.61	989	24210.7
497.71	988.9	24124.5
497.81	988.8	24152.4
497.91	988.7	24109
498.01	988.6	24245.5
498.11	988.5	24254.8
498.21	988.4	24255.4
498.31	988.3	24187.6
498.41	988.2	24258.1
498.51	988.1	24321.8
498.61	988	24174.5
498.71	987.9	24169.3
498.81	987.8	24283.2
498.91	987.7	24308.8
499.01	987.6	24325.2
499.11	987.5	24262.8
499.21	987.4	24337.9
499.31	987.3	24317.5
499.41	987.2	24300.8
499.51	987.1	24208.5
499.61	987	24322.9
499.71	986.9	24383
499.81	986.8	24493.3
499.91	986.7	24456.1
500.01	986.6	24484.5
500.11	986.5	24546.9
500.21	986.4	24463.4
500.31	986.3	24513.6
500.41	986.2	24490.5
500.51	986.1	24557.9
500.61	986	24542.3
500.71	985.9	24498.1
500.81	985.8	24577.6
500.91	985.7	24573.9
501.01	985.6	24509.1
501.11	985.5	24464.7
501.21	985.4	24658.2
501.31	985.3	24684.8
501.41	985.2	24707.1
501.51	985.1	24676.1
501.61	985	24663.9
501.71	984.9	24583.2
501.81	984.8	24642.9
501.91	984.7	24679.7
502.01	984.6	24603
502.11	984.5	24668.9
502.21	984.4	24730
502.31	984.3	24743.9
502.41	984.2	24743.9
502.51	984.1	24827.9
502.61	984	24755.6
502.71	983.9	24714.1
502.81	983.8	24758.7
502.91	983.7	24875.6
503.01	983.6	25004
503.11	983.5	24937.1
503.21	983.4	24931.3
503.31	983.3	24917.2
503.41	983.2	24977
503.51	983.1	24949.8
503.61	983	25065.9
503.71	982.9	24953.4
503.81	982.8	25103.7
503.91	982.7	25069.7
504.01	982.6	25028.4
504.11	982.5	25088.3
504.21	982.4	25074.5
504.31	982.3	24997.9
504.41	982.2	25152.6
504.51	982.1	25149.7
504.61	982	25219.4
504.71	981.9	25190.4
504.81	981.8	25208.7
504.91	981.7	25241.2
505.01	981.6	25268.6
505.11	981.5	25221.7
505.21	981.4	25307.3
505.31	981.3	25207.5
505.41	981.2	25260.4
505.51	981.1	25342.2
505.61	981	25333.1
505.71	980.9	25376.9
505.81	980.8	25311.9
505.91	980.7	25372.2
506.01	980.6	25356.9
506.11	980.5	25323.4
506.21	980.4	25348.7
506.31	980.3	25513.1
506.41	980.2	25498.7
506.51	980.1	25498.7
506.61	980	25488.2
506.71	979.9	25500.3
506.81	979.8	25528.7
506.91	979.7	25486.2
507.01	979.6	25572.1
507.11	979.5	25541.9
507.21	979.4	25540.8
507.31	979.3	25535.5
507.41	979.2	25649.4
507.51	979.1	25599
507.61	979	25545
507.71	978.9	25591.2
507.81	978.8	25565.4
507.91	978.7	25614.9
508.01	978.6	25632.3
508.11	978.5	25631.9
508.21	978.4	25672.4
508.31	978.3	25645.1
508.41	978.2	25685.9
508.51	978.1	25730.5
508.61	978	25621
508.71	977.9	25768.5
508.81	977.8	25759.2
508.91	977.7	25809.8
509.01	977.6	25802.9
509.11	977.5	25770
509.21	977.4	25825.8
509.31	977.3	25753
509.41	977.2	25876.3
509.51	977.1	25951.2
509.61	977	25876.9
509.71	976.9	25898.9
509.81	976.8	25878.1
509.91	976.7	25940.2
510.01	976.6	25904.7
510.11	976.5	25966.2
510.21	976.4	25979.4
510.31	976.3	25992.4
510.41	976.2	26010.7
510.51	976.1	25983.4
510.61	976	26023.3
510.71	975.9	26071.9
510.81	975.8	26068.3
510.91	975.7	26019.2
511.01	975.6	26039.9
511.11	975.5	26060.7
511.21	975.4	26210.1
511.31	975.3	26177.8
511.41	975.2	26164
511.51	975.1	26323.1
511.61	975	26305.2
511.71	974.9	26370
511.81	974.8	26298.7
511.91	974.7	26341.4
512.01	974.6	26423.9
512.11	974.5	26495.7
512.21	974.4	26487.1
512.31	974.3	26310.1
512.41	974.2	26466.5
512.51	974.1	26546.6
512.61	974	26583.9
512.71	973.9	26540.2
512.81	973.8	26511.2
512.91	973.7	26648.2
513.01	973.6	26648.7
513.11	973.5	26604.9
513.21	973.4	26657
513.31	973.3	26559.1
513.41	973.2	26734.5
513.51	973.1	26671.6
513.61	973	26583.7
513.71	972.9	26662
513.81	972.8	26668.9
513.91	972.7	26641.9
514.01	972.6	26679.3
514.11	972.5	26693.9
514.21	972.4	26666
514.31	972.3	26800.5
514.41	972.2	26741.8
514.51	972.1	26780.4
514.61	972	26671.5
514.71	971.9	26710.6
514.81	971.8	26734.8
514.91	971.7	26685.8
515.01	971.6	26720.9
515.11	971.5	26670.2
515.21	971.4	26760.4
515.31	971.3	26766.6
515.41	971.2	26720.4
515.51	971.1	26819.1
515.61	971	26699.3
515.71	970.9	26548.5
515.81	970.8	26729.3
515.91	970.7	26754.9
516.01	970.6	26694.5
516.11	970.5	26724.5
516.21	970.4	26699.6
516.31	970.3	26643.5
516.41	970.2	26736.6
516.51	970.1	26685.5
516.61	970	26817.3
516.71	969.9	26853.1
516.81	969.8	26939.2
516.91	969.7	26808.5
517.01	969.6	26945.8
517.11	969.5	26808.6
517.21	969.4	26855.9
517.31	969.3	26878.4
517.41	969.2	26826.1
517.51	969.1	26820.5
517.61	969	26832.9
517.71	968.9	26791.8
517.81	968.8	26748.8
517.91	968.7	26872.9
518.01	968.6	26847.7
518.11	968.5	26861.2
518.21	968.4	26843.7
518.31	968.3	26935.9
518.41	968.2	26814.1
518.51	968.1	26825.8
518.61	968	26820.8
518.71	967.9	26859.7
518.81	967.8	26947.9
518.91	967.7	26902.7
519.01	967.6	26905.5
519.11	967.5	26868
519.21	967.4	26969.9
519.31	967.3	26968.1
519.41	967.2	26853.9
519.51	967.1	26886.5
519.61	967	26940.1
519.71	966.9	27001.7
519.81	966.8	26909.8
519.91	966.7	27084.4
520.01	966.6	27112.1
520.11	966.5	27096.8
520.21	966.4	27123
520.31	966.3	27184.7
520.41	966.2	27279.1
520.51	966.1	27295.6
520.61	966	27354.8
520.71	965.9	27404.6
520.81	965.8	27421.3
520.91	965.7	27384.1
521.01	965.6	27552.8
521.11	965.5	27506.1
521.21	965.4	27523.2
521.31	965.3	27525.1
521.41	965.2	27641
521.51	965.1	27703.5
521.61	965	27678.7
521.71	964.9	27645
521.81	964.8	27603.3
521.91	964.7	27730
522.01	964.6	27657
522.11	964.5	27549.6
522.21	964.4	27652
522.31	964.3	27615.1
522.41	964.2	27599.1
522.51	964.1	27423.6
522.61	964	27423.2
522.71	963.9	27483.1
522.81	963.8	27204.5
522.91	963.7	27075.4
523.01	963.6	27030.6
523.11	963.5	27068
523.21	963.4	26934.2
523.31	963.3	26911.1
523.41	963.2	26844.8
523.51	963.1	26707.8
523.61	963	26520.5
523.71	962.9	26411.1
523.81	962.8	26481.7
523.91	962.7	26535.7
524.01	962.6	26420.8
524.11	962.5	26291.7
524.21	962.4	26388.2
524.31	962.3	26222.7
524.41	962.2	26205.6
524.51	962.1	26146.4
524.61	962	26084.6
524.71	961.9	26175
524.81	961.8	26188.6
524.91	961.7	26178.3
525.01	961.6	26015.5
525.11	961.5	26028.6
525.21	961.4	26036.6
525.31	961.3	26087.6
525.41	961.2	26211.1
525.51	961.1	26236
525.61	961	26233.8
525.71	960.9	26203.8
525.81	960.8	26264.7
525.91	960.7	26315.8
526.01	960.6	26257.2
526.11	960.5	26220.4
526.21	960.4	26334.8
526.31	960.3	26436.2
526.41	960.2	26435.8
526.51	960.1	26410.9
526.61	960	26296.7
526.71	959.9	26459.5
526.81	959.8	26479.1
526.91	959.7	26427.1
527.01	959.6	26362.2
527.11	959.5	26415.5
527.21	959.4	26551
527.31	959.3	26437.9
527.41	959.2	26510.9
527.51	959.1	26476.7
527.61	959	26501.8
527.71	958.9	26403.8
527.81	958.8	26431
527.91	958.7	26411.8
528.01	958.6	26459.3
528.11	958.5	26628.2
528.21	958.4	26539
528.31	958.3	26640.2
528.41	958.2	26522.9
528.51	958.1	26627.4
528.61	958	26631.7
528.71	957.9	26666.7
528.81	957.8	26795.2
528.91	957.7	26826.8
529.01	957.6	26773
529.11	957.5	26883.6
529.21	957.4	26872
529.31	957.3	27102.3
529.41	957.2	27202
529.51	957.1	27188.4
529.61	957	27131.4
529.71	956.9	27277.5
529.81	956.8	27199.4
529.91	956.7	27433.4
530.01	956.6	27469.9
530.11	956.5	27626
530.21	956.4	27659.5
530.31	956.3	27730.7
530.41	956.2	27787.6
530.51	956.1	27899.6
530.61	956	28076.3
530.71	955.9	28025
530.81	955.8	28233.1
530.91	955.7	28251.3
531.01	955.6	28461.5
531.11	955.5	28489.1
531.21	955.4	28693.5
531.31	955.3	29035.6
531.41	955.2	29244.6
531.51	955.1	29393.2
531.61	955	29500.4
531.71	954.9	29844.8
531.81	954.8	30305.6
531.91	954.7	30718.2
532.01	954.6	31067.9
532.11	954.5	31539.8
532.21	954.4	31985.7
532.31	954.3	32588.6
532.41	954.2	33267.8
532.51	954.1	34269.9
532.61	954	35162.7
532.71	953.9	36252
532.81	953.8	37658.7
532.91	953.7	39130.4
533.01	953.6	40980.5
533.11	953.5	42977.6
533.21	953.4	45524.7
533.31	953.3	48417.3
533.41	953.2	51530
533.51	953.1	55219.2
533.61	953	59071.2
533.71	952.9	63152.5
533.81	952.8	67100.8
533.91	952.7	70539.3
534.01	952.6	73121.1
534.11	952.5	74467.3
534.21	952.4	74075.6
534.31	952.3	72616.5
534.41	952.2	69761.5
534.51	952.1	66040.7
534.61	952	61685
534.71	951.9	57378.8
534.81	951.8	52987.1
534.91	951.7	48987.7
535.01	951.6	45511
535.11	951.5	42504.6
535.21	951.4	40143.6
535.31	951.3	37978
535.41	951.2	36284.6
535.51	951.1	34640.3
535.61	951	33299.8
535.71	950.9	32335.1
535.81	950.8	31441.5
535.91	950.7	30647
536.01	950.6	29874.6
536.11	950.5	29464.6
536.21	950.4	28841.6
536.31	950.3	28376.4
536.41	950.2	27894.4
536.51	950.1	27620.3
536.61	950	27306.3
536.71	949.9	27128.5
536.81	949.8	26703.6
536.91	949.7	26590.2
537.01	949.6	26293.7
537.11	949.5	26021.2
537.21	949.4	25762.4
537.31	949.3	25613
537.41	949.2	25485.2
537.51	949.1	25262.5
537.61	949	25118.2
537.71	948.9	24910.6
537.81	948.8	24833.1
537.91	948.7	24859.5
538.01	948.6	24787.2
538.11	948.5	24757.8
538.21	948.4	24610.9
538.31	948.3	24548.3
538.41	948.2	24532
538.51	948.1	24516.5
538.61	948	24380.4
538.71	947.9	24369.1
538.81	947.8	24469
538.91	947.7	24430.3
539.01	947.6	24371.7
539.11	947.5	24283.4
539.21	947.4	24380.7
539.31	947.3	24361.7
539.41	947.2	24383.2
539.51	947.1	24359.3
539.61	947	24358.2
539.71	946.9	24303.5
539.81	946.8	24297
539.91	946.7	24277.1
540.01	946.6	24377
540.11	946.5	24353.9
540.21	946.4	24294.1
540.31	946.3	24331.4
540.41	946.2	24319.1
540.51	946.1	24341.8
540.61	946	24307.1
540.71	945.9	24179.2
540.81	945.8	24077
540.91	945.7	24030.4
541.01	945.6	23937.5
541.11	945.5	23759.2
541.21	945.4	23616.4
541.31	945.3	23486.3
541.41	945.2	23383.9
541.51	945.1	23283.5
541.61	945	23263.5
541.71	944.9	23177.9
541.81	944.8	23225.5
541.91	944.7	23114.4
542.01	944.6	23045.3
542.11	944.5	22969.8
542.21	944.4	22940.5
542.31	944.3	22914.7
542.41	944.2	22825.5
542.51	944.1	22955.4
542.61	944	22853.5
542.71	943.9	22736
542.81	943.8	22765.3
542.91	943.7	22612
543.01	943.6	22594.7
543.11	943.5	22464.9
543.21	943.4	22398.8
543.31	943.3	22375.5
543.41	943.2	22364.3
543.51	943.1	22275.9
543.61	943	22100.8
543.71	942.9	22038.7
543.81	942.8	22018.7
543.91	942.7	21853.9
544.01	942.6	21809.7
544.11	942.5	21677.6
544.21	942.4	21498.3
544.31	942.3	21453.4
544.41	942.2	21346.5
544.51	942.1	21138.9
544.61	942	20956.7
544.71	941.9	20779.6
544.81	941.8	20692.5
544.91	941.7	20536.6
545.01	941.6	20309.3
545.11	941.5	20285.9
545.21	941.4	20100
545.31	941.3	20139.5
545.41	941.2	20138.6
545.51	941.1	20080.4
545.61	941	20064.1
545.71	940.9	20052.8
545.81	940.8	20080.5
545.91	940.7	20080.7
546.01	940.6	20069.4
546.11	940.5	20113.4
546.21	940.4	20039.7
546.31	940.3	20166.6
546.41	940.2	20106.3
546.51	940.1	20105.4
546.61	940	20089
546.71	939.9	20139
546.81	939.8	20143.4
546.91	939.7	20137.9
547.01	939.6	20183.8
547.11	939.5	20126.5
547.21	939.4	20112.2
547.31	939.3	20043.5
547.41	939.2	20074.7
547.51	939.1	19949.8
547.61	939	19959.9
547.71	938.9	19989.7
547.81	938.8	19965.6
547.91	938.7	19968.4
548.01	938.6	19914.7
548.11	938.5	19964.6
548.21	938.4	19941.9
548.31	938.3	19960.1
548.41	938.2	20017.4
548.51	938.1	20060.9
548.61	938	20150.3
548.71	937.9	20158.9
548.81	937.8	20182.6
548.91	937.7	20273.1
549.01	937.6	20398.8
549.11	937.5	20497.8
549.21	937.4	20507.6
549.31	937.3	20631.8
549.41	937.2	20793.4
549.51	937.1	20995
549.61	937	20963.4
549.71	936.9	21028.5
549.81	936.8	20950.1
549.91	936.7	21012.2
550.01	936.6	21113.4
550.11	936.5	21080.1
550.21	936.4	21150
550.31	936.3	21111.8
550.41	936.2	21155.2
550.51	936.1	21160.3
550.61	936	21173.2
550.71	935.9	21431.5
550.81	935.8	21347.2
550.91	935.7	21385.6
551.01	935.6	21394.4
551.11	935.5	21363.6
551.21	935.4	21535.3
551.31	935.3	21686.9
551.41	935.2	21759.3
551.51	935.1	21997.1
551.61	935	22238.1
551.71	934.9	22546
551.81	934.8	22878.8
551.91	934.7	23194.9
552.01	934.6	23726.6
552.11	934.5	24357.9
552.21	934.4	25013.2
552.31	934.3	26011.8
552.41	934.2	27235.8
552.51	934.1	28663.9
552.61	934	30614
552.71	933.9	32841.3
552.81	933.8	35552.2
552.91	933.7	39330.9
553.01	933.6	44204.6
553.11	933.5	50940.5
553.21	933.4	59733.4
553.31	933.3	71618.8
553.41	933.2	87187.4
553.51	933.1	105512
553.61	933	126186
553.71	932.9	146257
553.81	932.8	163028
553.91	932.7	172441
554.01	932.6	172640
554.11	932.5	163262
554.21	932.4	146519
554.31	932.3	125593
554.41	932.2	104246
554.51	932.1	84991.9
554.61	932	69033.7
554.71	931.9	56699.3
554.81	931.8	47183.7
554.91	931.7	40152.2
555.01	931.6	34898.2
555.11	931.5	30886
555.21	931.4	27812.8
555.31	931.3	25534.7
555.41	931.2	23850.4
555.51	931.1	22358.1
555.61	931	21091.4
555.71	930.9	20055.6
555.81	930.8	19230.4
555.91	930.7	18543.5
556.01	930.6	17974.6
556.11	930.5	17490
556.21	930.4	16997.5
556.31	930.3	16561.4
556.41	930.2	16243.4
556.51	930.1	15917.4
556.61	930	15603.1
556.71	929.9	15362.9
556.81	929.8	15182.2
556.91	929.7	14948.1
557.01	929.6	14829
557.11	929.5	14727.2
557.21	929.4	14409.9
557.31	929.3	14357.7
557.41	929.2	14211.2
557.51	929.1	14134.8
557.61	929	14010.3
557.71	928.9	13928.3
557.81	928.8	13788
557.91	928.7	13769.8
558.01	928.6	13669.2
558.11	928.5	13586.2
558.21	928.4	13493.4
558.31	928.3	13421.5
558.41	928.2	13339.3
558.51	928.1	13303
558.61	928	13260.1
558.71	927.9	13272.2
558.81	927.8	13136.8
558.91	927.7	13180.2
559.01	927.6	13216.4
559.11	927.5	13215.7
559.21	927.4	13081.4
559.31	927.3	13053.3
559.41	927.2	13077.1
559.51	927.1	13017
559.61	927	13010.4
559.71	926.9	12967.8
559.81	926.8	12881.4
559.91	926.7	12877.8
560.01	926.6	12861.5
560.11	926.5	12837.1
560.21	926.4	12848.2
560.31	926.3	12756.3
560.41	926.2	12815.4
560.51	926.1	12701.3
560.61	926	12750
560.71	925.9	12740.9
560.81	925.8	12733.4
560.91	925.7	12680.1
561.01	925.6	12669.7
561.11	925.5	12642.6
561.21	925.4	12628.8
561.31	925.3	12568
561.41	925.2	12630.1
561.51	925.1	12625.5
561.61	925	12556.1
561.71	924.9	12569.3
561.81	924.8	12580.9
561.91	924.7	12616.5
562.01	924.6	12602.3
562.11	924.5	12510.9
562.21	924.4	12542.1
562.31	924.3	12519.4
562.41	924.2	12566.2
562.51	924.1	12579.2
562.61	924	12544.6
562.71	923.9	12491.4
562.81	923.8	12452.6
562.91	923.7	12500.2
563.01	923.6	12535.1
563.11	923.5	12505.6
563.21	923.4	12513.2
563.31	923.3	12518.4
563.41	923.2	12571.8
563.51	923.1	12550.7
563.61	923	12516.1
563.71	922.9	12577.2
563.81	922.8	12470
563.91	922.7	12466.9
564.01	922.6	12429.6
564.11	922.5	12493.3
564.21	922.4	12538.1
564.31	922.3	12517.8
564.41	922.2	12480.8
564.51	922.1	12482.5
564.61	922	12498.5
564.71	921.9	12538.5
564.81	921.8	12561.9
564.91	921.7	12508.1
565.01	921.6	12496.5
565.11	921.5	12474.7
565.21	921.4	12432.2
565.31	921.3	12400
565.41	921.2	12387.5
565.51	921.1	12441.2
565.61	921	12438.5
565.71	920.9	12437.2
565.81	920.8	12482.6
565.91	920.7	12414.2
566.01	920.6	12397.5
566.11	920.5	12425.8
566.21	920.4	12481.2
566.31	920.3	12444
566.41	920.2	12442.6
566.51	920.1	12446.4
566.61	920	12437.3