C:\Users\Mark\ownCloud\Muelheim Group\Projects\Gas phase background\EX318_CEC356_Au Ag Cu in N2_clean.vms
Cu2p
	Characteristic Energy eV	1486.61	Acquisition Time s	2.5
KE_Cu2p	BE_Cu2p	CPS_Cu2p
456.61	1030	4512.72
456.71	1029.9	4552.53
456.81	1029.8	4482.2
456.91	1029.7	4539.43
457.01	1029.6	4536.1
457.11	1029.5	4534.41
457.21	1029.4	4530.3
457.31	1029.3	4505.22
457.41	1029.2	4511.8
457.51	1029.1	4542.09
457.61	1029	4543.65
457.71	1028.9	4517.68
457.81	1028.8	4539.85
457.91	1028.7	4547.75
458.01	1028.6	4513.68
458.11	1028.5	4534.84
458.21	1028.4	4490.74
458.31	1028.3	4534.72
458.41	1028.2	4499.49
458.51	1028.1	4496.3
458.61	1028	4532.86
458.71	1027.9	4571.71
458.81	1027.8	4637.77
458.91	1027.7	4526.17
459.01	1027.6	4558.09
459.11	1027.5	4560.68
459.21	1027.4	4563.08
459.31	1027.3	4549.14
459.41	1027.2	4541.37
459.51	1027.1	4575.92
459.61	1027	4571.29
459.71	1026.9	4548.99
459.81	1026.8	4576.87
459.91	1026.7	4555.76
460.01	1026.6	4580.55
460.11	1026.5	4570.24
460.21	1026.4	4555.03
460.31	1026.3	4562.27
460.41	1026.2	4576.5
460.51	1026.1	4605.21
460.61	1026	4611
460.71	1025.9	4636.81
460.81	1025.8	4614.92
460.91	1025.7	4607.76
461.01	1025.6	4587.05
461.11	1025.5	4606.85
461.21	1025.4	4628.2
461.31	1025.3	4635.16
461.41	1025.2	4616.35
461.51	1025.1	4603.95
461.61	1025	4586.53
461.71	1024.9	4619.86
461.81	1024.8	4666.04
461.91	1024.7	4628.05
462.01	1024.6	4612.42
462.11	1024.5	4643.78
462.21	1024.4	4673.96
462.31	1024.3	4653.91
462.41	1024.2	4633.19
462.51	1024.1	4633.33
462.61	1024	4653
462.71	1023.9	4636.19
462.81	1023.8	4629.67
462.91	1023.7	4631.92
463.01	1023.6	4623.05
463.11	1023.5	4641.46
463.21	1023.4	4655.68
463.31	1023.3	4663.1
463.41	1023.2	4639.45
463.51	1023.1	4644.64
463.61	1023	4624.99
463.71	1022.9	4638.26
463.81	1022.8	4632.51
463.91	1022.7	4637.26
464.01	1022.6	4661.98
464.11	1022.5	4681.58
464.21	1022.4	4713.23
464.31	1022.3	4748.5
464.41	1022.2	4673.28
464.51	1022.1	4638
464.61	1022	4673.44
464.71	1021.9	4681.31
464.81	1021.8	4678.9
464.91	1021.7	4687.75
465.01	1021.6	4683.79
465.11	1021.5	4645.61
465.21	1021.4	4697.02
465.31	1021.3	4655.54
465.41	1021.2	4715.54
465.51	1021.1	4694.92
465.61	1021	4668.37
465.71	1020.9	4663.03
465.81	1020.8	4679.33
465.91	1020.7	4696.85
466.01	1020.6	4681.02
466.11	1020.5	4672.6
466.21	1020.4	4659.71
466.31	1020.3	4693.45
466.41	1020.2	4705.11
466.51	1020.1	4737.29
466.61	1020	4717.5
466.71	1019.9	4687.7
466.81	1019.8	4678.31
466.91	1019.7	4680.63
467.01	1019.6	4753.45
467.11	1019.5	4759.7
467.21	1019.4	4769.25
467.31	1019.3	4742.72
467.41	1019.2	4753.79
467.51	1019.1	4774.36
467.61	1019	4760.56
467.71	1018.9	4739.76
467.81	1018.8	4738.68
467.91	1018.7	4747.01
468.01	1018.6	4727.44
468.11	1018.5	4716.9
468.21	1018.4	4712.35
468.31	1018.3	4804.07
468.41	1018.2	4730.72
468.51	1018.1	4720.73
468.61	1018	4748.35
468.71	1017.9	4775.12
468.81	1017.8	4719.54
468.91	1017.7	4742.97
469.01	1017.6	4763.32
469.11	1017.5	4731.41
469.21	1017.4	4734.45
469.31	1017.3	4824.83
469.41	1017.2	4750.24
469.51	1017.1	4808.57
469.61	1017	4754.41
469.71	1016.9	4754.69
469.81	1016.8	4771.46
469.91	1016.7	4803.78
470.01	1016.6	4755.69
470.11	1016.5	4781.05
470.21	1016.4	4814.03
470.31	1016.3	4782.02
470.41	1016.2	4786.77
470.51	1016.1	4785.19
470.61	1016	4803.79
470.71	1015.9	4784.91
470.81	1015.8	4807.7
470.91	1015.7	4808.19
471.01	1015.6	4809.87
471.11	1015.5	4817.99
471.21	1015.4	4816.37
471.31	1015.3	4837.3
471.41	1015.2	4822.94
471.51	1015.1	4852.24
471.61	1015	4844.96
471.71	1014.9	4832.23
471.81	1014.8	4825.62
471.91	1014.7	4857.87
472.01	1014.6	4851.12
472.11	1014.5	4847.72
472.21	1014.4	4812.3
472.31	1014.3	4824.75
472.41	1014.2	4747.51
472.51	1014.1	4784.69
472.61	1014	4856.56
472.71	1013.9	4833.23
472.81	1013.8	4852.15
472.91	1013.7	4866.03
473.01	1013.6	4885.84
473.11	1013.5	4816.13
473.21	1013.4	4835.9
473.31	1013.3	4884.88
473.41	1013.2	4886.55
473.51	1013.1	4879.53
473.61	1013	4895.57
473.71	1012.9	4836.42
473.81	1012.8	4825.13
473.91	1012.7	4810.46
474.01	1012.6	4832.05
474.11	1012.5	4857.73
474.21	1012.4	4874.47
474.31	1012.3	4879.4
474.41	1012.2	4855.01
474.51	1012.1	4923.72
474.61	1012	4899.38
474.71	1011.9	4858.31
474.81	1011.8	4882.73
474.91	1011.7	4904.9
475.01	1011.6	4845.27
475.11	1011.5	4888.73
475.21	1011.4	4871.38
475.31	1011.3	4852.74
475.41	1011.2	4881.8
475.51	1011.1	4885.44
475.61	1011	4913.37
475.71	1010.9	4886.75
475.81	1010.8	4899.9
475.91	1010.7	4879.17
476.01	1010.6	4891.64
476.11	1010.5	4874.73
476.21	1010.4	4885.01
476.31	1010.3	4885.3
476.41	1010.2	4959.13
476.51	1010.1	4892.15
476.61	1010	4864.44
476.71	1009.9	4869.51
476.81	1009.8	4933.74
476.91	1009.7	4920.72
477.01	1009.6	4898.04
477.11	1009.5	4891.39
477.21	1009.4	4943.4
477.31	1009.3	4928.79
477.41	1009.2	4926.6
477.51	1009.1	4900.19
477.61	1009	4884.44
477.71	1008.9	4916.09
477.81	1008.8	4924.45
477.91	1008.7	4907.76
478.01	1008.6	4933.3
478.11	1008.5	4945.83
478.21	1008.4	4957.31
478.31	1008.3	4978.07
478.41	1008.2	4952.04
478.51	1008.1	4946.01
478.61	1008	4924.51
478.71	1007.9	4994.67
478.81	1007.8	4922.76
478.91	1007.7	4928.46
479.01	1007.6	4990.29
479.11	1007.5	4937.46
479.21	1007.4	4962.14
479.31	1007.3	4987.37
479.41	1007.2	5024.61
479.51	1007.1	5001.61
479.61	1007	4964.74
479.71	1006.9	4966.11
479.81	1006.8	4932.93
479.91	1006.7	4928.88
480.01	1006.6	4942.4
480.11	1006.5	4949.77
480.21	1006.4	5006.98
480.31	1006.3	4983.03
480.41	1006.2	4961.25
480.51	1006.1	4944.3
480.61	1006	4952.97
480.71	1005.9	4952.21
480.81	1005.8	4928.15
480.91	1005.7	4987.04
481.01	1005.6	5035.35
481.11	1005.5	4974.53
481.21	1005.4	5025.95
481.31	1005.3	4971.85
481.41	1005.2	4979.15
481.51	1005.1	5015.95
481.61	1005	5045.84
481.71	1004.9	5056.41
481.81	1004.8	5054.09
481.91	1004.7	5015.65
482.01	1004.6	5008.36
482.11	1004.5	5022.63
482.21	1004.4	5006.39
482.31	1004.3	5056.11
482.41	1004.2	5011.43
482.51	1004.1	5005.98
482.61	1004	5029.58
482.71	1003.9	5044.01
482.81	1003.8	5001.38
482.91	1003.7	5056.99
483.01	1003.6	5061.08
483.11	1003.5	5051.56
483.21	1003.4	5028.55
483.31	1003.3	5058.95
483.41	1003.2	5063.41
483.51	1003.1	5063.02
483.61	1003	5067.76
483.71	1002.9	5001.37
483.81	1002.8	5004.64
483.91	1002.7	5018.94
484.01	1002.6	5024.5
484.11	1002.5	5037.26
484.21	1002.4	5044.2
484.31	1002.3	5047.96
484.41	1002.2	5099.24
484.51	1002.1	5067.32
484.61	1002	5100.22
484.71	1001.9	5083.39
484.81	1001.8	5059.92
484.91	1001.7	5079.49
485.01	1001.6	5071.27
485.11	1001.5	5070.3
485.21	1001.4	5109.03
485.31	1001.3	5077.88
485.41	1001.2	5025.22
485.51	1001.1	5055.38
485.61	1001	5137.91
485.71	1000.9	5065.14
485.81	1000.8	5074.04
485.91	1000.7	5089.77
486.01	1000.6	5107.98
486.11	1000.5	5101.1
486.21	1000.4	5123.24
486.31	1000.3	5098.15
486.41	1000.2	5104.61
486.51	1000.1	5115.86
486.61	1000	5063.52
486.71	999.9	5112.79
486.81	999.8	5126.42
486.91	999.7	5117.14
487.01	999.6	5134.09
487.11	999.5	5131.65
487.21	999.4	5120.66
487.31	999.3	5063.79
487.41	999.2	5102.27
487.51	999.1	5086
487.61	999	5092.61
487.71	998.9	5087.22
487.81	998.8	5107.12
487.91	998.7	5060.57
488.01	998.6	5115.34
488.11	998.5	5165.56
488.21	998.4	5142.98
488.31	998.3	5131.18
488.41	998.2	5101.28
488.51	998.1	5088.62
488.61	998	5080.69
488.71	997.9	5152.19
488.81	997.8	5088.2
488.91	997.7	5091.39
489.01	997.6	5117.85
489.11	997.5	5106.08
489.21	997.4	5169.11
489.31	997.3	5204.53
489.41	997.2	5122.49
489.51	997.1	5183.05
489.61	997	5128.21
489.71	996.9	5156.69
489.81	996.8	5164.7
489.91	996.7	5163.59
490.01	996.6	5159.25
490.11	996.5	5081.3
490.21	996.4	5142.33
490.31	996.3	5141.01
490.41	996.2	5186.73
490.51	996.1	5149.5
490.61	996	5145.92
490.71	995.9	5156.38
490.81	995.8	5119.56
490.91	995.7	5190.61
491.01	995.6	5165.26
491.11	995.5	5148.55
491.21	995.4	5166.97
491.31	995.3	5181.1
491.41	995.2	5128.73
491.51	995.1	5194.24
491.61	995	5196.64
491.71	994.9	5167.41
491.81	994.8	5182.51
491.91	994.7	5180.09
492.01	994.6	5165.01
492.11	994.5	5204.19
492.21	994.4	5173.61
492.31	994.3	5217.56
492.41	994.2	5187.33
492.51	994.1	5146.65
492.61	994	5196.09
492.71	993.9	5219.98
492.81	993.8	5169.95
492.91	993.7	5211.37
493.01	993.6	5263.61
493.11	993.5	5199.22
493.21	993.4	5186.63
493.31	993.3	5212.5
493.41	993.2	5213
493.51	993.1	5258.73
493.61	993	5213.92
493.71	992.9	5187.83
493.81	992.8	5154.2
493.91	992.7	5206.45
494.01	992.6	5220.33
494.11	992.5	5213.46
494.21	992.4	5174.8
494.31	992.3	5198.48
494.41	992.2	5223.38
494.51	992.1	5262.85
494.61	992	5263.18
494.71	991.9	5204.05
494.81	991.8	5231.24
494.91	991.7	5219.61
495.01	991.6	5194
495.11	991.5	5189.17
495.21	991.4	5228.89
495.31	991.3	5218.79
495.41	991.2	5179.52
495.51	991.1	5243.27
495.61	991	5225.23
495.71	990.9	5251.94
495.81	990.8	5214.92
495.91	990.7	5194.92
496.01	990.6	5247.81
496.11	990.5	5260.28
496.21	990.4	5293.97
496.31	990.3	5244.31
496.41	990.2	5183.82
496.51	990.1	5228.43
496.61	990	5274.08
496.71	989.9	5247.65
496.81	989.8	5235.84
496.91	989.7	5218.01
497.01	989.6	5238.41
497.11	989.5	5233.95
497.21	989.4	5258.53
497.31	989.3	5254.7
497.41	989.2	5274.48
497.51	989.1	5227.8
497.61	989	5214.43
497.71	988.9	5257.78
497.81	988.8	5287.82
497.91	988.7	5229.4
498.01	988.6	5259.08
498.11	988.5	5275.62
498.21	988.4	5253.74
498.31	988.3	5234.87
498.41	988.2	5245.55
498.51	988.1	5259.34
498.61	988	5290.08
498.71	987.9	5262.58
498.81	987.8	5318.39
498.91	987.7	5282.65
499.01	987.6	5250.33
499.11	987.5	5269.91
499.21	987.4	5249.29
499.31	987.3	5272.66
499.41	987.2	5243.03
499.51	987.1	5251.46
499.61	987	5302.72
499.71	986.9	5304.71
499.81	986.8	5242.71
499.91	986.7	5280.51
500.01	986.6	5269.39
500.11	986.5	5297.87
500.21	986.4	5333.53
500.31	986.3	5339.55
500.41	986.2	5312.81
500.51	986.1	5344.32
500.61	986	5334.77
500.71	985.9	5273.38
500.81	985.8	5263.31
500.91	985.7	5292.83
501.01	985.6	5296.05
501.11	985.5	5294.99
501.21	985.4	5319.45
501.31	985.3	5323.4
501.41	985.2	5301.91
501.51	985.1	5308.41
501.61	985	5299.92
501.71	984.9	5325.28
501.81	984.8	5286.04
501.91	984.7	5324.39
502.01	984.6	5304.38
502.11	984.5	5304.13
502.21	984.4	5327.06
502.31	984.3	5316.85
502.41	984.2	5325
502.51	984.1	5351.62
502.61	984	5304.81
502.71	983.9	5290.46
502.81	983.8	5328.11
502.91	983.7	5323.8
503.01	983.6	5335.83
503.11	983.5	5384.02
503.21	983.4	5336.83
503.31	983.3	5304.78
503.41	983.2	5375.93
503.51	983.1	5329.52
503.61	983	5389.04
503.71	982.9	5373.42
503.81	982.8	5349.18
503.91	982.7	5335.67
504.01	982.6	5331.83
504.11	982.5	5339.17
504.21	982.4	5330.12
504.31	982.3	5330.68
504.41	982.2	5367.02
504.51	982.1	5422.33
504.61	982	5375.86
504.71	981.9	5355.89
504.81	981.8	5358.23
504.91	981.7	5344.11
505.01	981.6	5349.4
505.11	981.5	5384.59
505.21	981.4	5332.91
505.31	981.3	5356.02
505.41	981.2	5340.65
505.51	981.1	5378.33
505.61	981	5350.48
505.71	980.9	5381.07
505.81	980.8	5370.91
505.91	980.7	5343.74
506.01	980.6	5363.31
506.11	980.5	5308.93
506.21	980.4	5406.17
506.31	980.3	5388.04
506.41	980.2	5372.51
506.51	980.1	5387.77
506.61	980	5401.06
506.71	979.9	5403.01
506.81	979.8	5364.94
506.91	979.7	5409.51
507.01	979.6	5408.99
507.11	979.5	5402.88
507.21	979.4	5429
507.31	979.3	5368.17
507.41	979.2	5434.89
507.51	979.1	5395.67
507.61	979	5381.27
507.71	978.9	5407.42
507.81	978.8	5397.81
507.91	978.7	5365.14
508.01	978.6	5347.79
508.11	978.5	5375.56
508.21	978.4	5410.04
508.31	978.3	5387.22
508.41	978.2	5340.5
508.51	978.1	5365.71
508.61	978	5442.28
508.71	977.9	5381.97
508.81	977.8	5303.33
508.91	977.7	5323.2
509.01	977.6	5337.66
509.11	977.5	5292.83
509.21	977.4	5358.89
509.31	977.3	5369.33
509.41	977.2	5334.84
509.51	977.1	5365.62
509.61	977	5380.29
509.71	976.9	5330.6
509.81	976.8	5336.62
509.91	976.7	5410.1
510.01	976.6	5420.22
510.11	976.5	5335.44
510.21	976.4	5344.59
510.31	976.3	5353.42
510.41	976.2	5347.83
510.51	976.1	5335.3
510.61	976	5313.49
510.71	975.9	5333.27
510.81	975.8	5328.42
510.91	975.7	5355.27
511.01	975.6	5348.16
511.11	975.5	5354.29
511.21	975.4	5375.63
511.31	975.3	5305
511.41	975.2	5336.14
511.51	975.1	5335.44
511.61	975	5349.45
511.71	974.9	5374.13
511.81	974.8	5403.05
511.91	974.7	5446.59
512.01	974.6	5362.21
512.11	974.5	5346.29
512.21	974.4	5361.82
512.31	974.3	5329.81
512.41	974.2	5333.87
512.51	974.1	5325.79
512.61	974	5357.85
512.71	973.9	5373.49
512.81	973.8	5369.51
512.91	973.7	5404.25
513.01	973.6	5393.72
513.11	973.5	5423.45
513.21	973.4	5367.53
513.31	973.3	5335.93
513.41	973.2	5350.03
513.51	973.1	5400.32
513.61	973	5387.66
513.71	972.9	5385.81
513.81	972.8	5351
513.91	972.7	5349.93
514.01	972.6	5393.34
514.11	972.5	5388.61
514.21	972.4	5382.08
514.31	972.3	5407.85
514.41	972.2	5375.66
514.51	972.1	5375.91
514.61	972	5370.4
514.71	971.9	5390.69
514.81	971.8	5377.7
514.91	971.7	5404.17
515.01	971.6	5407.61
515.11	971.5	5389.22
515.21	971.4	5382.45
515.31	971.3	5402.31
515.41	971.2	5425.11
515.51	971.1	5424.41
515.61	971	5354.65
515.71	970.9	5396.28
515.81	970.8	5434.24
515.91	970.7	5410.99
516.01	970.6	5371.85
516.11	970.5	5412.14
516.21	970.4	5406.03
516.31	970.3	5385.1
516.41	970.2	5401.19
516.51	970.1	5440.43
516.61	970	5434.92
516.71	969.9	5417.2
516.81	969.8	5458.18
516.91	969.7	5447.82
517.01	969.6	5477.43
517.11	969.5	5429.78
517.21	969.4	5468.22
517.31	969.3	5495.75
517.41	969.2	5491.54
517.51	969.1	5470.6
517.61	969	5502.06
517.71	968.9	5483.16
517.81	968.8	5511.79
517.91	968.7	5440.29
518.01	968.6	5456.62
518.11	968.5	5476.27
518.21	968.4	5488.01
518.31	968.3	5492.35
518.41	968.2	5489
518.51	968.1	5492.99
518.61	968	5492.55
518.71	967.9	5479.27
518.81	967.8	5505.18
518.91	967.7	5517.17
519.01	967.6	5529.57
519.11	967.5	5514.44
519.21	967.4	5545.46
519.31	967.3	5593.64
519.41	967.2	5606.19
519.51	967.1	5599.81
519.61	967	5640.19
519.71	966.9	5663.15
519.81	966.8	5696.75
519.91	966.7	5719.54
520.01	966.6	5671.32
520.11	966.5	5701.53
520.21	966.4	5742.62
520.31	966.3	5721.63
520.41	966.2	5742.58
520.51	966.1	5720.68
520.61	966	5676.37
520.71	965.9	5785.44
520.81	965.8	5784.28
520.91	965.7	5770.6
521.01	965.6	5759.37
521.11	965.5	5750
521.21	965.4	5760.61
521.31	965.3	5762.07
521.41	965.2	5617.24
521.51	965.1	5617.4
521.61	965	5568.24
521.71	964.9	5518.67
521.81	964.8	5519.69
521.91	964.7	5464.77
522.01	964.6	5398.03
522.11	964.5	5419.58
522.21	964.4	5352.81
522.31	964.3	5287.87
522.41	964.2	5361.47
522.51	964.1	5264.14
522.61	964	5240.73
522.71	963.9	5235.69
522.81	963.8	5227.81
522.91	963.7	5234.73
523.01	963.6	5201.81
523.11	963.5	5127.56
523.21	963.4	5115.43
523.31	963.3	5126.79
523.41	963.2	5093.58
523.51	963.1	5114.45
523.61	963	5150.8
523.71	962.9	5137.81
523.81	962.8	5093.03
523.91	962.7	5132.97
524.01	962.6	5127.44
524.11	962.5	5081.85
524.21	962.4	5019.34
524.31	962.3	5046.31
524.41	962.2	5112.32
524.51	962.1	5105.17
524.61	962	5122.97
524.71	961.9	5102.48
524.81	961.8	5051.53
524.91	961.7	5046.1
525.01	961.6	5043.16
525.11	961.5	5059.44
525.21	961.4	5076.51
525.31	961.3	5052.03
525.41	961.2	5054.59
525.51	961.1	5061.69
525.61	961	5073.18
525.71	960.9	5031.21
525.81	960.8	5008.85
525.91	960.7	5019.99
526.01	960.6	5052.61
526.11	960.5	5003.93
526.21	960.4	4982.99
526.31	960.3	5027.02
526.41	960.2	5055.24
526.51	960.1	5020.77
526.61	960	5034.53
526.71	959.9	5071.68
526.81	959.8	5029.59
526.91	959.7	5089.7
527.01	959.6	5073.27
527.11	959.5	5009.08
527.21	959.4	5059.12
527.31	959.3	5044.19
527.41	959.2	5006.22
527.51	959.1	4994
527.61	959	5006.09
527.71	958.9	5022.62
527.81	958.8	5008.57
527.91	958.7	4998.29
528.01	958.6	4981.29
528.11	958.5	4975
528.21	958.4	4967.04
528.31	958.3	4986.16
528.41	958.2	4914.93
528.51	958.1	4923.47
528.61	958	4945.06
528.71	957.9	4929.87
528.81	957.8	4932.22
528.91	957.7	4892.1
529.01	957.6	4910.7
529.11	957.5	4922.48
529.21	957.4	4898.62
529.31	957.3	4874.57
529.41	957.2	4884.38
529.51	957.1	4869.26
529.61	957	4867.66
529.71	956.9	4872.17
529.81	956.8	4910.68
529.91	956.7	4920.82
530.01	956.6	4969.62
530.11	956.5	4975.65
530.21	956.4	4981.52
530.31	956.3	4965.58
530.41	956.2	4943.53
530.51	956.1	4937.3
530.61	956	4983.42
530.71	955.9	4965.52
530.81	955.8	5013.89
530.91	955.7	4999.97
531.01	955.6	5006.38
531.11	955.5	4987.03
531.21	955.4	5016.25
531.31	955.3	5057.92
531.41	955.2	5060.98
531.51	955.1	5053.95
531.61	955	5094.08
531.71	954.9	5095.48
531.81	954.8	5055.88
531.91	954.7	5135.61
532.01	954.6	5172.24
532.11	954.5	5228.44
532.21	954.4	5231.27
532.31	954.3	5289.08
532.41	954.2	5348.18
532.51	954.1	5414.49
532.61	954	5537.49
532.71	953.9	5654.27
532.81	953.8	5679.47
532.91	953.7	5806.64
533.01	953.6	5948.57
533.11	953.5	6122.09
533.21	953.4	6269.38
533.31	953.3	6569.31
533.41	953.2	6773.26
533.51	953.1	7021.01
533.61	953	7298.67
533.71	952.9	7536.17
533.81	952.8	7820.12
533.91	952.7	7980.25
534.01	952.6	8163.76
534.11	952.5	8132.97
534.21	952.4	8053.18
534.31	952.3	7913.65
534.41	952.2	7720.45
534.51	952.1	7436.61
534.61	952	7101.74
534.71	951.9	6785.75
534.81	951.8	6562.95
534.91	951.7	6311.33
535.01	951.6	6072.68
535.11	951.5	5866.94
535.21	951.4	5722.57
535.31	951.3	5638.33
535.41	951.2	5514.48
535.51	951.1	5480.69
535.61	951	5421.49
535.71	950.9	5308.7
535.81	950.8	5256.64
535.91	950.7	5209.63
536.01	950.6	5145.91
536.11	950.5	5127.85
536.21	950.4	5063.38
536.31	950.3	5105.21
536.41	950.2	5066.71
536.51	950.1	5061.8
536.61	950	5069.39
536.71	949.9	5021.7
536.81	949.8	5040.94
536.91	949.7	4950.45
537.01	949.6	4973.53
537.11	949.5	5014.28
537.21	949.4	4983.29
537.31	949.3	4980.55
537.41	949.2	4996.97
537.51	949.1	4994.92
537.61	949	5023.52
537.71	948.9	5004.42
537.81	948.8	4967.86
537.91	948.7	5012.67
538.01	948.6	5059.19
538.11	948.5	4986.34
538.21	948.4	4953.49
538.31	948.3	4960.21
538.41	948.2	4917
538.51	948.1	4904.54
538.61	948	4872.86
538.71	947.9	4855.98
538.81	947.8	4860
538.91	947.7	4851.44
539.01	947.6	4927.22
539.11	947.5	5009.04
539.21	947.4	5070.98
539.31	947.3	5098.91
539.41	947.2	5170.95
539.51	947.1	5284.77
539.61	947	5353.41
539.71	946.9	5393.76
539.81	946.8	5465.61
539.91	946.7	5473.29
540.01	946.6	5462.51
540.11	946.5	5484
540.21	946.4	5503.92
540.31	946.3	5496.45
540.41	946.2	5529.85
540.51	946.1	5624.18
540.61	946	5638.63
540.71	945.9	5684.94
540.81	945.8	5734.89
540.91	945.7	5792.93
541.01	945.6	5713.98
541.11	945.5	5644.7
541.21	945.4	5444.77
541.31	945.3	5252
541.41	945.2	5072.67
541.51	945.1	4891.24
541.61	945	4722.86
541.71	944.9	4544.41
541.81	944.8	4413.87
541.91	944.7	4338.42
542.01	944.6	4326.85
542.11	944.5	4229.14
542.21	944.4	4155.11
542.31	944.3	4099.88
542.41	944.2	4099.84
542.51	944.1	4054.69
542.61	944	4049
542.71	943.9	4035.54
542.81	943.8	4027.05
542.91	943.7	4052.64
543.01	943.6	4033.16
543.11	943.5	3952.78
543.21	943.4	3979.61
543.31	943.3	3985.52
543.41	943.2	3971.53
543.51	943.1	4009.65
543.61	943	3959.5
543.71	942.9	3925.16
543.81	942.8	3904.37
543.91	942.7	3938.6
544.01	942.6	3956.31
544.11	942.5	3927.34
544.21	942.4	3963.5
544.31	942.3	3923.37
544.41	942.2	3921.86
544.51	942.1	3944.73
544.61	942	3888.19
544.71	941.9	3872.68
544.81	941.8	3859.24
544.91	941.7	3839.69
545.01	941.6	3862.48
545.11	941.5	3820.53
545.21	941.4	3830.16
545.31	941.3	3802.68
545.41	941.2	3776.87
545.51	941.1	3751.09
545.61	941	3762.12
545.71	940.9	3735.97
545.81	940.8	3763.45
545.91	940.7	3739.3
546.01	940.6	3779.66
546.11	940.5	3748.29
546.21	940.4	3736.65
546.31	940.3	3725.56
546.41	940.2	3715.7
546.51	940.1	3727.01
546.61	940	3750.42
546.71	939.9	3719.64
546.81	939.8	3776.11
546.91	939.7	3751.27
547.01	939.6	3734.16
547.11	939.5	3767.46
547.21	939.4	3751.78
547.31	939.3	3752.47
547.41	939.2	3754.31
547.51	939.1	3783.54
547.61	939	3736.62
547.71	938.9	3724.75
547.81	938.8	3744.33
547.91	938.7	3740.03
548.01	938.6	3738.95
548.11	938.5	3762.79
548.21	938.4	3769.85
548.31	938.3	3749.58
548.41	938.2	3763.4
548.51	938.1	3789.13
548.61	938	3744.82
548.71	937.9	3752.89
548.81	937.8	3801.8
548.91	937.7	3797.49
549.01	937.6	3772.18
549.11	937.5	3829.49
549.21	937.4	3824.32
549.31	937.3	3835.92
549.41	937.2	3828.88
549.51	937.1	3861.86
549.61	937	3865.29
549.71	936.9	3857.61
549.81	936.8	3869.12
549.91	936.7	3882.16
550.01	936.6	3889.1
550.11	936.5	3868.58
550.21	936.4	3864.24
550.31	936.3	3881.61
550.41	936.2	3906.05
550.51	936.1	3935.85
550.61	936	3969.68
550.71	935.9	3888.59
550.81	935.8	3912.62
550.91	935.7	3973.85
551.01	935.6	3975.41
551.11	935.5	3954.71
551.21	935.4	3958.78
551.31	935.3	3926.02
551.41	935.2	3968.35
551.51	935.1	4040.25
551.61	935	4056.47
551.71	934.9	4077.75
551.81	934.8	4112.5
551.91	934.7	4147.11
552.01	934.6	4214.27
552.11	934.5	4285.92
552.21	934.4	4316.05
552.31	934.3	4377.88
552.41	934.2	4489.71
552.51	934.1	4604.29
552.61	934	4741.9
552.71	933.9	4988.79
552.81	933.8	5245.39
552.91	933.7	5566.01
553.01	933.6	6030.04
553.11	933.5	6579.36
553.21	933.4	7331.01
553.31	933.3	8314.66
553.41	933.2	9519.21
553.51	933.1	10882.8
553.61	933	12334.7
553.71	932.9	13724.8
553.81	932.8	14637.5
553.91	932.7	15120.7
554.01	932.6	14838.4
554.11	932.5	13897.2
554.21	932.4	12547.2
554.31	932.3	10874.6
554.41	932.2	9369.01
554.51	932.1	8068.69
554.61	932	7015.07
554.71	931.9	6189.17
554.81	931.8	5559.68
554.91	931.7	5135.3
555.01	931.6	4787.81
555.11	931.5	4481.71
555.21	931.4	4375.62
555.31	931.3	4194.72
555.41	931.2	4028.51
555.51	931.1	3929.72
555.61	931	3868.87
555.71	930.9	3788.8
555.81	930.8	3781.16
555.91	930.7	3748.74
556.01	930.6	3644.43
556.11	930.5	3623.88
556.21	930.4	3585.63
556.31	930.3	3593.26
556.41	930.2	3554.74
556.51	930.1	3500.52
556.61	930	3492.1
556.71	929.9	3484.78
556.81	929.8	3450.77
556.91	929.7	3499.59
557.01	929.6	3439.63
557.11	929.5	3441.14
557.21	929.4	3440.12
557.31	929.3	3444.29
557.41	929.2	3417.65
557.51	929.1	3428
557.61	929	3409.97
557.71	928.9	3358.08
557.81	928.8	3403.65
557.91	928.7	3397.98
558.01	928.6	3400.19
558.11	928.5	3406.8
558.21	928.4	3379.22
558.31	928.3	3374.22
558.41	928.2	3401.68
558.51	928.1	3358.61
558.61	928	3396.06
558.71	927.9	3361.85
558.81	927.8	3351.64
558.91	927.7	3406.96
559.01	927.6	3397.59
559.11	927.5	3350.43
559.21	927.4	3340.72
559.31	927.3	3380.94
559.41	927.2	3401.49
559.51	927.1	3382.81
559.61	927	3359.85
559.71	926.9	3368.27
559.81	926.8	3334.69
559.91	926.7	3358.54
560.01	926.6	3374.28
560.11	926.5	3358.41
560.21	926.4	3357.87
560.31	926.3	3381.1
560.41	926.2	3366.97
560.51	926.1	3350.22
560.61	926	3377.45
560.71	925.9	3334.72
560.81	925.8	3340.57
560.91	925.7	3383.82
561.01	925.6	3374.32
561.11	925.5	3318.98
561.21	925.4	3350.25
561.31	925.3	3332.8
561.41	925.2	3353.62
561.51	925.1	3359.74
561.61	925	3392.91
561.71	924.9	3373.29
561.81	924.8	3361.6
561.91	924.7	3339.65
562.01	924.6	3364.13
562.11	924.5	3334.64
562.21	924.4	3349.08
562.31	924.3	3369.59
562.41	924.2	3333.67
562.51	924.1	3334.82
562.61	924	3333.75
562.71	923.9	3377.88
562.81	923.8	3410.34
562.91	923.7	3386.59
563.01	923.6	3362.39
563.11	923.5	3374.24
563.21	923.4	3361.83
563.31	923.3	3344.66
563.41	923.2	3343.87
563.51	923.1	3374.88
563.61	923	3368.05
563.71	922.9	3393.89
563.81	922.8	3348.31
563.91	922.7	3383.73
564.01	922.6	3370.03
564.11	922.5	3388.38
564.21	922.4	3376.68
564.31	922.3	3384.51
564.41	922.2	3374.44
564.51	922.1	3376.81
564.61	922	3378.1
564.71	921.9	3352.43
564.81	921.8	3342.49
564.91	921.7	3328.77
565.01	921.6	3348.88
565.11	921.5	3339.15
565.21	921.4	3386.3
565.31	921.3	3391.82
565.41	921.2	3379.14
565.51	921.1	3384.2
565.61	921	3392.46
565.71	920.9	3373.53
565.81	920.8	3383.19
565.91	920.7	3400.6
566.01	920.6	3393.63
566.11	920.5	3384.68
566.21	920.4	3373.66
566.31	920.3	3366.84
566.41	920.2	3362
566.51	920.1	3389.57
566.61	920	3419.16