C:\Users\Mark\ownCloud\Muelheim Group\Projects\Gas phase background\EX340_CEC356_Ag N2 LargeArea.vms
Survey
	Characteristic Energy eV	1486.61	Acquisition Time s	2.9
KE_Survey	BE_Survey	CPS_Survey
286.61	1200	1250.64
287.11	1199.5	1213.73
287.61	1199	1239.97
288.11	1198.5	1236.42
288.61	1198	1252.05
289.11	1197.5	1231.55
289.61	1197	1249
290.11	1196.5	1261.67
290.61	1196	1256.25
291.11	1195.5	1252.35
291.61	1195	1249.28
292.11	1194.5	1264.82
292.61	1194	1241.24
293.11	1193.5	1273.46
293.61	1193	1260.33
294.11	1192.5	1251.13
294.61	1192	1255.48
295.11	1191.5	1246.92
295.61	1191	1243.33
296.11	1190.5	1269.59
296.61	1190	1244.89
297.11	1189.5	1221.83
297.61	1189	1235.42
298.11	1188.5	1288.48
298.61	1188	1253.35
299.11	1187.5	1251.99
299.61	1187	1274.58
300.11	1186.5	1254.1
300.61	1186	1275.18
301.11	1185.5	1297.64
301.61	1185	1282.73
302.11	1184.5	1292.03
302.61	1184	1259.25
303.11	1183.5	1256.35
303.61	1183	1288.51
304.11	1182.5	1268.05
304.61	1182	1262.78
305.11	1181.5	1255.25
305.61	1181	1302.59
306.11	1180.5	1289.4
306.61	1180	1282.8
307.11	1179.5	1276.4
307.61	1179	1295.86
308.11	1178.5	1304.21
308.61	1178	1270.51
309.11	1177.5	1270.7
309.61	1177	1253.32
310.11	1176.5	1284.53
310.61	1176	1303.69
311.11	1175.5	1267.55
311.61	1175	1275.47
312.11	1174.5	1268.08
312.61	1174	1248.5
313.11	1173.5	1263.05
313.61	1173	1256.14
314.11	1172.5	1240.82
314.61	1172	1255.45
315.11	1171.5	1278.67
315.61	1171	1240.78
316.11	1170.5	1271.06
316.61	1170	1302.48
317.11	1169.5	1303.51
317.61	1169	1284.73
318.11	1168.5	1290.24
318.61	1168	1331.35
319.11	1167.5	1316.33
319.61	1167	1306.63
320.11	1166.5	1297.95
320.61	1166	1292.71
321.11	1165.5	1290.91
321.61	1165	1314.74
322.11	1164.5	1324.85
322.61	1164	1302.01
323.11	1163.5	1330.93
323.61	1163	1349.24
324.11	1162.5	1352.76
324.61	1162	1329.87
325.11	1161.5	1352.33
325.61	1161	1368.51
326.11	1160.5	1337.08
326.61	1160	1363.36
327.11	1159.5	1332.39
327.61	1159	1340.47
328.11	1158.5	1403.35
328.61	1158	1326.7
329.11	1157.5	1332.93
329.61	1157	1353.03
330.11	1156.5	1363.53
330.61	1156	1356.1
331.11	1155.5	1374.16
331.61	1155	1375.42
332.11	1154.5	1351.41
332.61	1154	1390.85
333.11	1153.5	1368.99
333.61	1153	1364.48
334.11	1152.5	1388.51
334.61	1152	1363.59
335.11	1151.5	1387
335.61	1151	1399.64
336.11	1150.5	1402.97
336.61	1150	1387.75
337.11	1149.5	1374.2
337.61	1149	1418.28
338.11	1148.5	1425.7
338.61	1148	1408.18
339.11	1147.5	1374.71
339.61	1147	1355.49
340.11	1146.5	1340.47
340.61	1146	1378.87
341.11	1145.5	1388.45
341.61	1145	1401.85
342.11	1144.5	1361.32
342.61	1144	1373.65
343.11	1143.5	1389.62
343.61	1143	1353.67
344.11	1142.5	1367.1
344.61	1142	1355.17
345.11	1141.5	1350.47
345.61	1141	1349.27
346.11	1140.5	1352
346.61	1140	1339.44
347.11	1139.5	1359.84
347.61	1139	1348.61
348.11	1138.5	1376.16
348.61	1138	1369.05
349.11	1137.5	1362.73
349.61	1137	1404.73
350.11	1136.5	1418.65
350.61	1136	1445.35
351.11	1135.5	1547.26
351.61	1135	1617.08
352.11	1134.5	1603.81
352.61	1134	1542.01
353.11	1133.5	1514.3
353.61	1133	1542.87
354.11	1132.5	1454.01
354.61	1132	1401.02
355.11	1131.5	1381.57
355.61	1131	1355.87
356.11	1130.5	1351.88
356.61	1130	1361.34
357.11	1129.5	1443.26
357.61	1129	1525
358.11	1128.5	1481.89
358.61	1128	1385.18
359.11	1127.5	1331.65
359.61	1127	1272.6
360.11	1126.5	1207.61
360.61	1126	1217.74
361.11	1125.5	1185.04
361.61	1125	1202.54
362.11	1124.5	1196.57
362.61	1124	1210.59
363.11	1123.5	1248.42
363.61	1123	1229.67
364.11	1122.5	1259.47
364.61	1122	1264.14
365.11	1121.5	1239.94
365.61	1121	1260.23
366.11	1120.5	1275.86
366.61	1120	1313.31
367.11	1119.5	1293.09
367.61	1119	1295.6
368.11	1118.5	1308.28
368.61	1118	1246.81
369.11	1117.5	1222.17
369.61	1117	1197.62
370.11	1116.5	1194.4
370.61	1116	1209.34
371.11	1115.5	1185.47
371.61	1115	1167.08
372.11	1114.5	1150.94
372.61	1114	1154.17
373.11	1113.5	1198.51
373.61	1113	1168.46
374.11	1112.5	1150.84
374.61	1112	1148.95
375.11	1111.5	1137.76
375.61	1111	1155.1
376.11	1110.5	1201.5
376.61	1110	1185.1
377.11	1109.5	1189.04
377.61	1109	1182.63
378.11	1108.5	1184.15
378.61	1108	1197.81
379.11	1107.5	1172.15
379.61	1107	1238.74
380.11	1106.5	1192.67
380.61	1106	1177.82
381.11	1105.5	1202.43
381.61	1105	1181.16
382.11	1104.5	1196.61
382.61	1104	1225.47
383.11	1103.5	1213.39
383.61	1103	1211.29
384.11	1102.5	1182.52
384.61	1102	1196.21
385.11	1101.5	1226.56
385.61	1101	1191.12
386.11	1100.5	1203.49
386.61	1100	1222.56
387.11	1099.5	1230.47
387.61	1099	1227.25
388.11	1098.5	1237.21
388.61	1098	1234.64
389.11	1097.5	1240.28
389.61	1097	1241.65
390.11	1096.5	1261.84
390.61	1096	1221.95
391.11	1095.5	1234.86
391.61	1095	1218.63
392.11	1094.5	1238.66
392.61	1094	1257.61
393.11	1093.5	1244.91
393.61	1093	1239.47
394.11	1092.5	1243.3
394.61	1092	1255.62
395.11	1091.5	1274.72
395.61	1091	1268.38
396.11	1090.5	1257.21
396.61	1090	1276.52
397.11	1089.5	1301.53
397.61	1089	1303.08
398.11	1088.5	1292.14
398.61	1088	1272.25
399.11	1087.5	1276.98
399.61	1087	1293.23
400.11	1086.5	1275.65
400.61	1086	1276.67
401.11	1085.5	1300.46
401.61	1085	1320.23
402.11	1084.5	1298.05
402.61	1084	1280.72
403.11	1083.5	1293.94
403.61	1083	1340.64
404.11	1082.5	1273.95
404.61	1082	1312.19
405.11	1081.5	1318.22
405.61	1081	1313.67
406.11	1080.5	1322.27
406.61	1080	1328.97
407.11	1079.5	1339.1
407.61	1079	1311.27
408.11	1078.5	1329.63
408.61	1078	1330.21
409.11	1077.5	1371.9
409.61	1077	1339.99
410.11	1076.5	1325.3
410.61	1076	1348.17
411.11	1075.5	1349.41
411.61	1075	1335.55
412.11	1074.5	1354.73
412.61	1074	1371.42
413.11	1073.5	1399.27
413.61	1073	1384.7
414.11	1072.5	1374.04
414.61	1072	1372.73
415.11	1071.5	1360.12
415.61	1071	1351
416.11	1070.5	1381.36
416.61	1070	1379.43
417.11	1069.5	1378.09
417.61	1069	1387.29
418.11	1068.5	1371.16
418.61	1068	1393.98
419.11	1067.5	1390.74
419.61	1067	1396.95
420.11	1066.5	1402.02
420.61	1066	1389.21
421.11	1065.5	1410.04
421.61	1065	1397.77
422.11	1064.5	1459.94
422.61	1064	1434.41
423.11	1063.5	1425.72
423.61	1063	1411.16
424.11	1062.5	1389.17
424.61	1062	1438.79
425.11	1061.5	1436.58
425.61	1061	1429.86
426.11	1060.5	1453.24
426.61	1060	1455.49
427.11	1059.5	1438.46
427.61	1059	1410.49
428.11	1058.5	1420.28
428.61	1058	1451.81
429.11	1057.5	1441.56
429.61	1057	1439.25
430.11	1056.5	1459.41
430.61	1056	1450.55
431.11	1055.5	1445.6
431.61	1055	1427.19
432.11	1054.5	1442.91
432.61	1054	1440.04
433.11	1053.5	1461.7
433.61	1053	1478.46
434.11	1052.5	1426.55
434.61	1052	1476.2
435.11	1051.5	1501.48
435.61	1051	1481.73
436.11	1050.5	1469.86
436.61	1050	1477.56
437.11	1049.5	1477.84
437.61	1049	1470.77
438.11	1048.5	1492.24
438.61	1048	1470.73
439.11	1047.5	1480.69
439.61	1047	1495.34
440.11	1046.5	1503.03
440.61	1046	1501.5
441.11	1045.5	1515.25
441.61	1045	1524.21
442.11	1044.5	1511.09
442.61	1044	1508.87
443.11	1043.5	1517.71
443.61	1043	1528.18
444.11	1042.5	1511.5
444.61	1042	1509.81
445.11	1041.5	1546.64
445.61	1041	1548.54
446.11	1040.5	1517.75
446.61	1040	1567.46
447.11	1039.5	1529.82
447.61	1039	1536.6
448.11	1038.5	1536
448.61	1038	1573.26
449.11	1037.5	1589.65
449.61	1037	1585.95
450.11	1036.5	1513.07
450.61	1036	1568.54
451.11	1035.5	1573.55
451.61	1035	1589.43
452.11	1034.5	1567.39
452.61	1034	1572.46
453.11	1033.5	1567.07
453.61	1033	1570.21
454.11	1032.5	1593.23
454.61	1032	1604.1
455.11	1031.5	1600.3
455.61	1031	1589.65
456.11	1030.5	1585.37
456.61	1030	1603.3
457.11	1029.5	1585.78
457.61	1029	1616.33
458.11	1028.5	1589.11
458.61	1028	1606.39
459.11	1027.5	1638.45
459.61	1027	1601.17
460.11	1026.5	1645.07
460.61	1026	1640.22
461.11	1025.5	1655.7
461.61	1025	1662.33
462.11	1024.5	1634.85
462.61	1024	1659.86
463.11	1023.5	1657.38
463.61	1023	1653.91
464.11	1022.5	1638.28
464.61	1022	1657.2
465.11	1021.5	1635.13
465.61	1021	1682.5
466.11	1020.5	1649.71
466.61	1020	1626.03
467.11	1019.5	1675.07
467.61	1019	1656.07
468.11	1018.5	1692.81
468.61	1018	1701.11
469.11	1017.5	1705.92
469.61	1017	1661.77
470.11	1016.5	1670.34
470.61	1016	1635.72
471.11	1015.5	1644.44
471.61	1015	1698.44
472.11	1014.5	1742.81
472.61	1014	1737.42
473.11	1013.5	1720.85
473.61	1013	1686.06
474.11	1012.5	1722.17
474.61	1012	1697.71
475.11	1011.5	1732.91
475.61	1011	1739.31
476.11	1010.5	1750.62
476.61	1010	1723.22
477.11	1009.5	1746.54
477.61	1009	1729.6
478.11	1008.5	1753.01
478.61	1008	1740.99
479.11	1007.5	1732.04
479.61	1007	1706.56
480.11	1006.5	1737.38
480.61	1006	1769.67
481.11	1005.5	1727.33
481.61	1005	1744.17
482.11	1004.5	1775.85
482.61	1004	1773.24
483.11	1003.5	1769.01
483.61	1003	1773.33
484.11	1002.5	1749.83
484.61	1002	1773.85
485.11	1001.5	1788.29
485.61	1001	1763.65
486.11	1000.5	1806.23
486.61	1000	1795.57
487.11	999.5	1779.35
487.61	999	1779.39
488.11	998.5	1806.87
488.61	998	1777.71
489.11	997.5	1776.15
489.61	997	1773.83
490.11	996.5	1797.62
490.61	996	1814.76
491.11	995.5	1850.14
491.61	995	1844.87
492.11	994.5	1807.34
492.61	994	1816.59
493.11	993.5	1843.83
493.61	993	1845.72
494.11	992.5	1794.57
494.61	992	1805.61
495.11	991.5	1802.82
495.61	991	1882.65
496.11	990.5	1858.98
496.61	990	1855.6
497.11	989.5	1819.11
497.61	989	1834.98
498.11	988.5	1817.61
498.61	988	1878.42
499.11	987.5	1880.23
499.61	987	1884.61
500.11	986.5	1874.64
500.61	986	1855.95
501.11	985.5	1873.69
501.61	985	1856.19
502.11	984.5	1904.88
502.61	984	1925.51
503.11	983.5	1892.35
503.61	983	1857.82
504.11	982.5	1880.67
504.61	982	1877.98
505.11	981.5	1874.38
505.61	981	1918.23
506.11	980.5	1896.44
506.61	980	1875.69
507.11	979.5	1853.09
507.61	979	1897.9
508.11	978.5	1917.02
508.61	978	1914.39
509.11	977.5	1941.06
509.61	977	1952.16
510.11	976.5	1906.45
510.61	976	1919.73
511.11	975.5	1927.75
511.61	975	1947.48
512.11	974.5	1908.95
512.61	974	1940.83
513.11	973.5	1926.62
513.61	973	1959.13
514.11	972.5	1969.23
514.61	972	1974.78
515.11	971.5	1958.15
515.61	971	1981.25
516.11	970.5	1943.78
516.61	970	1933.96
517.11	969.5	1982.76
517.61	969	1952.91
518.11	968.5	1934.97
518.61	968	1993.78
519.11	967.5	1957.32
519.61	967	1990.78
520.11	966.5	2011.99
520.61	966	1983.45
521.11	965.5	1966.48
521.61	965	1995.01
522.11	964.5	1965.05
522.61	964	1983.76
523.11	963.5	1967.47
523.61	963	1992.97
524.11	962.5	1985.12
524.61	962	2007.17
525.11	961.5	1992.88
525.61	961	1977.48
526.11	960.5	2004.69
526.61	960	2031.25
527.11	959.5	1973.01
527.61	959	1963.41
528.11	958.5	1989.55
528.61	958	2022.56
529.11	957.5	2021.31
529.61	957	2051.33
530.11	956.5	2067.55
530.61	956	2049.54
531.11	955.5	2067.49
531.61	955	2045.22
532.11	954.5	2031.61
532.61	954	2053.7
533.11	953.5	2024.9
533.61	953	2050.46
534.11	952.5	2062.32
534.61	952	2046.9
535.11	951.5	2051.95
535.61	951	2063.16
536.11	950.5	2092.19
536.61	950	2101.21
537.11	949.5	2068.64
537.61	949	2079.57
538.11	948.5	2080.39
538.61	948	2105.27
539.11	947.5	2117.4
539.61	947	2074.71
540.11	946.5	2107.68
540.61	946	2120.92
541.11	945.5	2108.21
541.61	945	2064.99
542.11	944.5	2123.54
542.61	944	2113.62
543.11	943.5	2102.86
543.61	943	2125.12
544.11	942.5	2122.54
544.61	942	2141.87
545.11	941.5	2162.09
545.61	941	2156.69
546.11	940.5	2113.73
546.61	940	2147.8
547.11	939.5	2145.04
547.61	939	2164.78
548.11	938.5	2104.28
548.61	938	2110.99
549.11	937.5	2172.47
549.61	937	2195.22
550.11	936.5	2133.87
550.61	936	2107.81
551.11	935.5	2152.66
551.61	935	2158.06
552.11	934.5	2173.42
552.61	934	2166.81
553.11	933.5	2174.18
553.61	933	2178.93
554.11	932.5	2169.4
554.61	932	2183.7
555.11	931.5	2171.13
555.61	931	2202.7
556.11	930.5	2222.75
556.61	930	2173.48
557.11	929.5	2195.08
557.61	929	2157.07
558.11	928.5	2177.14
558.61	928	2222.71
559.11	927.5	2225.14
559.61	927	2178.84
560.11	926.5	2208.63
560.61	926	2261.9
561.11	925.5	2262.02
561.61	925	2236.52
562.11	924.5	2244.68
562.61	924	2263.01
563.11	923.5	2250.56
563.61	923	2256.21
564.11	922.5	2268.55
564.61	922	2229.87
565.11	921.5	2250.12
565.61	921	2260.94
566.11	920.5	2246.11
566.61	920	2269.25
567.11	919.5	2296.81
567.61	919	2255.28
568.11	918.5	2240.17
568.61	918	2263.13
569.11	917.5	2307.68
569.61	917	2321.23
570.11	916.5	2297.15
570.61	916	2312.86
571.11	915.5	2296.98
571.61	915	2292.82
572.11	914.5	2338.22
572.61	914	2292.7
573.11	913.5	2283.65
573.61	913	2345.81
574.11	912.5	2347.83
574.61	912	2323.2
575.11	911.5	2335.33
575.61	911	2335
576.11	910.5	2346.5
576.61	910	2332.34
577.11	909.5	2349.47
577.61	909	2314.26
578.11	908.5	2327.98
578.61	908	2318.56
579.11	907.5	2362.64
579.61	907	2399.77
580.11	906.5	2360.79
580.61	906	2392.17
581.11	905.5	2409.41
581.61	905	2389.65
582.11	904.5	2397.7
582.61	904	2369.25
583.11	903.5	2355.51
583.61	903	2371.79
584.11	902.5	2389.56
584.61	902	2401.31
585.11	901.5	2411.19
585.61	901	2371.21
586.11	900.5	2397.93
586.61	900	2410.34
587.11	899.5	2390.69
587.61	899	2438.53
588.11	898.5	2427.37
588.61	898	2429.85
589.11	897.5	2462.32
589.61	897	2424.3
590.11	896.5	2439.6
590.61	896	2421.41
591.11	895.5	2459.81
591.61	895	2441.15
592.11	894.5	2434.52
592.61	894	2420.08
593.11	893.5	2459.72
593.61	893	2455.71
594.11	892.5	2449.33
594.61	892	2459.34
595.11	891.5	2446.36
595.61	891	2462.08
596.11	890.5	2479.31
596.61	890	2471.79
597.11	889.5	2490.32
597.61	889	2494.96
598.11	888.5	2519.56
598.61	888	2548.34
599.11	887.5	2541.14
599.61	887	2525.78
600.11	886.5	2515.39
600.61	886	2481.47
601.11	885.5	2479.58
601.61	885	2516.39
602.11	884.5	2524.58
602.61	884	2507
603.11	883.5	2560.48
603.61	883	2543.53
604.11	882.5	2549.58
604.61	882	2521.57
605.11	881.5	2522.27
605.61	881	2532.04
606.11	880.5	2554.05
606.61	880	2532.65
607.11	879.5	2564.36
607.61	879	2537.17
608.11	878.5	2550.41
608.61	878	2579.3
609.11	877.5	2614.66
609.61	877	2581.3
610.11	876.5	2578.91
610.61	876	2592.69
611.11	875.5	2587.43
611.61	875	2561.2
612.11	874.5	2621.1
612.61	874	2620.21
613.11	873.5	2576.83
613.61	873	2583.39
614.11	872.5	2595.59
614.61	872	2591.44
615.11	871.5	2581.54
615.61	871	2666.12
616.11	870.5	2654.09
616.61	870	2640.18
617.11	869.5	2611.72
617.61	869	2655.78
618.11	868.5	2668.41
618.61	868	2615.25
619.11	867.5	2649.1
619.61	867	2656.5
620.11	866.5	2678.2
620.61	866	2696.8
621.11	865.5	2670.66
621.61	865	2689.45
622.11	864.5	2727.25
622.61	864	2738.17
623.11	863.5	2674.22
623.61	863	2692.86
624.11	862.5	2707.38
624.61	862	2692.08
625.11	861.5	2683.87
625.61	861	2691.7
626.11	860.5	2734.84
626.61	860	2747.44
627.11	859.5	2698.47
627.61	859	2699.92
628.11	858.5	2714.4
628.61	858	2727.41
629.11	857.5	2730.07
629.61	857	2764.14
630.11	856.5	2737.16
630.61	856	2762.42
631.11	855.5	2767.42
631.61	855	2756.91
632.11	854.5	2774.72
632.61	854	2745.72
633.11	853.5	2777.08
633.61	853	2778.63
634.11	852.5	2766.6
634.61	852	2772.16
635.11	851.5	2799.9
635.61	851	2811.14
636.11	850.5	2785.86
636.61	850	2781.82
637.11	849.5	2860.08
637.61	849	2842.88
638.11	848.5	2831.36
638.61	848	2814.69
639.11	847.5	2806.47
639.61	847	2844.61
640.11	846.5	2805.09
640.61	846	2874.66
641.11	845.5	2839.06
641.61	845	2889.01
642.11	844.5	2834.87
642.61	844	2864.13
643.11	843.5	2925.32
643.61	843	2872.78
644.11	842.5	2834.98
644.61	842	2855.25
645.11	841.5	2867.33
645.61	841	2862.12
646.11	840.5	2853.41
646.61	840	2871.14
647.11	839.5	2895.95
647.61	839	2897.5
648.11	838.5	2864.4
648.61	838	2911.18
649.11	837.5	2910.26
649.61	837	2894
650.11	836.5	2899.68
650.61	836	2851.3
651.11	835.5	2923.03
651.61	835	2895.58
652.11	834.5	2907.41
652.61	834	2949.52
653.11	833.5	2967.18
653.61	833	2949.26
654.11	832.5	2934.89
654.61	832	2986.65
655.11	831.5	3006.3
655.61	831	2966.52
656.11	830.5	2972.18
656.61	830	2942.75
657.11	829.5	2976.41
657.61	829	2938.74
658.11	828.5	2945.34
658.61	828	2988.01
659.11	827.5	3011.02
659.61	827	2977.23
660.11	826.5	2982.5
660.61	826	3032.16
661.11	825.5	3005.11
661.61	825	2988.66
662.11	824.5	3017.37
662.61	824	3034.35
663.11	823.5	3029.79
663.61	823	3002.6
664.11	822.5	3023.38
664.61	822	3023.62
665.11	821.5	3067.7
665.61	821	3059.46
666.11	820.5	3035.67
666.61	820	3091.41
667.11	819.5	3055.78
667.61	819	3044.46
668.11	818.5	3051.28
668.61	818	3076.42
669.11	817.5	3044.09
669.61	817	3060.34
670.11	816.5	3072.63
670.61	816	3082.74
671.11	815.5	3112.69
671.61	815	3058.42
672.11	814.5	3058.96
672.61	814	3064.95
673.11	813.5	3084.94
673.61	813	3045.76
674.11	812.5	3077.19
674.61	812	3114.1
675.11	811.5	3134.46
675.61	811	3093.57
676.11	810.5	3123.79
676.61	810	3172.59
677.11	809.5	3136.84
677.61	809	3136.91
678.11	808.5	3138.24
678.61	808	3153.06
679.11	807.5	3141.75
679.61	807	3133.17
680.11	806.5	3182.18
680.61	806	3205.03
681.11	805.5	3187.87
681.61	805	3197.51
682.11	804.5	3201.85
682.61	804	3166.32
683.11	803.5	3165.55
683.61	803	3130.52
684.11	802.5	3210.44
684.61	802	3205.61
685.11	801.5	3223.44
685.61	801	3202.86
686.11	800.5	3209.09
686.61	800	3215.79
687.11	799.5	3190.81
687.61	799	3226.2
688.11	798.5	3265.58
688.61	798	3237.15
689.11	797.5	3218.36
689.61	797	3216.25
690.11	796.5	3299.1
690.61	796	3244.61
691.11	795.5	3224.01
691.61	795	3231.32
692.11	794.5	3242.29
692.61	794	3213.75
693.11	793.5	3307.14
693.61	793	3289.03
694.11	792.5	3248.4
694.61	792	3273.28
695.11	791.5	3246.04
695.61	791	3254.65
696.11	790.5	3292.93
696.61	790	3319.55
697.11	789.5	3297.95
697.61	789	3349.19
698.11	788.5	3350.77
698.61	788	3319.19
699.11	787.5	3334
699.61	787	3300.8
700.11	786.5	3289.13
700.61	786	3287.88
701.11	785.5	3292.34
701.61	785	3332.27
702.11	784.5	3336.7
702.61	784	3347.98
703.11	783.5	3345.34
703.61	783	3332.28
704.11	782.5	3362.39
704.61	782	3393.2
705.11	781.5	3391.72
705.61	781	3368.54
706.11	780.5	3410.28
706.61	780	3447.16
707.11	779.5	3398.36
707.61	779	3384.63
708.11	778.5	3423.06
708.61	778	3360.58
709.11	777.5	3376.67
709.61	777	3400.31
710.11	776.5	3413.07
710.61	776	3472.58
711.11	775.5	3444.01
711.61	775	3417.97
712.11	774.5	3446.57
712.61	774	3524.16
713.11	773.5	3492.21
713.61	773	3513.8
714.11	772.5	3484.3
714.61	772	3484.01
715.11	771.5	3463.3
715.61	771	3507.46
716.11	770.5	3468.48
716.61	770	3502.24
717.11	769.5	3488.42
717.61	769	3516.43
718.11	768.5	3450.48
718.61	768	3456.57
719.11	767.5	3447.79
719.61	767	3493.58
720.11	766.5	3515.17
720.61	766	3554.4
721.11	765.5	3503.42
721.61	765	3542.32
722.11	764.5	3509.33
722.61	764	3523.86
723.11	763.5	3560.63
723.61	763	3543.63
724.11	762.5	3565.53
724.61	762	3561.54
725.11	761.5	3544.45
725.61	761	3573.02
726.11	760.5	3550.04
726.61	760	3574.82
727.11	759.5	3588.24
727.61	759	3544.79
728.11	758.5	3622.3
728.61	758	3590.06
729.11	757.5	3589.82
729.61	757	3606.26
730.11	756.5	3593.62
730.61	756	3638.67
731.11	755.5	3595.89
731.61	755	3602.58
732.11	754.5	3646.3
732.61	754	3650.99
733.11	753.5	3665.43
733.61	753	3643.98
734.11	752.5	3690.82
734.61	752	3673.8
735.11	751.5	3717.1
735.61	751	3654.41
736.11	750.5	3668.71
736.61	750	3667.42
737.11	749.5	3677.83
737.61	749	3703.38
738.11	748.5	3663.62
738.61	748	3634.92
739.11	747.5	3684.9
739.61	747	3737.66
740.11	746.5	3734.04
740.61	746	3699.61
741.11	745.5	3678.08
741.61	745	3741.19
742.11	744.5	3733.15
742.61	744	3750.43
743.11	743.5	3689.78
743.61	743	3698.87
744.11	742.5	3752.41
744.61	742	3773.62
745.11	741.5	3754.23
745.61	741	3706.91
746.11	740.5	3717.21
746.61	740	3762.51
747.11	739.5	3744.51
747.61	739	3775.8
748.11	738.5	3811.63
748.61	738	3781.26
749.11	737.5	3710.14
749.61	737	3793.55
750.11	736.5	3760.94
750.61	736	3773.07
751.11	735.5	3791.22
751.61	735	3768.71
752.11	734.5	3756.73
752.61	734	3858.1
753.11	733.5	3799.81
753.61	733	3822.02
754.11	732.5	3861.97
754.61	732	3822.37
755.11	731.5	3841.77
755.61	731	3817.69
756.11	730.5	3795.45
756.61	730	3826.57
757.11	729.5	3845.96
757.61	729	3762.48
758.11	728.5	3730.1
758.61	728	3745.29
759.11	727.5	3792.26
759.61	727	3796.28
760.11	726.5	3816.97
760.61	726	3829.57
761.11	725.5	3842.18
761.61	725	3833.31
762.11	724.5	3825.9
762.61	724	3853.95
763.11	723.5	3885.94
763.61	723	3908.5
764.11	722.5	3944.5
764.61	722	3903.63
765.11	721.5	3947.66
765.61	721	3995.86
766.11	720.5	4013.32
766.61	720	3976.48
767.11	719.5	4041.44
767.61	719	4062.07
768.11	718.5	4000.13
768.61	718	4003.97
769.11	717.5	3988.98
769.61	717	3957.13
770.11	716.5	3931.07
770.61	716	3945.93
771.11	715.5	3922.81
771.61	715	3903
772.11	714.5	3884.24
772.61	714	3869.09
773.11	713.5	3886.59
773.61	713	3891.62
774.11	712.5	3896.77
774.61	712	3889.22
775.11	711.5	3879.12
775.61	711	3860.19
776.11	710.5	3874.73
776.61	710	3827.35
777.11	709.5	3804.09
777.61	709	3845
778.11	708.5	3865.85
778.61	708	3829.4
779.11	707.5	3801.31
779.61	707	3856.97
780.11	706.5	3839.03
780.61	706	3831.34
781.11	705.5	3868.46
781.61	705	3867.34
782.11	704.5	3886.72
782.61	704	3839.71
783.11	703.5	3816.85
783.61	703	3848.96
784.11	702.5	3870.21
784.61	702	3865.68
785.11	701.5	3832.93
785.61	701	3854.91
786.11	700.5	3906.95
786.61	700	3850.9
787.11	699.5	3900.69
787.61	699	3849.64
788.11	698.5	3909.03
788.61	698	3903.17
789.11	697.5	3908.12
789.61	697	3887.25
790.11	696.5	3868.1
790.61	696	3926.76
791.11	695.5	3995.26
791.61	695	3904.09
792.11	694.5	3934.62
792.61	694	3889.56
793.11	693.5	3941.03
793.61	693	4001.7
794.11	692.5	3920.01
794.61	692	3983.29
795.11	691.5	3989.62
795.61	691	3924.9
796.11	690.5	3952.62
796.61	690	3984.12
797.11	689.5	3934.41
797.61	689	3944.35
798.11	688.5	3980.13
798.61	688	3995.06
799.11	687.5	3986.33
799.61	687	3996
800.11	686.5	4000.22
800.61	686	3978.31
801.11	685.5	3987.66
801.61	685	3995.54
802.11	684.5	3978.56
802.61	684	4020.31
803.11	683.5	4043.42
803.61	683	4016.55
804.11	682.5	4051.16
804.61	682	4070.04
805.11	681.5	4092.57
805.61	681	4061.6
806.11	680.5	4042.18
806.61	680	4057.21
807.11	679.5	4058.79
807.61	679	4073.28
808.11	678.5	4023.85
808.61	678	4016.49
809.11	677.5	4065.44
809.61	677	4090.06
810.11	676.5	4076.4
810.61	676	4064.11
811.11	675.5	4129.43
811.61	675	4101.5
812.11	674.5	4135.6
812.61	674	4089.86
813.11	673.5	4061.87
813.61	673	4080
814.11	672.5	4137.54
814.61	672	4193.99
815.11	671.5	4103.41
815.61	671	4069.88
816.11	670.5	4177.26
816.61	670	4145.92
817.11	669.5	4158.29
817.61	669	4154.37
818.11	668.5	4187.64
818.61	668	4161.83
819.11	667.5	4183
819.61	667	4144.38
820.11	666.5	4236.19
820.61	666	4173.56
821.11	665.5	4214.95
821.61	665	4197.37
822.11	664.5	4219.15
822.61	664	4226.15
823.11	663.5	4237.07
823.61	663	4240.69
824.11	662.5	4226.66
824.61	662	4199.3
825.11	661.5	4243.73
825.61	661	4231.99
826.11	660.5	4236.42
826.61	660	4254.82
827.11	659.5	4235.49
827.61	659	4279.57
828.11	658.5	4256.92
828.61	658	4230.32
829.11	657.5	4317.18
829.61	657	4258.3
830.11	656.5	4252.69
830.61	656	4283.87
831.11	655.5	4263.69
831.61	655	4258.53
832.11	654.5	4240.55
832.61	654	4286.45
833.11	653.5	4276.05
833.61	653	4264.26
834.11	652.5	4296.11
834.61	652	4338.53
835.11	651.5	4293.1
835.61	651	4294.05
836.11	650.5	4341.72
836.61	650	4318.32
837.11	649.5	4352.47
837.61	649	4387.9
838.11	648.5	4373.25
838.61	648	4293.42
839.11	647.5	4344.74
839.61	647	4369.84
840.11	646.5	4347.73
840.61	646	4349.12
841.11	645.5	4419.05
841.61	645	4410.7
842.11	644.5	4393.76
842.61	644	4367.18
843.11	643.5	4399.48
843.61	643	4403.24
844.11	642.5	4403.52
844.61	642	4353.55
845.11	641.5	4407.97
845.61	641	4442.73
846.11	640.5	4412.9
846.61	640	4421.64
847.11	639.5	4399.6
847.61	639	4422.2
848.11	638.5	4418.3
848.61	638	4394.57
849.11	637.5	4426.75
849.61	637	4474.15
850.11	636.5	4466.47
850.61	636	4515.69
851.11	635.5	4444.59
851.61	635	4412.27
852.11	634.5	4448.51
852.61	634	4426.81
853.11	633.5	4437.02
853.61	633	4464.31
854.11	632.5	4493.2
854.61	632	4549.95
855.11	631.5	4494.58
855.61	631	4504.48
856.11	630.5	4516.27
856.61	630	4535.74
857.11	629.5	4521.43
857.61	629	4546.5
858.11	628.5	4564.01
858.61	628	4553.69
859.11	627.5	4574.94
859.61	627	4558.3
860.11	626.5	4591.64
860.61	626	4558.67
861.11	625.5	4535.54
861.61	625	4586.53
862.11	624.5	4560.43
862.61	624	4539.94
863.11	623.5	4577.84
863.61	623	4565.58
864.11	622.5	4580.54
864.61	622	4636.48
865.11	621.5	4644.3
865.61	621	4693.48
866.11	620.5	4655.4
866.61	620	4658.04
867.11	619.5	4656.17
867.61	619	4620.46
868.11	618.5	4664.72
868.61	618	4691.64
869.11	617.5	4727.11
869.61	617	4653.5
870.11	616.5	4586.8
870.61	616	4567.76
871.11	615.5	4486.43
871.61	615	4423.55
872.11	614.5	4523.93
872.61	614	4432.33
873.11	613.5	4469
873.61	613	4424.25
874.11	612.5	4427.28
874.61	612	4405.73
875.11	611.5	4417.44
875.61	611	4420.69
876.11	610.5	4419.1
876.61	610	4468.61
877.11	609.5	4471.95
877.61	609	4491.47
878.11	608.5	4539.77
878.61	608	4522.53
879.11	607.5	4627.55
879.61	607	4707.63
880.11	606.5	4793.15
880.61	606	5002.12
881.11	605.5	5213.41
881.61	605	5563.63
882.11	604.5	5911.24
882.61	604	6009.3
883.11	603.5	5771.09
883.61	603	5419.81
884.11	602.5	5086.7
884.61	602	4818.41
885.11	601.5	4664.77
885.61	601	4553.27
886.11	600.5	4541.59
886.61	600	4443.18
887.11	599.5	4328.35
887.61	599	4363.25
888.11	598.5	4342.79
888.61	598	4332.3
889.11	597.5	4299
889.61	597	4295.8
890.11	596.5	4240.9
890.61	596	4231.98
891.11	595.5	4222.02
891.61	595	4279.96
892.11	594.5	4271.92
892.61	594	4291.4
893.11	593.5	4202.21
893.61	593	4226.13
894.11	592.5	4239.12
894.61	592	4285.95
895.11	591.5	4316.83
895.61	591	4305.67
896.11	590.5	4324.59
896.61	590	4307.74
897.11	589.5	4310.77
897.61	589	4387.63
898.11	588.5	4466.13
898.61	588	4420.4
899.11	587.5	4389.23
899.61	587	4437.58
900.11	586.5	4448.08
900.61	586	4339.7
901.11	585.5	4209.95
901.61	585	4183.29
902.11	584.5	4039.04
902.61	584	3951.98
903.11	583.5	3854
903.61	583	3891.22
904.11	582.5	3839.91
904.61	582	3851.5
905.11	581.5	3842.11
905.61	581	3821.77
906.11	580.5	3838.32
906.61	580	3815.21
907.11	579.5	3859.85
907.61	579	3856.73
908.11	578.5	3938.58
908.61	578	4008.62
909.11	577.5	4083.54
909.61	577	4195.53
910.11	576.5	4250.57
910.61	576	4367.45
911.11	575.5	4697.21
911.61	575	5085.12
912.11	574.5	5658.2
912.61	574	6357.1
913.11	573.5	6931.84
913.61	573	6884.8
914.11	572.5	6308.54
914.61	572	5436.58
915.11	571.5	4821.54
915.61	571	4376.35
916.11	570.5	4102.8
916.61	570	3908.08
917.11	569.5	3761.71
917.61	569	3628.4
918.11	568.5	3623.61
918.61	568	3573.72
919.11	567.5	3509.14
919.61	567	3452.61
920.11	566.5	3405.34
920.61	566	3395.07
921.11	565.5	3395.11
921.61	565	3404.56
922.11	564.5	3362.23
922.61	564	3349.98
923.11	563.5	3370.47
923.61	563	3373.89
924.11	562.5	3368.87
924.61	562	3378.75
925.11	561.5	3352.53
925.61	561	3333.96
926.11	560.5	3313.3
926.61	560	3307.09
927.11	559.5	3292.17
927.61	559	3351.11
928.11	558.5	3306.47
928.61	558	3318.18
929.11	557.5	3312.42
929.61	557	3336.62
930.11	556.5	3328.73
930.61	556	3352.34
931.11	555.5	3346.22
931.61	555	3306.18
932.11	554.5	3315.86
932.61	554	3344.66
933.11	553.5	3375.34
933.61	553	3370.88
934.11	552.5	3333.13
934.61	552	3387.18
935.11	551.5	3353.05
935.61	551	3354.72
936.11	550.5	3408.74
936.61	550	3418.31
937.11	549.5	3429.77
937.61	549	3360.22
938.11	548.5	3354.75
938.61	548	3362.28
939.11	547.5	3391.48
939.61	547	3383.81
940.11	546.5	3373.24
940.61	546	3413.84
941.11	545.5	3382.64
941.61	545	3383.15
942.11	544.5	3398.09
942.61	544	3394.51
943.11	543.5	3437.89
943.61	543	3432.53
944.11	542.5	3432.67
944.61	542	3398.16
945.11	541.5	3371.68
945.61	541	3414.14
946.11	540.5	3387.5
946.61	540	3399.79
947.11	539.5	3420.22
947.61	539	3425.18
948.11	538.5	3435.87
948.61	538	3457.3
949.11	537.5	3455.37
949.61	537	3383.79
950.11	536.5	3465.56
950.61	536	3436.06
951.11	535.5	3456.2
951.61	535	3481.54
952.11	534.5	3470.95
952.61	534	3439.27
953.11	533.5	3481.71
953.61	533	3555.91
954.11	532.5	3531.09
954.61	532	3528.85
955.11	531.5	3574.01
955.61	531	3581.97
956.11	530.5	3539.28
956.61	530	3527.49
957.11	529.5	3486.06
957.61	529	3528.03
958.11	528.5	3493.92
958.61	528	3509.86
959.11	527.5	3499.62
959.61	527	3457.09
960.11	526.5	3465.26
960.61	526	3496.5
961.11	525.5	3502.76
961.61	525	3497.22
962.11	524.5	3481.61
962.61	524	3489.41
963.11	523.5	3537.3
963.61	523	3582.3
964.11	522.5	3563
964.61	522	3519.21
965.11	521.5	3523.11
965.61	521	3537.83
966.11	520.5	3513.5
966.61	520	3559.87
967.11	519.5	3524.28
967.61	519	3623.7
968.11	518.5	3570
968.61	518	3571.79
969.11	517.5	3553.88
969.61	517	3568.12
970.11	516.5	3562.58
970.61	516	3566.74
971.11	515.5	3595.57
971.61	515	3592.94
972.11	514.5	3636.18
972.61	514	3575.31
973.11	513.5	3564.54
973.61	513	3621.68
974.11	512.5	3608.77
974.61	512	3595.98
975.11	511.5	3572.19
975.61	511	3649.5
976.11	510.5	3636.48
976.61	510	3614.14
977.11	509.5	3618.47
977.61	509	3664.35
978.11	508.5	3632.35
978.61	508	3690.19
979.11	507.5	3678.54
979.61	507	3677.03
980.11	506.5	3633.08
980.61	506	3679.88
981.11	505.5	3627.38
981.61	505	3658.33
982.11	504.5	3658.37
982.61	504	3691.77
983.11	503.5	3680.36
983.61	503	3698.72
984.11	502.5	3727.53
984.61	502	3665.97
985.11	501.5	3650.12
985.61	501	3682.93
986.11	500.5	3701.01
986.61	500	3751.27
987.11	499.5	3736.27
987.61	499	3723.48
988.11	498.5	3734.63
988.61	498	3727.89
989.11	497.5	3761.41
989.61	497	3722.49
990.11	496.5	3711.99
990.61	496	3761.06
991.11	495.5	3782.75
991.61	495	3704.79
992.11	494.5	3732.61
992.61	494	3747.5
993.11	493.5	3778.41
993.61	493	3752.5
994.11	492.5	3788.39
994.61	492	3793.36
995.11	491.5	3786.63
995.61	491	3855.25
996.11	490.5	3853.25
996.61	490	3808.15
997.11	489.5	3759.05
997.61	489	3863.94
998.11	488.5	3878.28
998.61	488	3880.16
999.11	487.5	3837.95
999.61	487	3842.02
1000.11	486.5	3863.94
1000.61	486	3849.03
1001.11	485.5	3817.51
1001.61	485	3820.05
1002.11	484.5	3809.62
1002.61	484	3820.24
1003.11	483.5	3893.96
1003.61	483	3893.33
1004.11	482.5	3861.2
1004.61	482	3861.33
1005.11	481.5	3889.59
1005.61	481	3881.16
1006.11	480.5	3889.79
1006.61	480	3926.05
1007.11	479.5	3877.56
1007.61	479	3896.61
1008.11	478.5	3905.48
1008.61	478	3911.91
1009.11	477.5	3998.25
1009.61	477	4002.16
1010.11	476.5	3968.21
1010.61	476	3949.93
1011.11	475.5	3900.43
1011.61	475	3983.72
1012.11	474.5	3951.15
1012.61	474	3947.86
1013.11	473.5	3979.25
1013.61	473	3955.54
1014.11	472.5	3978.51
1014.61	472	4011.91
1015.11	471.5	3981.88
1015.61	471	3982.7
1016.11	470.5	4037.35
1016.61	470	4016.28
1017.11	469.5	4041.3
1017.61	469	4031.33
1018.11	468.5	4001.29
1018.61	468	3989.64
1019.11	467.5	4009.41
1019.61	467	4000.91
1020.11	466.5	4047.64
1020.61	466	4011.51
1021.11	465.5	4003.22
1021.61	465	4061.74
1022.11	464.5	4085.24
1022.61	464	4058.32
1023.11	463.5	4079.42
1023.61	463	4099.13
1024.11	462.5	4047.64
1024.61	462	4076.55
1025.11	461.5	4081.3
1025.61	461	4108.22
1026.11	460.5	4154.19
1026.61	460	4104.32
1027.11	459.5	4116.12
1027.61	459	4083.58
1028.11	458.5	4086.96
1028.61	458	4160.71
1029.11	457.5	4136.19
1029.61	457	4170.99
1030.11	456.5	4092.04
1030.61	456	4096.96
1031.11	455.5	4161.45
1031.61	455	4132.34
1032.11	454.5	4147.62
1032.61	454	4115.03
1033.11	453.5	4175.43
1033.61	453	4167.46
1034.11	452.5	4147.69
1034.61	452	4184.96
1035.11	451.5	4158.71
1035.61	451	4151.66
1036.11	450.5	4178.55
1036.61	450	4204.86
1037.11	449.5	4157.19
1037.61	449	4186.26
1038.11	448.5	4231.2
1038.61	448	4227.7
1039.11	447.5	4220.29
1039.61	447	4244.06
1040.11	446.5	4221.79
1040.61	446	4225.43
1041.11	445.5	4147.18
1041.61	445	4168.24
1042.11	444.5	4189.37
1042.61	444	4227.55
1043.11	443.5	4206.41
1043.61	443	4242.52
1044.11	442.5	4201.56
1044.61	442	4234.37
1045.11	441.5	4221.23
1045.61	441	4273.64
1046.11	440.5	4269.68
1046.61	440	4237.61
1047.11	439.5	4247.99
1047.61	439	4217.04
1048.11	438.5	4302.5
1048.61	438	4241.28
1049.11	437.5	4271.47
1049.61	437	4288.37
1050.11	436.5	4354.06
1050.61	436	4318.56
1051.11	435.5	4398.56
1051.61	435	4362.22
1052.11	434.5	4263.44
1052.61	434	4326.65
1053.11	433.5	4304.69
1053.61	433	4288.79
1054.11	432.5	4293
1054.61	432	4284.35
1055.11	431.5	4330.24
1055.61	431	4354.16
1056.11	430.5	4362.93
1056.61	430	4386.03
1057.11	429.5	4308.42
1057.61	429	4388.02
1058.11	428.5	4370.21
1058.61	428	4353.12
1059.11	427.5	4361.12
1059.61	427	4302.39
1060.11	426.5	4332.07
1060.61	426	4356.16
1061.11	425.5	4374.71
1061.61	425	4426.35
1062.11	424.5	4473.53
1062.61	424	4453.47
1063.11	423.5	4451.45
1063.61	423	4536.32
1064.11	422.5	4551.22
1064.61	422	4610.05
1065.11	421.5	4573.87
1065.61	421	4504.61
1066.11	420.5	4479.55
1066.61	420	4527.04
1067.11	419.5	4539.13
1067.61	419	4633.17
1068.11	418.5	4509.47
1068.61	418	4405.56
1069.11	417.5	4336.15
1069.61	417	4350.92
1070.11	416.5	4363.52
1070.61	416	4351.22
1071.11	415.5	4382.48
1071.61	415	4423.52
1072.11	414.5	4374.49
1072.61	414	4349.33
1073.11	413.5	4329.67
1073.61	413	4320.04
1074.11	412.5	4366.43
1074.61	412	4397.22
1075.11	411.5	4374.81
1075.61	411	4372.08
1076.11	410.5	4369.15
1076.61	410	4356.04
1077.11	409.5	4399.77
1077.61	409	4405.7
1078.11	408.5	4459.99
1078.61	408	4416.41
1079.11	407.5	4507.72
1079.61	407	4757.18
1080.11	406.5	6007.87
1080.61	406	8974.36
1081.11	405.5	7355.37
1081.61	405	4764.33
1082.11	404.5	4528.81
1082.61	404	4490.53
1083.11	403.5	4489.71
1083.61	403	4516.01
1084.11	402.5	4537.46
1084.61	402	4560.66
1085.11	401.5	4549.14
1085.61	401	4624.4
1086.11	400.5	4591.84
1086.61	400	4600.93
1087.11	399.5	4603.71
1087.61	399	4565.22
1088.11	398.5	4555.67
1088.61	398	4537.53
1089.11	397.5	4533.02
1089.61	397	4480.71
1090.11	396.5	4548.9
1090.61	396	4542.14
1091.11	395.5	4560
1091.61	395	4528.21
1092.11	394.5	4581.76
1092.61	394	4582.67
1093.11	393.5	4549.12
1093.61	393	4548.54
1094.11	392.5	4554.87
1094.61	392	4565.39
1095.11	391.5	4580.29
1095.61	391	4618.82
1096.11	390.5	4584.07
1096.61	390	4544.11
1097.11	389.5	4492.44
1097.61	389	4627.25
1098.11	388.5	5012.2
1098.61	388	5121.84
1099.11	387.5	5424.53
1099.61	387	5103.86
1100.11	386.5	4192.86
1100.61	386	3956.67
1101.11	385.5	3884.28
1101.61	385	3874.58
1102.11	384.5	3963.99
1102.61	384	3964.82
1103.11	383.5	3846.44
1103.61	383	4050.92
1104.11	382.5	4544.58
1104.61	382	4644.98
1105.11	381.5	4906.99
1105.61	381	4500.67
1106.11	380.5	3149.53
1106.61	380	2609.9
1107.11	379.5	2555.78
1107.61	379	2601.6
1108.11	378.5	2747.88
1108.61	378	2841.52
1109.11	377.5	2790.47
1109.61	377	2711.9
1110.11	376.5	2761.15
1110.61	376	3093.29
1111.11	375.5	4103.39
1111.61	375	8318.13
1112.11	374.5	18888.1
1112.61	374	15442.1
1113.11	373.5	4278.03
1113.61	373	2471.84
1114.11	372.5	2376.55
1114.61	372	2392.57
1115.11	371.5	2142.95
1115.61	371	1965.77
1116.11	370.5	2085.48
1116.61	370	2580.82
1117.11	369.5	4191.36
1117.61	369	10478.7
1118.11	368.5	25554.7
1118.61	368	20711.8
1119.11	367.5	4575.63
1119.61	367	1677.33
1120.11	366.5	1133.24
1120.61	366	977.558
1121.11	365.5	874.625
1121.61	365	801.322
1122.11	364.5	772.473
1122.61	364	742.112
1123.11	363.5	743.448
1123.61	363	713.293
1124.11	362.5	719.466
1124.61	362	711.081
1125.11	361.5	712.347
1125.61	361	707.427
1126.11	360.5	683.032
1126.61	360	686.61
1127.11	359.5	699.964
1127.61	359	695.907
1128.11	358.5	671.364
1128.61	358	667.281
1129.11	357.5	667.81
1129.61	357	658.47
1130.11	356.5	693.646
1130.61	356	681.742
1131.11	355.5	670.433
1131.61	355	666.552
1132.11	354.5	667.007
1132.61	354	668.562
1133.11	353.5	678.224
1133.61	353	695.771
1134.11	352.5	690.86
1134.61	352	671.863
1135.11	351.5	679.431
1135.61	351	675.025
1136.11	350.5	678.258
1136.61	350	685.446
1137.11	349.5	690.597
1137.61	349	685.677
1138.11	348.5	687.196
1138.61	348	672.76
1139.11	347.5	672.05
1139.61	347	687.597
1140.11	346.5	729.379
1140.61	346	677.286
1141.11	345.5	669.246
1141.61	345	699.634
1142.11	344.5	680.453
1142.61	344	674.763
1143.11	343.5	684.627
1143.61	343	675.559
1144.11	342.5	686.909
1144.61	342	679.495
1145.11	341.5	678.418
1145.61	341	655.212
1146.11	340.5	656.435
1146.61	340	694.413
1147.11	339.5	691.707
1147.61	339	680.904
1148.11	338.5	683.678
1148.61	338	696.702
1149.11	337.5	696.207
1149.61	337	695.084
1150.11	336.5	675.074
1150.61	336	684.531
1151.11	335.5	690.821
1151.61	335	692.85
1152.11	334.5	717.374
1152.61	334	712.128
1153.11	333.5	699.936
1153.61	333	684.924
1154.11	332.5	711.617
1154.61	332	692.783
1155.11	331.5	717.419
1155.61	331	708.629
1156.11	330.5	720.946
1156.61	330	705.753
1157.11	329.5	717.452
1157.61	329	700.096
1158.11	328.5	698.614
1158.61	328	717.072
1159.11	327.5	744.323
1159.61	327	737.741
1160.11	326.5	731.742
1160.61	326	708.282
1161.11	325.5	707.703
1161.61	325	716.398
1162.11	324.5	730.236
1162.61	324	705.902
1163.11	323.5	695.431
1163.61	323	718.11
1164.11	322.5	726.002
1164.61	322	742.835
1165.11	321.5	728.66
1165.61	321	722.569
1166.11	320.5	725.305
1166.61	320	738.729
1167.11	319.5	725.988
1167.61	319	752.347
1168.11	318.5	718.133
1168.61	318	704.449
1169.11	317.5	716.232
1169.61	317	729.683
1170.11	316.5	757.682
1170.61	316	725.35
1171.11	315.5	731.258
1171.61	315	734.313
1172.11	314.5	753.525
1172.61	314	746.586
1173.11	313.5	729.373
1173.61	313	739.297
1174.11	312.5	722.356
1174.61	312	728.999
1175.11	311.5	734.304
1175.61	311	736.313
1176.11	310.5	716.221
1176.61	310	732.723
1177.11	309.5	727.554
1177.61	309	704.459
1178.11	308.5	715.765
1178.61	308	722.285
1179.11	307.5	722.868
1179.61	307	751.774
1180.11	306.5	760.808
1180.61	306	729.593
1181.11	305.5	716.395
1181.61	305	763.629
1182.11	304.5	745.463
1182.61	304	749.008
1183.11	303.5	748.452
1183.61	303	748.039
1184.11	302.5	740.566
1184.61	302	763.346
1185.11	301.5	786.054
1185.61	301	740.914
1186.11	300.5	757.444
1186.61	300	750.518
1187.11	299.5	753.997
1187.61	299	786.112
1188.11	298.5	775.018
1188.61	298	771.706
1189.11	297.5	758.047
1189.61	297	741.566
1190.11	296.5	744.883
1190.61	296	744.551
1191.11	295.5	732.835
1191.61	295	734.553
1192.11	294.5	737.89
1192.61	294	750.344
1193.11	293.5	745.322
1193.61	293	747.628
1194.11	292.5	752.409
1194.61	292	740.951
1195.11	291.5	757.809
1195.61	291	760.134
1196.11	290.5	763.202
1196.61	290	767.507
1197.11	289.5	748.4
1197.61	289	765.832
1198.11	288.5	792.336
1198.61	288	792.683
1199.11	287.5	796.383
1199.61	287	801.036
1200.11	286.5	815.623
1200.61	286	842.919
1201.11	285.5	945.442
1201.61	285	1078.39
1202.11	284.5	1039.04
1202.61	284	872.155
1203.11	283.5	775.937
1203.61	283	755.248
1204.11	282.5	763.04
1204.61	282	769.445
1205.11	281.5	748.686
1205.61	281	721.06
1206.11	280.5	751.529
1206.61	280	746.239
1207.11	279.5	768.917
1207.61	279	768.851
1208.11	278.5	764.038
1208.61	278	738.528
1209.11	277.5	745.415
1209.61	277	750.724
1210.11	276.5	755.06
1210.61	276	756.429
1211.11	275.5	746.191
1211.61	275	781.189
1212.11	274.5	759.149
1212.61	274	750.563
1213.11	273.5	769.961
1213.61	273	757.648
1214.11	272.5	768.334
1214.61	272	778.784
1215.11	271.5	764.635
1215.61	271	793.314
1216.11	270.5	748.984
1216.61	270	756.191
1217.11	269.5	769.114
1217.61	269	757.309
1218.11	268.5	774.554
1218.61	268	794.037
1219.11	267.5	798.847
1219.61	267	778.752
1220.11	266.5	763.926
1220.61	266	779.039
1221.11	265.5	771.776
1221.61	265	776.448
1222.11	264.5	772.983
1222.61	264	771.132
1223.11	263.5	787.88
1223.61	263	776.634
1224.11	262.5	780.907
1224.61	262	781.778
1225.11	261.5	774.096
1225.61	261	773.72
1226.11	260.5	793.001
1226.61	260	786.474
1227.11	259.5	775.784
1227.61	259	795.169
1228.11	258.5	782.977
1228.61	258	814.763
1229.11	257.5	784.987
1229.61	257	773.673
1230.11	256.5	765.86
1230.61	256	776.771
1231.11	255.5	779.073
1231.61	255	774.905
1232.11	254.5	772.815
1232.61	254	783.63
1233.11	253.5	799.187
1233.61	253	782.415
1234.11	252.5	771.066
1234.61	252	800.299
1235.11	251.5	797.243
1235.61	251	775.631
1236.11	250.5	792.722
1236.61	250	792.533
1237.11	249.5	798.267
1237.61	249	822.087
1238.11	248.5	800.478
1238.61	248	770.963
1239.11	247.5	803.072
1239.61	247	797.912
1240.11	246.5	806.741
1240.61	246	824.133
1241.11	245.5	776.164
1241.61	245	808.203
1242.11	244.5	820.88
1242.61	244	829.395
1243.11	243.5	820.217
1243.61	243	819.714
1244.11	242.5	851.86
1244.61	242	849.285
1245.11	241.5	838.637
1245.61	241	836.836
1246.11	240.5	833.344
1246.61	240	813.556
1247.11	239.5	775.927
1247.61	239	811.881
1248.11	238.5	825.992
1248.61	238	812.399
1249.11	237.5	842.156
1249.61	237	820.881
1250.11	236.5	798.463
1250.61	236	838.089
1251.11	235.5	837.421
1251.61	235	827.165
1252.11	234.5	826.285
1252.61	234	842.253
1253.11	233.5	822.864
1253.61	233	814.261
1254.11	232.5	818.892
1254.61	232	818.724
1255.11	231.5	810.395
1255.61	231	823.576
1256.11	230.5	832.867
1256.61	230	841.359
1257.11	229.5	826.499
1257.61	229	859.502
1258.11	228.5	839.418
1258.61	228	847.517
1259.11	227.5	848.958
1259.61	227	851.204
1260.11	226.5	848.771
1260.61	226	874.658
1261.11	225.5	854.38
1261.61	225	866.055
1262.11	224.5	845.654
1262.61	224	840.129
1263.11	223.5	814.715
1263.61	223	831.781
1264.11	222.5	845.069
1264.61	222	848.075
1265.11	221.5	868.203
1265.61	221	848.218
1266.11	220.5	850.599
1266.61	220	843.07
1267.11	219.5	838.395
1267.61	219	845.384
1268.11	218.5	847.549
1268.61	218	850.597
1269.11	217.5	838.419
1269.61	217	862.259
1270.11	216.5	851.319
1270.61	216	832.65
1271.11	215.5	880.595
1271.61	215	864.787
1272.11	214.5	863.881
1272.61	214	840.893
1273.11	213.5	865.774
1273.61	213	843.589
1274.11	212.5	848.041
1274.61	212	861.221
1275.11	211.5	866.234
1275.61	211	883.232
1276.11	210.5	865.306
1276.61	210	837.044
1277.11	209.5	875.565
1277.61	209	885.26
1278.11	208.5	866.725
1278.61	208	840.855
1279.11	207.5	861.395
1279.61	207	848.861
1280.11	206.5	864.99
1280.61	206	860.189
1281.11	205.5	874.919
1281.61	205	861.064
1282.11	204.5	862.897
1282.61	204	873.764
1283.11	203.5	861.525
1283.61	203	894.321
1284.11	202.5	899.163
1284.61	202	896.303
1285.11	201.5	869.402
1285.61	201	871.995
1286.11	200.5	874.445
1286.61	200	876.52
1287.11	199.5	889.152
1287.61	199	900.052
1288.11	198.5	879.852
1288.61	198	877.423
1289.11	197.5	880.832
1289.61	197	880.908
1290.11	196.5	872.605
1290.61	196	865.657
1291.11	195.5	894.273
1291.61	195	910.375
1292.11	194.5	869.31
1292.61	194	875.865
1293.11	193.5	859.056
1293.61	193	897.073
1294.11	192.5	883.001
1294.61	192	889.621
1295.11	191.5	887.933
1295.61	191	904.292
1296.11	190.5	890.35
1296.61	190	908.282
1297.11	189.5	906.506
1297.61	189	914.314
1298.11	188.5	887.903
1298.61	188	866.246
1299.11	187.5	898.082
1299.61	187	879.183
1300.11	186.5	881.332
1300.61	186	902.315
1301.11	185.5	906.768
1301.61	185	913.707
1302.11	184.5	903.994
1302.61	184	940.654
1303.11	183.5	918.446
1303.61	183	941
1304.11	182.5	926.437
1304.61	182	898.309
1305.11	181.5	910.613
1305.61	181	928.19
1306.11	180.5	942.267
1306.61	180	942.948
1307.11	179.5	937.059
1307.61	179	911.966
1308.11	178.5	956.874
1308.61	178	957.7
1309.11	177.5	933.108
1309.61	177	905.412
1310.11	176.5	929.114
1310.61	176	935.424
1311.11	175.5	963.802
1311.61	175	952.758
1312.11	174.5	913.906
1312.61	174	938.718
1313.11	173.5	942.563
1313.61	173	949.391
1314.11	172.5	923.803
1314.61	172	946.569
1315.11	171.5	944.051
1315.61	171	927.909
1316.11	170.5	947.446
1316.61	170	930.016
1317.11	169.5	948.949
1317.61	169	937.618
1318.11	168.5	969.928
1318.61	168	951.221
1319.11	167.5	943.883
1319.61	167	924.821
1320.11	166.5	944.025
1320.61	166	960.947
1321.11	165.5	964.246
1321.61	165	954.512
1322.11	164.5	988.155
1322.61	164	964.446
1323.11	163.5	989.674
1323.61	163	1008.26
1324.11	162.5	1002.84
1324.61	162	1010.37
1325.11	161.5	1015.81
1325.61	161	1054.48
1326.11	160.5	1008.52
1326.61	160	977.2
1327.11	159.5	969.541
1327.61	159	974.582
1328.11	158.5	939.46
1328.61	158	946.008
1329.11	157.5	961.32
1329.61	157	970.385
1330.11	156.5	958.559
1330.61	156	954.82
1331.11	155.5	958.762
1331.61	155	982.492
1332.11	154.5	990.463
1332.61	154	966.051
1333.11	153.5	969.288
1333.61	153	988.056
1334.11	152.5	979.795
1334.61	152	1011.85
1335.11	151.5	982.678
1335.61	151	979.522
1336.11	150.5	992.149
1336.61	150	962.623
1337.11	149.5	1003.78
1337.61	149	998.332
1338.11	148.5	993.974
1338.61	148	972.681
1339.11	147.5	957.964
1339.61	147	981.439
1340.11	146.5	984.973
1340.61	146	993.296
1341.11	145.5	995.575
1341.61	145	1008.31
1342.11	144.5	1005.66
1342.61	144	1009.49
1343.11	143.5	1012.02
1343.61	143	1012.2
1344.11	142.5	980.651
1344.61	142	999.198
1345.11	141.5	1016.6
1345.61	141	1002.53
1346.11	140.5	986.298
1346.61	140	976.716
1347.11	139.5	986.382
1347.61	139	995.464
1348.11	138.5	1005.69
1348.61	138	1008.54
1349.11	137.5	1013.44
1349.61	137	1010.47
1350.11	136.5	999.077
1350.61	136	1023.2
1351.11	135.5	1022.97
1351.61	135	1012.85
1352.11	134.5	1005.82
1352.61	134	1034.74
1353.11	133.5	1011.55
1353.61	133	1015.08
1354.11	132.5	997.155
1354.61	132	991.597
1355.11	131.5	1010.72
1355.61	131	1021.99
1356.11	130.5	1019.44
1356.61	130	1022
1357.11	129.5	1016.65
1357.61	129	1037.3
1358.11	128.5	1024.7
1358.61	128	1031.63
1359.11	127.5	1025.59
1359.61	127	1021.16
1360.11	126.5	1012.98
1360.61	126	1022.2
1361.11	125.5	1004.01
1361.61	125	994.139
1362.11	124.5	1035.84
1362.61	124	1039.61
1363.11	123.5	1050.51
1363.61	123	1073.79
1364.11	122.5	1047.71
1364.61	122	1045.91
1365.11	121.5	1057.28
1365.61	121	1064.71
1366.11	120.5	1030.19
1366.61	120	1044.18
1367.11	119.5	1045.22
1367.61	119	1066.51
1368.11	118.5	1046.17
1368.61	118	1037.48
1369.11	117.5	1025.56
1369.61	117	1052.74
1370.11	116.5	1066.42
1370.61	116	1054.88
1371.11	115.5	1041.05
1371.61	115	1040.62
1372.11	114.5	1081.8
1372.61	114	1091.61
1373.11	113.5	1064.63
1373.61	113	1062.79
1374.11	112.5	1049.99
1374.61	112	1053.99
1375.11	111.5	1076.95
1375.61	111	1095.15
1376.11	110.5	1102.25
1376.61	110	1081.01
1377.11	109.5	1051.96
1377.61	109	1070.46
1378.11	108.5	1052.92
1378.61	108	1042.3
1379.11	107.5	1043.41
1379.61	107	1062.32
1380.11	106.5	1039.02
1380.61	106	1048.9
1381.11	105.5	1037.73
1381.61	105	1034.16
1382.11	104.5	1060.09
1382.61	104	1063.31
1383.11	103.5	1052.71
1383.61	103	1073.81
1384.11	102.5	1088.67
1384.61	102	1080.85
1385.11	101.5	1078.93
1385.61	101	1074.1
1386.11	100.5	1112.82
1386.61	100	1152.67
1387.11	99.5	1170.04
1387.61	99	1177.56
1388.11	98.5	1214.55
1388.61	98	1267.32
1389.11	97.5	1278.89
1389.61	97	1297.88
1390.11	96.5	1277.39
1390.61	96	1237.58
1391.11	95.5	1163.65
1391.61	95	1134.82
1392.11	94.5	1093.63
1392.61	94	1081.67
1393.11	93.5	1056.43
1393.61	93	1046.07
1394.11	92.5	1022.01
1394.61	92	1034.44
1395.11	91.5	1005.44
1395.61	91	997.344
1396.11	90.5	1000.96
1396.61	90	1021.6
1397.11	89.5	1013.78
1397.61	89	1015.91
1398.11	88.5	1007.87
1398.61	88	1003.87
1399.11	87.5	1008.39
1399.61	87	1006.2
1400.11	86.5	999.119
1400.61	86	994.983
1401.11	85.5	988.322
1401.61	85	990.947
1402.11	84.5	1011.33
1402.61	84	1015.78
1403.11	83.5	1020.16
1403.61	83	1000.36
1404.11	82.5	1026.59
1404.61	82	975.977
1405.11	81.5	976.113
1405.61	81	1020.63
1406.11	80.5	1012.54
1406.61	80	1011.82
1407.11	79.5	1013.89
1407.61	79	1007.15
1408.11	78.5	1038.23
1408.61	78	1013.72
1409.11	77.5	1017.19
1409.61	77	1009.97
1410.11	76.5	1017
1410.61	76	998.227
1411.11	75.5	961.44
1411.61	75	996.651
1412.11	74.5	1011.58
1412.61	74	995.68
1413.11	73.5	981.953
1413.61	73	968.396
1414.11	72.5	990.401
1414.61	72	974.242
1415.11	71.5	960.482
1415.61	71	972.226
1416.11	70.5	981.198
1416.61	70	976.797
1417.11	69.5	964.143
1417.61	69	944.387
1418.11	68.5	957.36
1418.61	68	997.961
1419.11	67.5	1006.22
1419.61	67	1024.75
1420.11	66.5	1035.27
1420.61	66	1045.36
1421.11	65.5	1056.08
1421.61	65	1109.58
1422.11	64.5	1116.62
1422.61	64	1139.58
1423.11	63.5	1166.82
1423.61	63	1155.27
1424.11	62.5	1149.82
1424.61	62	1161.03
1425.11	61.5	1159.73
1425.61	61	1189.88
1426.11	60.5	1193.53
1426.61	60	1209.86
1427.11	59.5	1218.32
1427.61	59	1201.05
1428.11	58.5	1213.94
1428.61	58	1173.01
1429.11	57.5	1170.12
1429.61	57	1118.47
1430.11	56.5	1087.71
1430.61	56	1048.55
1431.11	55.5	1005.11
1431.61	55	932.269
1432.11	54.5	869.151
1432.61	54	823.732
1433.11	53.5	781.016
1433.61	53	725.148
1434.11	52.5	666.274
1434.61	52	658.066
1435.11	51.5	652.447
1435.61	51	625.288
1436.11	50.5	588.046
1436.61	50	565.023
1437.11	49.5	553.44
1437.61	49	542.122
1438.11	48.5	539.034
1438.61	48	532.668
1439.11	47.5	534.956
1439.61	47	539.686
1440.11	46.5	555.249
1440.61	46	518.603
1441.11	45.5	497.16
1441.61	45	522.428
1442.11	44.5	524.034
1442.61	44	514.248
1443.11	43.5	523.59
1443.61	43	515.131
1444.11	42.5	484.201
1444.61	42	505.882
1445.11	41.5	503.821
1445.61	41	497.007
1446.11	40.5	507.844
1446.61	40	492.599
1447.11	39.5	485.136
1447.61	39	494.194
1448.11	38.5	506.546
1448.61	38	504.461
1449.11	37.5	492.214
1449.61	37	518.463
1450.11	36.5	502.289
1450.61	36	517.361
1451.11	35.5	532.529
1451.61	35	541.917
1452.11	34.5	528.67
1452.61	34	545.581
1453.11	33.5	558.46
1453.61	33	576.11
1454.11	32.5	549.668
1454.61	32	537.12
1455.11	31.5	530.112
1455.61	31	520.039
1456.11	30.5	525.399
1456.61	30	522.875
1457.11	29.5	514.54
1457.61	29	515.01
1458.11	28.5	512.931
1458.61	28	516.523
1459.11	27.5	503.614
1459.61	27	514.506
1460.11	26.5	518.96
1460.61	26	521.121
1461.11	25.5	527.739
1461.61	25	519.361
1462.11	24.5	535.321
1462.61	24	537.533
1463.11	23.5	523.734
1463.61	23	515.334
1464.11	22.5	526.462
1464.61	22	538.64
1465.11	21.5	563.693
1465.61	21	592.252
1466.11	20.5	616.268
1466.61	20	646.696
1467.11	19.5	596.307
1467.61	19	604.043
1468.11	18.5	578.962
1468.61	18	533.883
1469.11	17.5	480.74
1469.61	17	421.498
1470.11	16.5	342.511
1470.61	16	316.737
1471.11	15.5	329.278
1471.61	15	439.088
1472.11	14.5	434.74
1472.61	14	320.613
1473.11	13.5	317.048
1473.61	13	326.891
1474.11	12.5	297.729
1474.61	12	289.241
1475.11	11.5	313.28
1475.61	11	286.362
1476.11	10.5	299.84
1476.61	10	320.685
1477.11	9.5	322.661
1477.61	9	345.208
1478.11	8.5	376.412
1478.61	8	563.392
1479.11	7.5	1073.86
1479.61	7	1736.53
1480.11	6.5	2062.18
1480.61	6	2097.35
1481.11	5.5	2289.36
1481.61	5	2438.77
1482.11	4.5	2316.8
1482.61	4	1398.82
1483.11	3.5	354.436
1483.61	3	178.588
1484.11	2.5	138.019
1484.61	2	119.13
1485.11	1.5	122.795
1485.61	1	97.654
1486.11	0.5	93.0218
1486.61	-2.27374e-013	54.5831