C:\Users\Mark\ownCloud\Muelheim Group\Projects\Gas phase background\EX340_CEC356_Ag N2 LargeArea.vms
Survey
	Characteristic Energy eV	1486.61	Acquisition Time s	0.9
KE_Survey	BE_Survey	CPS_Survey	Background_Survey
286.61	1200	13497.8	13497.8
287.11	1199.5	13632.8	13632.8
287.61	1199	13645.2	13645.2
288.11	1198.5	13573.6	13573.6
288.61	1198	13832.1	13832.1
289.11	1197.5	13882.3	13882.3
289.61	1197	13884.1	13884.1
290.11	1196.5	14022.4	14022.4
290.61	1196	14023.2	14023.2
291.11	1195.5	14063.9	14063.9
291.61	1195	14226.2	14226.2
292.11	1194.5	14172.3	14172.3
292.61	1194	14029.4	14029.4
293.11	1193.5	14444.1	14444.1
293.61	1193	14258.8	14258.8
294.11	1192.5	14371.4	14371.4
294.61	1192	14320.4	14320.4
295.11	1191.5	14354.7	14354.7
295.61	1191	14331.9	14331.9
296.11	1190.5	14250.4	14250.4
296.61	1190	14282.1	14282.1
297.11	1189.5	14307.3	14307.3
297.61	1189	14004	14004
298.11	1188.5	14058	14058
298.61	1188	13848.8	13848.8
299.11	1187.5	13743.1	13743.1
299.61	1187	13928.1	13928.1
300.11	1186.5	14006.6	14006.6
300.61	1186	13675.6	13675.6
301.11	1185.5	13871.2	13871.2
301.61	1185	13444	13444
302.11	1184.5	13344.9	13344.9
302.61	1184	13009.3	13009.3
303.11	1183.5	12810.6	12810.6
303.61	1183	12701.1	12701.1
304.11	1182.5	12473.9	12473.9
304.61	1182	12385.2	12385.2
305.11	1181.5	12116.3	12116.3
305.61	1181	11781.1	11781.1
306.11	1180.5	11838.1	11838.1
306.61	1180	11540.4	11540.4
307.11	1179.5	11476	11476
307.61	1179	11282.9	11282.9
308.11	1178.5	10912.4	10912.4
308.61	1178	10775.7	10775.7
309.11	1177.5	10689.7	10689.7
309.61	1177	10579.9	10579.9
310.11	1176.5	10508.7	10508.7
310.61	1176	10443	10443
311.11	1175.5	10281.1	10281.1
311.61	1175	10265.9	10265.9
312.11	1174.5	10251.6	10251.6
312.61	1174	10172.8	10172.8
313.11	1173.5	10037.5	10037.5
313.61	1173	9852.3	9852.3
314.11	1172.5	9846.81	9846.81
314.61	1172	9764.51	9764.51
315.11	1171.5	9783.73	9783.73
315.61	1171	9802.33	9802.33
316.11	1170.5	9865.06	9865.06
316.61	1170	9680.92	9680.92
317.11	1169.5	9716.31	9716.31
317.61	1169	9750.54	9750.54
318.11	1168.5	9548.82	9548.82
318.61	1168	9807.88	9807.88
319.11	1167.5	9854.11	9854.11
319.61	1167	9891.07	9891.07
320.11	1166.5	9734.58	9734.58
320.61	1166	9647.94	9647.94
321.11	1165.5	9770.87	9770.87
321.61	1165	9747.87	9747.87
322.11	1164.5	9879.08	9879.08
322.61	1164	9801.02	9801.02
323.11	1163.5	9769.71	9769.71
323.61	1163	9803.59	9803.59
324.11	1162.5	9983.64	9983.64
324.61	1162	10062.6	10062.6
325.11	1161.5	9948.08	9948.08
325.61	1161	9996.44	9996.44
326.11	1160.5	9918.74	9918.74
326.61	1160	10086.4	10086.4
327.11	1159.5	9915.01	9915.01
327.61	1159	9841.9	9841.9
328.11	1158.5	9976.08	9976.08
328.61	1158	10026.2	10026.2
329.11	1157.5	9986.77	9986.77
329.61	1157	9959.54	9959.54
330.11	1156.5	10031.7	10031.7
330.61	1156	9956.61	9956.61
331.11	1155.5	10048.3	10048.3
331.61	1155	10285.9	10285.9
332.11	1154.5	10295.8	10295.8
332.61	1154	10266.1	10266.1
333.11	1153.5	10333.3	10333.3
333.61	1153	10164.2	10164.2
334.11	1152.5	10272.8	10272.8
334.61	1152	10259	10259
335.11	1151.5	10470.6	10470.6
335.61	1151	10352.2	10352.2
336.11	1150.5	10293.9	10293.9
336.61	1150	10354.2	10354.2
337.11	1149.5	10401.5	10401.5
337.61	1149	10388.9	10388.9
338.11	1148.5	10532.2	10532.2
338.61	1148	10620.6	10620.6
339.11	1147.5	10606.1	10606.1
339.61	1147	10735.6	10735.6
340.11	1146.5	10663.4	10663.4
340.61	1146	10766.7	10766.7
341.11	1145.5	10748	10748
341.61	1145	11139	11139
342.11	1144.5	11109.1	11109.1
342.61	1144	11137.8	11137.8
343.11	1143.5	11341.7	11341.7
343.61	1143	11392.2	11392.2
344.11	1142.5	11548.8	11548.8
344.61	1142	11766.2	11766.2
345.11	1141.5	11861	11861
345.61	1141	11918.6	11918.6
346.11	1140.5	12208.2	12208.2
346.61	1140	12690.8	12690.8
347.11	1139.5	13010.3	13010.3
347.61	1139	13507.9	13507.9
348.11	1138.5	14063.4	14063.4
348.61	1138	14865.9	14865.9
349.11	1137.5	14736.6	14736.6
349.61	1137	14667.3	14667.3
350.11	1136.5	15127.9	15127.9
350.61	1136	16184.6	16184.6
351.11	1135.5	19046.7	19046.7
351.61	1135	23394.7	23394.7
352.11	1134.5	23381.2	23381.2
352.61	1134	21482.2	21482.2
353.11	1133.5	20498.6	20498.6
353.61	1133	19731	19731
354.11	1132.5	17705.1	17705.1
354.61	1132	16061.9	16061.9
355.11	1131.5	14918	14918
355.61	1131	14239.4	14239.4
356.11	1130.5	13744.1	13744.1
356.61	1130	14117.3	14117.3
357.11	1129.5	16124.3	16124.3
357.61	1129	19675	19675
358.11	1128.5	18797.4	18797.4
358.61	1128	15222.3	15222.3
359.11	1127.5	13395.9	13395.9
359.61	1127	11485.8	11485.8
360.11	1126.5	9895.41	9895.41
360.61	1126	9109.88	9109.88
361.11	1125.5	9068.13	9068.13
361.61	1125	8703.16	8703.16
362.11	1124.5	8421.09	8421.09
362.61	1124	8352.17	8352.17
363.11	1123.5	8228.43	8228.43
363.61	1123	8012.92	8012.92
364.11	1122.5	7729	7729
364.61	1122	7637.11	7637.11
365.11	1121.5	7516.9	7516.9
365.61	1121	7498.23	7498.23
366.11	1120.5	7298.49	7298.49
366.61	1120	7212.08	7212.08
367.11	1119.5	7158.34	7158.34
367.61	1119	7036.43	7036.43
368.11	1118.5	7013.69	7013.69
368.61	1118	7008.67	7008.67
369.11	1117.5	6970.26	6970.26
369.61	1117	6768.12	6768.12
370.11	1116.5	6732.82	6732.82
370.61	1116	6786.34	6786.34
371.11	1115.5	6756.1	6756.1
371.61	1115	6754.92	6754.92
372.11	1114.5	6793.83	6793.83
372.61	1114	6640.82	6640.82
373.11	1113.5	6585.97	6585.97
373.61	1113	6751.06	6751.06
374.11	1112.5	6650.89	6650.89
374.61	1112	6645.93	6645.93
375.11	1111.5	6594.12	6594.12
375.61	1111	6644.67	6644.67
376.11	1110.5	6650.51	6650.51
376.61	1110	6661.09	6661.09
377.11	1109.5	6661.77	6661.77
377.61	1109	6708.36	6708.36
378.11	1108.5	6753.24	6753.24
378.61	1108	6711.14	6711.14
379.11	1107.5	6594.78	6594.78
379.61	1107	6626.62	6626.62
380.11	1106.5	6630.42	6630.42
380.61	1106	6722.61	6722.61
381.11	1105.5	6604.79	6604.79
381.61	1105	6542.16	6542.16
382.11	1104.5	6691.47	6691.47
382.61	1104	6680.83	6680.83
383.11	1103.5	6635.59	6635.59
383.61	1103	6672.64	6672.64
384.11	1102.5	6656.51	6656.51
384.61	1102	6577.16	6577.16
385.11	1101.5	6707.19	6707.19
385.61	1101	6595.06	6595.06
386.11	1100.5	6612.02	6612.02
386.61	1100	6737.44	6737.44
387.11	1099.5	6710.67	6710.67
387.61	1099	6697.48	6697.48
388.11	1098.5	6650.46	6650.46
388.61	1098	6727.56	6727.56
389.11	1097.5	6736.08	6736.08
389.61	1097	6753.52	6753.52
390.11	1096.5	6679.89	6679.89
390.61	1096	6598.78	6598.78
391.11	1095.5	6662.09	6662.09
391.61	1095	6711.67	6711.67
392.11	1094.5	6704.9	6704.9
392.61	1094	6626.66	6626.66
393.11	1093.5	6742.68	6742.68
393.61	1093	6697.26	6697.26
394.11	1092.5	6625.61	6625.61
394.61	1092	6730.47	6730.47
395.11	1091.5	6810.13	6810.13
395.61	1091	6792.2	6792.2
396.11	1090.5	6852.19	6852.19
396.61	1090	6794.31	6794.31
397.11	1089.5	6720.86	6720.86
397.61	1089	6633.23	6633.23
398.11	1088.5	6652.62	6652.62
398.61	1088	6762.12	6762.12
399.11	1087.5	6751.48	6751.48
399.61	1087	6637.88	6637.88
400.11	1086.5	6666.32	6666.32
400.61	1086	6665.2	6665.2
401.11	1085.5	6716.58	6716.58
401.61	1085	6814.03	6814.03
402.11	1084.5	6820.76	6820.76
402.61	1084	6770.14	6770.14
403.11	1083.5	6723.26	6723.26
403.61	1083	6783.11	6783.11
404.11	1082.5	6714.27	6714.27
404.61	1082	6768.93	6768.93
405.11	1081.5	6814.62	6814.62
405.61	1081	6817.92	6817.92
406.11	1080.5	6693.27	6693.27
406.61	1080	6750.16	6750.16
407.11	1079.5	6845.73	6845.73
407.61	1079	6914.96	6914.96
408.11	1078.5	6771.2	6771.2
408.61	1078	6856.52	6856.52
409.11	1077.5	6935.27	6935.27
409.61	1077	6825.28	6825.28
410.11	1076.5	6785.21	6785.21
410.61	1076	6727.23	6727.23
411.11	1075.5	6702.02	6702.02
411.61	1075	6891.22	6891.22
412.11	1074.5	6857.66	6857.66
412.61	1074	6922.93	6922.93
413.11	1073.5	6814.28	6814.28
413.61	1073	6806.18	6806.18
414.11	1072.5	6879.79	6879.79
414.61	1072	6883.4	6883.4
415.11	1071.5	6906.41	6906.41
415.61	1071	6891.51	6891.51
416.11	1070.5	6901.4	6901.4
416.61	1070	6863.83	6863.83
417.11	1069.5	6859.97	6859.97
417.61	1069	6711.73	6711.73
418.11	1068.5	6955.22	6955.22
418.61	1068	6977.11	6977.11
419.11	1067.5	6850.53	6850.53
419.61	1067	6924.98	6924.98
420.11	1066.5	6855.17	6855.17
420.61	1066	6802.1	6802.1
421.11	1065.5	6877.79	6877.79
421.61	1065	6937.1	6937.1
422.11	1064.5	6847.71	6847.71
422.61	1064	6768.61	6768.61
423.11	1063.5	6839.06	6839.06
423.61	1063	6896.6	6896.6
424.11	1062.5	6869.03	6869.03
424.61	1062	6942.21	6942.21
425.11	1061.5	6992.97	6992.97
425.61	1061	7013.53	7013.53
426.11	1060.5	6964.63	6964.63
426.61	1060	6881.96	6881.96
427.11	1059.5	6955.53	6955.53
427.61	1059	6968.27	6968.27
428.11	1058.5	7080.69	7080.69
428.61	1058	6905.67	6905.67
429.11	1057.5	7029.07	7029.07
429.61	1057	6959.32	6959.32
430.11	1056.5	6984.04	6984.04
430.61	1056	6974.46	6974.46
431.11	1055.5	6965.24	6965.24
431.61	1055	7051.27	7051.27
432.11	1054.5	6960.97	6960.97
432.61	1054	6922.71	6922.71
433.11	1053.5	7217.44	7217.44
433.61	1053	7006.14	7006.14
434.11	1052.5	7124.49	7124.49
434.61	1052	7053.48	7053.48
435.11	1051.5	7047.73	7047.73
435.61	1051	6954.96	6954.96
436.11	1050.5	7081.23	7081.23
436.61	1050	6971.78	6971.78
437.11	1049.5	7058.49	7058.49
437.61	1049	7135.22	7135.22
438.11	1048.5	7151.94	7151.94
438.61	1048	7102.84	7102.84
439.11	1047.5	6966.03	6966.03
439.61	1047	7061.41	7061.41
440.11	1046.5	7122.4	7122.4
440.61	1046	7050.76	7050.76
441.11	1045.5	7158.6	7158.6
441.61	1045	7144.06	7144.06
442.11	1044.5	7116.4	7116.4
442.61	1044	7094.18	7094.18
443.11	1043.5	7127.59	7127.59
443.61	1043	7096.88	7096.88
444.11	1042.5	7181.78	7181.78
444.61	1042	6961.12	6961.12
445.11	1041.5	7125.66	7125.66
445.61	1041	7071.43	7071.43
446.11	1040.5	7137.43	7137.43
446.61	1040	7146.26	7146.26
447.11	1039.5	7143.58	7143.58
447.61	1039	7201.16	7201.16
448.11	1038.5	7163.13	7163.13
448.61	1038	7118.72	7118.72
449.11	1037.5	7223.83	7223.83
449.61	1037	7102.89	7102.89
450.11	1036.5	7090.06	7090.06
450.61	1036	7064.92	7064.92
451.11	1035.5	7076.83	7076.83
451.61	1035	7212.86	7212.86
452.11	1034.5	7244.57	7244.57
452.61	1034	7193.97	7193.97
453.11	1033.5	7036.9	7036.9
453.61	1033	7061.44	7061.44
454.11	1032.5	7142.48	7142.48
454.61	1032	7148.33	7148.33
455.11	1031.5	7219.44	7219.44
455.61	1031	7119.51	7119.51
456.11	1030.5	7133.72	7133.72
456.61	1030	7154.09	7154.09
457.11	1029.5	7157.72	7157.72
457.61	1029	7106.08	7106.08
458.11	1028.5	7213.73	7213.73
458.61	1028	7303.96	7303.96
459.11	1027.5	7228.22	7228.22
459.61	1027	7307.14	7307.14
460.11	1026.5	7089.02	7089.02
460.61	1026	7220.9	7220.9
461.11	1025.5	7331.96	7331.96
461.61	1025	7323.57	7323.57
462.11	1024.5	7295.07	7295.07
462.61	1024	7288.92	7288.92
463.11	1023.5	7253.56	7253.56
463.61	1023	7252.07	7252.07
464.11	1022.5	7164.16	7164.16
464.61	1022	7249.22	7249.22
465.11	1021.5	7313.81	7313.81
465.61	1021	7158.53	7158.53
466.11	1020.5	7337.38	7337.38
466.61	1020	7346.98	7346.98
467.11	1019.5	7134.56	7134.56
467.61	1019	7079.1	7079.1
468.11	1018.5	7198.41	7198.41
468.61	1018	7303.02	7303.02
469.11	1017.5	7277.91	7277.91
469.61	1017	7316.54	7316.54
470.11	1016.5	7220.06	7220.06
470.61	1016	7282.81	7282.81
471.11	1015.5	7266.24	7266.24
471.61	1015	7267.23	7267.23
472.11	1014.5	7303.78	7303.78
472.61	1014	7298.76	7298.76
473.11	1013.5	7279.9	7279.9
473.61	1013	7230.08	7230.08
474.11	1012.5	7366.46	7366.46
474.61	1012	7273.06	7273.06
475.11	1011.5	7194.14	7194.14
475.61	1011	7257.54	7257.54
476.11	1010.5	7318.26	7318.26
476.61	1010	7218.94	7218.94
477.11	1009.5	7323.69	7323.69
477.61	1009	7357.47	7357.47
478.11	1008.5	7414.7	7414.7
478.61	1008	7425.09	7425.09
479.11	1007.5	7408.77	7408.77
479.61	1007	7292.72	7292.72
480.11	1006.5	7335.99	7335.99
480.61	1006	7321.03	7321.03
481.11	1005.5	7322.37	7322.37
481.61	1005	7343.08	7343.08
482.11	1004.5	7455.46	7455.46
482.61	1004	7362.26	7362.26
483.11	1003.5	7525.83	7525.83
483.61	1003	7540.73	7540.73
484.11	1002.5	7501.89	7501.89
484.61	1002	7450.82	7450.82
485.11	1001.5	7475.57	7475.57
485.61	1001	7528.81	7528.81
486.11	1000.5	7486.86	7486.86
486.61	1000	7501.01	7501.01
487.11	999.5	7368.98	7368.98
487.61	999	7422.37	7422.37
488.11	998.5	7499.86	7499.86
488.61	998	7486.11	7486.11
489.11	997.5	7546.96	7546.96
489.61	997	7515.32	7515.32
490.11	996.5	7443.19	7443.19
490.61	996	7467.26	7467.26
491.11	995.5	7605.67	7605.67
491.61	995	7524.7	7524.7
492.11	994.5	7461.53	7461.53
492.61	994	7480.32	7480.32
493.11	993.5	7621	7621
493.61	993	7535.26	7535.26
494.11	992.5	7547.71	7547.71
494.61	992	7650.36	7650.36
495.11	991.5	7523.66	7523.66
495.61	991	7551.71	7551.71
496.11	990.5	7577.79	7577.79
496.61	990	7520.18	7520.18
497.11	989.5	7511.49	7511.49
497.61	989	7559.61	7559.61
498.11	988.5	7639.8	7639.8
498.61	988	7713.89	7713.89
499.11	987.5	7618.98	7618.98
499.61	987	7529.68	7529.68
500.11	986.5	7600.26	7600.26
500.61	986	7623.57	7623.57
501.11	985.5	7690.92	7690.92
501.61	985	7650.67	7650.67
502.11	984.5	7634.93	7634.93
502.61	984	7639.66	7639.66
503.11	983.5	7705.41	7705.41
503.61	983	7559.97	7559.97
504.11	982.5	7674.73	7674.73
504.61	982	7509.72	7509.72
505.11	981.5	7576.7	7576.7
505.61	981	7678.3	7678.3
506.11	980.5	7768.2	7768.2
506.61	980	7647.79	7647.79
507.11	979.5	7527.28	7527.28
507.61	979	7679.53	7679.53
508.11	978.5	7761.23	7761.23
508.61	978	7758.92	7758.92
509.11	977.5	7559.11	7559.11
509.61	977	7692	7692
510.11	976.5	7683.04	7683.04
510.61	976	7590.31	7590.31
511.11	975.5	7597.43	7597.43
511.61	975	7684.32	7684.32
512.11	974.5	7762.06	7762.06
512.61	974	7725.5	7725.5
513.11	973.5	7720.02	7720.02
513.61	973	7692.29	7692.29
514.11	972.5	7618.71	7618.71
514.61	972	7657.57	7657.57
515.11	971.5	7729.6	7729.6
515.61	971	7644.94	7644.94
516.11	970.5	7635.49	7635.49
516.61	970	7745.91	7745.91
517.11	969.5	7714.72	7714.72
517.61	969	7595.71	7595.71
518.11	968.5	7624.51	7624.51
518.61	968	7640.21	7640.21
519.11	967.5	7649.03	7649.03
519.61	967	7638.71	7638.71
520.11	966.5	7490.56	7490.56
520.61	966	7572.23	7572.23
521.11	965.5	7595.96	7595.96
521.61	965	7734.06	7734.06
522.11	964.5	7609.38	7609.38
522.61	964	7652.89	7652.89
523.11	963.5	7678.32	7678.32
523.61	963	7615.36	7615.36
524.11	962.5	7583.06	7583.06
524.61	962	7669.74	7669.74
525.11	961.5	7573.74	7573.74
525.61	961	7631.8	7631.8
526.11	960.5	7635.97	7635.97
526.61	960	7690.22	7690.22
527.11	959.5	7670.7	7670.7
527.61	959	7611.01	7611.01
528.11	958.5	7638.62	7638.62
528.61	958	7644.43	7644.43
529.11	957.5	7632.37	7632.37
529.61	957	7775.66	7775.66
530.11	956.5	7576.11	7576.11
530.61	956	7616.94	7616.94
531.11	955.5	7682.89	7682.89
531.61	955	7649.01	7649.01
532.11	954.5	7617.31	7617.31
532.61	954	7592.9	7592.9
533.11	953.5	7520.99	7520.99
533.61	953	7642.63	7642.63
534.11	952.5	7753.84	7753.84
534.61	952	7762.49	7762.49
535.11	951.5	7619.94	7619.94
535.61	951	7490.22	7490.22
536.11	950.5	7524.37	7524.37
536.61	950	7623.11	7623.11
537.11	949.5	7674.38	7674.38
537.61	949	7658.27	7658.27
538.11	948.5	7635.74	7635.74
538.61	948	7687.22	7687.22
539.11	947.5	7695.84	7695.84
539.61	947	7675.44	7675.44
540.11	946.5	7707.26	7707.26
540.61	946	7787.92	7787.92
541.11	945.5	7884.53	7884.53
541.61	945	7629.59	7629.59
542.11	944.5	7678.74	7678.74
542.61	944	7688.1	7688.1
543.11	943.5	7731.42	7731.42
543.61	943	7689.51	7689.51
544.11	942.5	7712.02	7712.02
544.61	942	7784.23	7784.23
545.11	941.5	7696.63	7696.63
545.61	941	7712.72	7712.72
546.11	940.5	7800.04	7800.04
546.61	940	7878.26	7878.26
547.11	939.5	7813.49	7813.49
547.61	939	7643.7	7643.7
548.11	938.5	7789.5	7789.5
548.61	938	7882.7	7882.7
549.11	937.5	7837.73	7837.73
549.61	937	7786.24	7786.24
550.11	936.5	7790.99	7790.99
550.61	936	7771.57	7771.57
551.11	935.5	7769.21	7769.21
551.61	935	7795.9	7795.9
552.11	934.5	7787.66	7787.66
552.61	934	7924.82	7924.82
553.11	933.5	7811.42	7811.42
553.61	933	7827.26	7827.26
554.11	932.5	7749.48	7749.48
554.61	932	7947.69	7947.69
555.11	931.5	7922.06	7922.06
555.61	931	7811.84	7811.84
556.11	930.5	7821.54	7821.54
556.61	930	7858.4	7858.4
557.11	929.5	7810.21	7810.21
557.61	929	7870.76	7870.76
558.11	928.5	7855.74	7855.74
558.61	928	7808.46	7808.46
559.11	927.5	7785.6	7785.6
559.61	927	7781.01	7781.01
560.11	926.5	7902.49	7902.49
560.61	926	7886.83	7886.83
561.11	925.5	7874.49	7874.49
561.61	925	7926.29	7926.29
562.11	924.5	7972.09	7972.09
562.61	924	7796.64	7796.64
563.11	923.5	7866.43	7866.43
563.61	923	7864.51	7864.51
564.11	922.5	7898.27	7898.27
564.61	922	7808.41	7808.41
565.11	921.5	7973.53	7973.53
565.61	921	7997.56	7997.56
566.11	920.5	7818.94	7818.94
566.61	920	7895.89	7895.89
567.11	919.5	7918.8	7918.8
567.61	919	7842.23	7842.23
568.11	918.5	7877.63	7877.63
568.61	918	8017.73	8017.73
569.11	917.5	7990.59	7990.59
569.61	917	8055.81	8055.81
570.11	916.5	7879.16	7879.16
570.61	916	8051.59	8051.59
571.11	915.5	7885.72	7885.72
571.61	915	7904.88	7904.88
572.11	914.5	7937	7937
572.61	914	8066.74	8066.74
573.11	913.5	8011.5	8011.5
573.61	913	8077.94	8077.94
574.11	912.5	8043.93	8043.93
574.61	912	7983.97	7983.97
575.11	911.5	8163.33	8163.33
575.61	911	7928.79	7928.79
576.11	910.5	7938.13	7938.13
576.61	910	7906	7906
577.11	909.5	7938.98	7938.98
577.61	909	8081.33	8081.33
578.11	908.5	8075.9	8075.9
578.61	908	8207.43	8207.43
579.11	907.5	8175.83	8175.83
579.61	907	8175.12	8175.12
580.11	906.5	8068.81	8068.81
580.61	906	8063.69	8063.69
581.11	905.5	8194.81	8194.81
581.61	905	8157.41	8157.41
582.11	904.5	8009.4	8009.4
582.61	904	8085.4	8085.4
583.11	903.5	8109.81	8109.81
583.61	903	8064.27	8064.27
584.11	902.5	8041.69	8041.69
584.61	902	8048.33	8048.33
585.11	901.5	8135.08	8135.08
585.61	901	8203	8203
586.11	900.5	8184.89	8184.89
586.61	900	8167.37	8167.37
587.11	899.5	8105.29	8105.29
587.61	899	8146.5	8146.5
588.11	898.5	8206.78	8206.78
588.61	898	8226.66	8226.66
589.11	897.5	8197.48	8197.48
589.61	897	8333.08	8333.08
590.11	896.5	8367.59	8367.59
590.61	896	8088.87	8088.87
591.11	895.5	8292.44	8292.44
591.61	895	8250.97	8250.97
592.11	894.5	8133.41	8133.41
592.61	894	8239.42	8239.42
593.11	893.5	8164.07	8164.07
593.61	893	8215.24	8215.24
594.11	892.5	8151.54	8151.54
594.61	892	8201.16	8201.16
595.11	891.5	8219.53	8219.53
595.61	891	8269.5	8269.5
596.11	890.5	8296.69	8296.69
596.61	890	8397.56	8397.56
597.11	889.5	8312.98	8312.98
597.61	889	8214.99	8214.99
598.11	888.5	8272.98	8272.98
598.61	888	8169.46	8169.46
599.11	887.5	8263.68	8263.68
599.61	887	8358.59	8358.59
600.11	886.5	8262.9	8262.9
600.61	886	8346.91	8346.91
601.11	885.5	8347.46	8347.46
601.61	885	8250.59	8250.59
602.11	884.5	8183.46	8183.46
602.61	884	8303.73	8303.73
603.11	883.5	8199.61	8199.61
603.61	883	8277.46	8277.46
604.11	882.5	8311.64	8311.64
604.61	882	8415.78	8415.78
605.11	881.5	8423.64	8423.64
605.61	881	8323.51	8323.51
606.11	880.5	8385.33	8385.33
606.61	880	8592.21	8592.21
607.11	879.5	8437.88	8437.88
607.61	879	8346.8	8346.8
608.11	878.5	8389.33	8389.33
608.61	878	8423.28	8423.28
609.11	877.5	8283.82	8283.82
609.61	877	8532.92	8532.92
610.11	876.5	8470.41	8470.41
610.61	876	8378.37	8378.37
611.11	875.5	8525.39	8525.39
611.61	875	8339.42	8339.42
612.11	874.5	8417.96	8417.96
612.61	874	8451.76	8451.76
613.11	873.5	8536.5	8536.5
613.61	873	8438.19	8438.19
614.11	872.5	8378.51	8378.51
614.61	872	8440.86	8440.86
615.11	871.5	8434.51	8434.51
615.61	871	8565.4	8565.4
616.11	870.5	8623.38	8623.38
616.61	870	8485.58	8485.58
617.11	869.5	8563.32	8563.32
617.61	869	8473.06	8473.06
618.11	868.5	8524.73	8524.73
618.61	868	8547.34	8547.34
619.11	867.5	8453.87	8453.87
619.61	867	8487.9	8487.9
620.11	866.5	8586.37	8586.37
620.61	866	8543.7	8543.7
621.11	865.5	8629.56	8629.56
621.61	865	8608.59	8608.59
622.11	864.5	8521.46	8521.46
622.61	864	8624.67	8624.67
623.11	863.5	8517.4	8517.4
623.61	863	8697.01	8697.01
624.11	862.5	8669.48	8669.48
624.61	862	8501.44	8501.44
625.11	861.5	8478.78	8478.78
625.61	861	8615.47	8615.47
626.11	860.5	8595.69	8595.69
626.61	860	8477.1	8477.1
627.11	859.5	8643.32	8643.32
627.61	859	8556.18	8556.18
628.11	858.5	8622.59	8622.59
628.61	858	8779.42	8779.42
629.11	857.5	8593.46	8593.46
629.61	857	8682.14	8682.14
630.11	856.5	8768.68	8768.68
630.61	856	8702.6	8702.6
631.11	855.5	8701.72	8701.72
631.61	855	8730.96	8730.96
632.11	854.5	8765.77	8765.77
632.61	854	8692.68	8692.68
633.11	853.5	8665.37	8665.37
633.61	853	8723.94	8723.94
634.11	852.5	8552.33	8552.33
634.61	852	8691.12	8691.12
635.11	851.5	8614.23	8614.23
635.61	851	8519.92	8519.92
636.11	850.5	8738.34	8738.34
636.61	850	8727.27	8727.27
637.11	849.5	8747.54	8747.54
637.61	849	8828.6	8828.6
638.11	848.5	8770.99	8770.99
638.61	848	8673.2	8673.2
639.11	847.5	8757.4	8757.4
639.61	847	8801.97	8801.97
640.11	846.5	8664.29	8664.29
640.61	846	8708.41	8708.41
641.11	845.5	8749.67	8749.67
641.61	845	8935.52	8935.52
642.11	844.5	8890.56	8890.56
642.61	844	8814.99	8814.99
643.11	843.5	8662.91	8662.91
643.61	843	8777.4	8777.4
644.11	842.5	8699.8	8699.8
644.61	842	8749.97	8749.97
645.11	841.5	8853.18	8853.18
645.61	841	8848.29	8848.29
646.11	840.5	9004.06	9004.06
646.61	840	8938.78	8938.78
647.11	839.5	8867.7	8867.7
647.61	839	8911.46	8911.46
648.11	838.5	8900.67	8900.67
648.61	838	9044.71	9044.71
649.11	837.5	8976.19	8976.19
649.61	837	8874.37	8874.37
650.11	836.5	8974.11	8974.11
650.61	836	8940.86	8940.86
651.11	835.5	8937.1	8937.1
651.61	835	8990.39	8990.39
652.11	834.5	9093.81	9093.81
652.61	834	9098.36	9098.36
653.11	833.5	8951.77	8951.77
653.61	833	8947.17	8947.17
654.11	832.5	9037.73	9037.73
654.61	832	8800.93	8800.93
655.11	831.5	8809.2	8809.2
655.61	831	9020.29	9020.29
656.11	830.5	9004.81	9004.81
656.61	830	9056.58	9056.58
657.11	829.5	8922.18	8922.18
657.61	829	8934.36	8934.36
658.11	828.5	8936.93	8936.93
658.61	828	8916.93	8916.93
659.11	827.5	9045.39	9045.39
659.61	827	9037.09	9037.09
660.11	826.5	9016.08	9016.08
660.61	826	9006.4	9006.4
661.11	825.5	9043.9	9043.9
661.61	825	9039.91	9039.91
662.11	824.5	9101.09	9101.09
662.61	824	8985.41	8985.41
663.11	823.5	9195.72	9195.72
663.61	823	9101.96	9101.96
664.11	822.5	8896.62	8896.62
664.61	822	8856.87	8856.87
665.11	821.5	8953.82	8953.82
665.61	821	9219.64	9219.64
666.11	820.5	9025.02	9025.02
666.61	820	9226.44	9226.44
667.11	819.5	9164.98	9164.98
667.61	819	9154.09	9154.09
668.11	818.5	9208.53	9208.53
668.61	818	9172.98	9172.98
669.11	817.5	9139.4	9139.4
669.61	817	9102.3	9102.3
670.11	816.5	9206.59	9206.59
670.61	816	9219.98	9219.98
671.11	815.5	9248.26	9248.26
671.61	815	9191.69	9191.69
672.11	814.5	9167.91	9167.91
672.61	814	9095.48	9095.48
673.11	813.5	9233.83	9233.83
673.61	813	9343.52	9343.52
674.11	812.5	9258.54	9258.54
674.61	812	9346.16	9346.16
675.11	811.5	9199.46	9199.46
675.61	811	9282.63	9282.63
676.11	810.5	9278.2	9278.2
676.61	810	9374.51	9374.51
677.11	809.5	9362.97	9362.97
677.61	809	9418.69	9418.69
678.11	808.5	9220.93	9220.93
678.61	808	9261.69	9261.69
679.11	807.5	9240.23	9240.23
679.61	807	9249.9	9249.9
680.11	806.5	9248.28	9248.28
680.61	806	9204.88	9204.88
681.11	805.5	9282.84	9282.84
681.61	805	9430.31	9430.31
682.11	804.5	9535.99	9535.99
682.61	804	9229.84	9229.84
683.11	803.5	9345.86	9345.86
683.61	803	9299.33	9299.33
684.11	802.5	9193.3	9193.3
684.61	802	9220.83	9220.83
685.11	801.5	9391.29	9391.29
685.61	801	9458.11	9458.11
686.11	800.5	9594.46	9594.46
686.61	800	9542.68	9542.68
687.11	799.5	9439.04	9439.04
687.61	799	9378.16	9378.16
688.11	798.5	9538.71	9538.71
688.61	798	9506.28	9506.28
689.11	797.5	9394.16	9394.16
689.61	797	9502.01	9502.01
690.11	796.5	9375.6	9375.6
690.61	796	9330.89	9330.89
691.11	795.5	9554.21	9554.21
691.61	795	9469.34	9469.34
692.11	794.5	9568.56	9568.56
692.61	794	9529.2	9529.2
693.11	793.5	9589.11	9589.11
693.61	793	9554.64	9554.64
694.11	792.5	9564.7	9564.7
694.61	792	9643.88	9643.88
695.11	791.5	9534.58	9534.58
695.61	791	9439.37	9439.37
696.11	790.5	9499.8	9499.8
696.61	790	9569.61	9569.61
697.11	789.5	9648.18	9648.18
697.61	789	9642.48	9642.48
698.11	788.5	9608.6	9608.6
698.61	788	9447	9447
699.11	787.5	9507.89	9507.89
699.61	787	9599.12	9599.12
700.11	786.5	9609.08	9609.08
700.61	786	9623.36	9623.36
701.11	785.5	9613.99	9613.99
701.61	785	9495.9	9495.9
702.11	784.5	9571.68	9571.68
702.61	784	9718.01	9718.01
703.11	783.5	9664.72	9664.72
703.61	783	9640.1	9640.1
704.11	782.5	9562.38	9562.38
704.61	782	9696.18	9696.18
705.11	781.5	9605.02	9605.02
705.61	781	9700.18	9700.18
706.11	780.5	9594.98	9594.98
706.61	780	9859.08	9859.08
707.11	779.5	9748.14	9748.14
707.61	779	9707.5	9707.5
708.11	778.5	9754.63	9754.63
708.61	778	9624.42	9624.42
709.11	777.5	9669.78	9669.78
709.61	777	9871.74	9871.74
710.11	776.5	9684.2	9684.2
710.61	776	9684.63	9684.63
711.11	775.5	9693.87	9693.87
711.61	775	9805.41	9805.41
712.11	774.5	9772.93	9772.93
712.61	774	9749.08	9749.08
713.11	773.5	9782	9782
713.61	773	9748.56	9748.56
714.11	772.5	9890.24	9890.24
714.61	772	9792.07	9792.07
715.11	771.5	9737.17	9737.17
715.61	771	9741.34	9741.34
716.11	770.5	9781.79	9781.79
716.61	770	9822.22	9822.22
717.11	769.5	9834.44	9834.44
717.61	769	9896.56	9896.56
718.11	768.5	9957.11	9957.11
718.61	768	9941.7	9941.7
719.11	767.5	9994.47	9994.47
719.61	767	9857.44	9857.44
720.11	766.5	9773.96	9773.96
720.61	766	9878.46	9878.46
721.11	765.5	9992.7	9992.7
721.61	765	9923.02	9923.02
722.11	764.5	9994.2	9994.2
722.61	764	9958.79	9958.79
723.11	763.5	9830.47	9830.47
723.61	763	9837.49	9837.49
724.11	762.5	10005	10005
724.61	762	10086.9	10086.9
725.11	761.5	10206.3	10206.3
725.61	761	10022.6	10022.6
726.11	760.5	9892.84	9892.84
726.61	760	10024.3	10024.3
727.11	759.5	10071.3	10071.3
727.61	759	10027	10027
728.11	758.5	10100.2	10100.2
728.61	758	10180.2	10180.2
729.11	757.5	9949.57	9949.57
729.61	757	10072	10072
730.11	756.5	10213.2	10213.2
730.61	756	10134.3	10134.3
731.11	755.5	10136.8	10136.8
731.61	755	10381.5	10381.5
732.11	754.5	10302.4	10302.4
732.61	754	10062.3	10062.3
733.11	753.5	10230	10230
733.61	753	10205.8	10205.8
734.11	752.5	10297.3	10297.3
734.61	752	10178.6	10178.6
735.11	751.5	10230.6	10230.6
735.61	751	10164.4	10164.4
736.11	750.5	10139	10139
736.61	750	10252.1	10252.1
737.11	749.5	10350.2	10350.2
737.61	749	10145.6	10145.6
738.11	748.5	10054.4	10054.4
738.61	748	10181	10181
739.11	747.5	10275.6	10275.6
739.61	747	10346.3	10346.3
740.11	746.5	10338.3	10338.3
740.61	746	10366.8	10366.8
741.11	745.5	10387.2	10387.2
741.61	745	10413.2	10413.2
742.11	744.5	10534.6	10534.6
742.61	744	10529.6	10529.6
743.11	743.5	10386.1	10386.1
743.61	743	10478.3	10478.3
744.11	742.5	10449.6	10449.6
744.61	742	10443.7	10443.7
745.11	741.5	10527.5	10527.5
745.61	741	10457.1	10457.1
746.11	740.5	10511.3	10511.3
746.61	740	10421.3	10421.3
747.11	739.5	10472.8	10472.8
747.61	739	10626.6	10626.6
748.11	738.5	10591.4	10591.4
748.61	738	10531	10531
749.11	737.5	10384.3	10384.3
749.61	737	10657	10657
750.11	736.5	10412.6	10412.6
750.61	736	10465.3	10465.3
751.11	735.5	10560.4	10560.4
751.61	735	10543.4	10543.4
752.11	734.5	10443.7	10443.7
752.61	734	10451.4	10451.4
753.11	733.5	10625.8	10625.8
753.61	733	10797.6	10797.6
754.11	732.5	10643.3	10643.3
754.61	732	10664.7	10664.7
755.11	731.5	10754.3	10754.3
755.61	731	10843	10843
756.11	730.5	10822.9	10822.9
756.61	730	10726.7	10726.7
757.11	729.5	10847.3	10847.3
757.61	729	10698.8	10698.8
758.11	728.5	10904.4	10904.4
758.61	728	10878.6	10878.6
759.11	727.5	10968.1	10968.1
759.61	727	11074.6	11074.6
760.11	726.5	11037	11037
760.61	726	11167.2	11167.2
761.11	725.5	11202	11202
761.61	725	11190.3	11190.3
762.11	724.5	11221.3	11221.3
762.61	724	11292.2	11292.2
763.11	723.5	11500.3	11500.3
763.61	723	11670.6	11670.6
764.11	722.5	11649.8	11649.8
764.61	722	11904.1	11904.1
765.11	721.5	12079.7	12079.7
765.61	721	12180.6	12180.6
766.11	720.5	12337.1	12337.1
766.61	720	12314.6	12314.6
767.11	719.5	12240.9	12240.9
767.61	719	12267.1	12267.1
768.11	718.5	12140.4	12140.4
768.61	718	12372.3	12372.3
769.11	717.5	12141.8	12141.8
769.61	717	11935.9	11935.9
770.11	716.5	11846.7	11846.7
770.61	716	11566.2	11566.2
771.11	715.5	11493.1	11493.1
771.61	715	11429	11429
772.11	714.5	11258.7	11258.7
772.61	714	11109.1	11109.1
773.11	713.5	11063.6	11063.6
773.61	713	10990.6	10990.6
774.11	712.5	10988.9	10988.9
774.61	712	10817.3	10817.3
775.11	711.5	10798.8	10798.8
775.61	711	10713.5	10713.5
776.11	710.5	10573.1	10573.1
776.61	710	10547.5	10547.5
777.11	709.5	10683.2	10683.2
777.61	709	10540.2	10540.2
778.11	708.5	10462.3	10462.3
778.61	708	10606.8	10606.8
779.11	707.5	10429.2	10429.2
779.61	707	10275.4	10275.4
780.11	706.5	10515.3	10515.3
780.61	706	10572.8	10572.8
781.11	705.5	10426.3	10426.3
781.61	705	10361.6	10361.6
782.11	704.5	10263.7	10263.7
782.61	704	10250.7	10250.7
783.11	703.5	10407.9	10407.9
783.61	703	10347.6	10347.6
784.11	702.5	10348	10348
784.61	702	10429.8	10429.8
785.11	701.5	10361.7	10361.7
785.61	701	10183.5	10183.5
786.11	700.5	10378.4	10378.4
786.61	700	10204.1	10204.1
787.11	699.5	10407.9	10407.9
787.61	699	10384	10384
788.11	698.5	10268.2	10268.2
788.61	698	10248.8	10248.8
789.11	697.5	10453.3	10453.3
789.61	697	10273.2	10273.2
790.11	696.5	10281	10281
790.61	696	10370	10370
791.11	695.5	10362.1	10362.1
791.61	695	10361.8	10361.8
792.11	694.5	10504.6	10504.6
792.61	694	10437.7	10437.7
793.11	693.5	10527.9	10527.9
793.61	693	10456.7	10456.7
794.11	692.5	10389.4	10389.4
794.61	692	10245.9	10245.9
795.11	691.5	10239.4	10239.4
795.61	691	10159.7	10159.7
796.11	690.5	10493.9	10493.9
796.61	690	10370.8	10370.8
797.11	689.5	10406	10406
797.61	689	10345.6	10345.6
798.11	688.5	10418.4	10418.4
798.61	688	10474.7	10474.7
799.11	687.5	10419.4	10419.4
799.61	687	10392.1	10392.1
800.11	686.5	10398.5	10398.5
800.61	686	10541	10541
801.11	685.5	10437.1	10437.1
801.61	685	10548.8	10548.8
802.11	684.5	10443.1	10443.1
802.61	684	10431.4	10431.4
803.11	683.5	10529.2	10529.2
803.61	683	10585.5	10585.5
804.11	682.5	10476.6	10476.6
804.61	682	10482.1	10482.1
805.11	681.5	10520.9	10520.9
805.61	681	10413.1	10413.1
806.11	680.5	10455.2	10455.2
806.61	680	10583.5	10583.5
807.11	679.5	10411.8	10411.8
807.61	679	10422.4	10422.4
808.11	678.5	10549.9	10549.9
808.61	678	10643.2	10643.2
809.11	677.5	10502.9	10502.9
809.61	677	10589.8	10589.8
810.11	676.5	10607.5	10607.5
810.61	676	10347.2	10347.2
811.11	675.5	10552.4	10552.4
811.61	675	10711.4	10711.4
812.11	674.5	10759.4	10759.4
812.61	674	10660.4	10660.4
813.11	673.5	10686.4	10686.4
813.61	673	10708.7	10708.7
814.11	672.5	10539.2	10539.2
814.61	672	10446.2	10446.2
815.11	671.5	10679.9	10679.9
815.61	671	10836.8	10836.8
816.11	670.5	10763.8	10763.8
816.61	670	10645.4	10645.4
817.11	669.5	10562.8	10562.8
817.61	669	10608.5	10608.5
818.11	668.5	10577	10577
818.61	668	10647.8	10647.8
819.11	667.5	10647.6	10647.6
819.61	667	10753.4	10753.4
820.11	666.5	10763.2	10763.2
820.61	666	10630.3	10630.3
821.11	665.5	10681.7	10681.7
821.61	665	10531.3	10531.3
822.11	664.5	10638.1	10638.1
822.61	664	10623	10623
823.11	663.5	10652.1	10652.1
823.61	663	10707.4	10707.4
824.11	662.5	10944.4	10944.4
824.61	662	10868.2	10868.2
825.11	661.5	10789.2	10789.2
825.61	661	10694.8	10694.8
826.11	660.5	10834.7	10834.7
826.61	660	10866.6	10866.6
827.11	659.5	10959.9	10959.9
827.61	659	10928.1	10928.1
828.11	658.5	11006	11006
828.61	658	10873.5	10873.5
829.11	657.5	10783	10783
829.61	657	10759.8	10759.8
830.11	656.5	10825.2	10825.2
830.61	656	10707.5	10707.5
831.11	655.5	10805	10805
831.61	655	10994.3	10994.3
832.11	654.5	10925.1	10925.1
832.61	654	10815	10815
833.11	653.5	10886.8	10886.8
833.61	653	10781.9	10781.9
834.11	652.5	10944.3	10944.3
834.61	652	10939.3	10939.3
835.11	651.5	10851.6	10851.6
835.61	651	10951	10951
836.11	650.5	11090.3	11090.3
836.61	650	10950.5	10950.5
837.11	649.5	10914.1	10914.1
837.61	649	10880.1	10880.1
838.11	648.5	11083.1	11083.1
838.61	648	11056.1	11056.1
839.11	647.5	11014.5	11014.5
839.61	647	10972.3	10972.3
840.11	646.5	10890.8	10890.8
840.61	646	11033.3	11033.3
841.11	645.5	11023.7	11023.7
841.61	645	11090.6	11090.6
842.11	644.5	10887	10887
842.61	644	11117	11117
843.11	643.5	10994.7	10994.7
843.61	643	11003.6	11003.6
844.11	642.5	11295.3	11295.3
844.61	642	11202.8	11202.8
845.11	641.5	11091.5	11091.5
845.61	641	11106.2	11106.2
846.11	640.5	11162.8	11162.8
846.61	640	10992.3	10992.3
847.11	639.5	11060.4	11060.4
847.61	639	11247	11247
848.11	638.5	11280.1	11280.1
848.61	638	11155.9	11155.9
849.11	637.5	11095.7	11095.7
849.61	637	11228	11228
850.11	636.5	11426.4	11426.4
850.61	636	11285.4	11285.4
851.11	635.5	11140.6	11140.6
851.61	635	11165.1	11165.1
852.11	634.5	11125.7	11125.7
852.61	634	11144.6	11144.6
853.11	633.5	11362.8	11362.8
853.61	633	11285.7	11285.7
854.11	632.5	11477.3	11477.3
854.61	632	11481.1	11481.1
855.11	631.5	11329.1	11329.1
855.61	631	11318.6	11318.6
856.11	630.5	11553.1	11553.1
856.61	630	11560.3	11560.3
857.11	629.5	11497.3	11497.3
857.61	629	11456.7	11456.7
858.11	628.5	11667.4	11667.4
858.61	628	11364.7	11364.7
859.11	627.5	11379.8	11379.8
859.61	627	11522.2	11522.2
860.11	626.5	11640.6	11640.6
860.61	626	11457.8	11457.8
861.11	625.5	11430.3	11430.3
861.61	625	11524.9	11524.9
862.11	624.5	11573.7	11573.7
862.61	624	11687.7	11687.7
863.11	623.5	11662.3	11662.3
863.61	623	11420.9	11420.9
864.11	622.5	11507	11507
864.61	622	11839.3	11839.3
865.11	621.5	11758.7	11758.7
865.61	621	11630.1	11630.1
866.11	620.5	11689.9	11689.9
866.61	620	11628.4	11628.4
867.11	619.5	11865.3	11865.3
867.61	619	11638.9	11638.9
868.11	618.5	11584.9	11584.9
868.61	618	11491.8	11491.8
869.11	617.5	11802.6	11802.6
869.61	617	11715.3	11715.3
870.11	616.5	11702.3	11702.3
870.61	616	11744.7	11744.7
871.11	615.5	11663.2	11663.2
871.61	615	11838.2	11838.2
872.11	614.5	11829.8	11829.8
872.61	614	11946	11946
873.11	613.5	11947.3	11947.3
873.61	613	11903.7	11903.7
874.11	612.5	12136	12136
874.61	612	12077	12077
875.11	611.5	12063.9	12063.9
875.61	611	12319.3	12319.3
876.11	610.5	12220.8	12220.8
876.61	610	12345.8	12345.8
877.11	609.5	12613.7	12613.7
877.61	609	12647.6	12647.6
878.11	608.5	12762.9	12762.9
878.61	608	13115.9	13115.9
879.11	607.5	13417	13417
879.61	607	13945.7	13945.7
880.11	606.5	14541.9	14541.9
880.61	606	15660.3	15660.3
881.11	605.5	17157.4	17157.4
881.61	605	19280.3	19280.3
882.11	604.5	21540.7	21540.7
882.61	604	22281.3	22281.3
883.11	603.5	20489.9	20489.9
883.61	603	18089.6	18089.6
884.11	602.5	15783.7	15783.7
884.61	602	14329.2	14329.2
885.11	601.5	13240.3	13240.3
885.61	601	12727.4	12727.4
886.11	600.5	12114.6	12114.6
886.61	600	11956.8	11956.8
887.11	599.5	11866.7	11866.7
887.61	599	11631.1	11631.1
888.11	598.5	11463	11463
888.61	598	11391.2	11391.2
889.11	597.5	11265.1	11265.1
889.61	597	11166.4	11166.4
890.11	596.5	11209.4	11209.4
890.61	596	11066.7	11066.7
891.11	595.5	11140.7	11140.7
891.61	595	11200.2	11200.2
892.11	594.5	11195.4	11195.4
892.61	594	11153.2	11153.2
893.11	593.5	11044.7	11044.7
893.61	593	11043.9	11043.9
894.11	592.5	11111.7	11111.7
894.61	592	11084.2	11084.2
895.11	591.5	11012.1	11012.1
895.61	591	10961	10961
896.11	590.5	11041.7	11041.7
896.61	590	11031.5	11031.5
897.11	589.5	10858.3	10858.3
897.61	589	10971.8	10971.8
898.11	588.5	11015.8	11015.8
898.61	588	11067.3	11067.3
899.11	587.5	11199.4	11199.4
899.61	587	11094.9	11094.9
900.11	586.5	11108.7	11108.7
900.61	586	10923.9	10923.9
901.11	585.5	10948.2	10948.2
901.61	585	10903.6	10903.6
902.11	584.5	10974.4	10974.4
902.61	584	11054.9	11054.9
903.11	583.5	11027.5	11027.5
903.61	583	11131.7	11131.7
904.11	582.5	11343	11343
904.61	582	11182.4	11182.4
905.11	581.5	11405.8	11405.8
905.61	581	11683.2	11683.2
906.11	580.5	11689.4	11689.4
906.61	580	11650.4	11650.4
907.11	579.5	11735.7	11735.7
907.61	579	11898.9	11898.9
908.11	578.5	12412.6	12412.6
908.61	578	12796.9	12796.9
909.11	577.5	13295.6	13295.6
909.61	577	13551.3	13551.3
910.11	576.5	14081.2	14081.2
910.61	576	15139.2	15139.2
911.11	575.5	16853	16853
911.61	575	19225.8	19225.8
912.11	574.5	22955.7	22955.7
912.61	574	27235.7	27235.7
913.11	573.5	30209.7	30209.7
913.61	573	29800.4	29800.4
914.11	572.5	26075.2	26075.2
914.61	572	21237.3	21237.3
915.11	571.5	17606.3	17606.3
915.61	571	14927.3	14927.3
916.11	570.5	13022.1	13022.1
916.61	570	11886.1	11886.1
917.11	569.5	10919.1	10919.1
917.61	569	10320.7	10320.7
918.11	568.5	9636.22	9636.22
918.61	568	9257.56	9257.56
919.11	567.5	9033.78	9033.78
919.61	567	8818	8818
920.11	566.5	8723.5	8723.5
920.61	566	8535.94	8535.94
921.11	565.5	8397.18	8397.18
921.61	565	8329.02	8329.02
922.11	564.5	8242.09	8242.09
922.61	564	8094.23	8094.23
923.11	563.5	8069.57	8069.57
923.61	563	8080.12	8080.12
924.11	562.5	8099.86	8099.86
924.61	562	8030.07	8030.07
925.11	561.5	7736.02	7736.02
925.61	561	7945.46	7945.46
926.11	560.5	7865.63	7865.63
926.61	560	8028.49	8028.49
927.11	559.5	8000.12	8000.12
927.61	559	7823.22	7823.22
928.11	558.5	7905.61	7905.61
928.61	558	7706.8	7706.8
929.11	557.5	7734.84	7734.84
929.61	557	7812.63	7812.63
930.11	556.5	7880.27	7880.27
930.61	556	7895.57	7895.57
931.11	555.5	7702.7	7702.7
931.61	555	7710.42	7710.42
932.11	554.5	7735.04	7735.04
932.61	554	7731.78	7731.78
933.11	553.5	7747.13	7747.13
933.61	553	7809.94	7809.94
934.11	552.5	7673.14	7673.14
934.61	552	7793.58	7793.58
935.11	551.5	7758.32	7758.32
935.61	551	7810.8	7810.8
936.11	550.5	7657.38	7657.38
936.61	550	7770.07	7770.07
937.11	549.5	7688.9	7688.9
937.61	549	7832.68	7832.68
938.11	548.5	7729.62	7729.62
938.61	548	7675.87	7675.87
939.11	547.5	7700.81	7700.81
939.61	547	7670.31	7670.31
940.11	546.5	7821.51	7821.51
940.61	546	7829.02	7829.02
941.11	545.5	7721.6	7721.6
941.61	545	7701.42	7701.42
942.11	544.5	7850.14	7850.14
942.61	544	7878.87	7878.87
943.11	543.5	7808.8	7808.8
943.61	543	7916.1	7916.1
944.11	542.5	7753.63	7753.63
944.61	542	7786.01	7786.01
945.11	541.5	7872.12	7872.12
945.61	541	7906.81	7906.81
946.11	540.5	7745.42	7745.42
946.61	540	7818.54	7818.54
947.11	539.5	7620.1	7620.1
947.61	539	7821.9	7821.9
948.11	538.5	7889.98	7889.98
948.61	538	7887.13	7887.13
949.11	537.5	7802.1	7802.1
949.61	537	7785.1	7785.1
950.11	536.5	7854.43	7854.43
950.61	536	7797.5	7797.5
951.11	535.5	7945.08	7945.08
951.61	535	8094.99	8094.99
952.11	534.5	8018.69	8018.69
952.61	534	8047.61	8047.61
953.11	533.5	8116.09	8116.09
953.61	533	8055.88	8055.88
954.11	532.5	8284.41	8284.41
954.61	532	8095.8	8095.8
955.11	531.5	8310.16	8310.16
955.61	531	8197.98	8197.98
956.11	530.5	7954.27	7954.27
956.61	530	7914.68	7914.68
957.11	529.5	7873.71	7873.71
957.61	529	7855.12	7855.12
958.11	528.5	7779.23	7779.23
958.61	528	7835.28	7835.28
959.11	527.5	7934.77	7934.77
959.61	527	7952.77	7952.77
960.11	526.5	7931.21	7931.21
960.61	526	7956.56	7956.56
961.11	525.5	7904.83	7904.83
961.61	525	7892.77	7892.77
962.11	524.5	8025.87	8025.87
962.61	524	7961.41	7961.41
963.11	523.5	7889.24	7889.24
963.61	523	7846.58	7846.58
964.11	522.5	7852.22	7852.22
964.61	522	7928.7	7928.7
965.11	521.5	7896.26	7896.26
965.61	521	7886.29	7886.29
966.11	520.5	7951.92	7951.92
966.61	520	7989.46	7989.46
967.11	519.5	8000.49	8000.49
967.61	519	7833.38	7833.38
968.11	518.5	8012.79	8012.79
968.61	518	8123.32	8123.32
969.11	517.5	8000.97	8000.97
969.61	517	7942.63	7942.63
970.11	516.5	8011.77	8011.77
970.61	516	7952.68	7952.68
971.11	515.5	7917.98	7917.98
971.61	515	7891.67	7891.67
972.11	514.5	7973.04	7973.04
972.61	514	8019.73	8019.73
973.11	513.5	8002.2	8002.2
973.61	513	7890.68	7890.68
974.11	512.5	7995.68	7995.68
974.61	512	8107.78	8107.78
975.11	511.5	8109.46	8109.46
975.61	511	8136.78	8136.78
976.11	510.5	8124.16	8124.16
976.61	510	8119.89	8119.89
977.11	509.5	8181.84	8181.84
977.61	509	8293.98	8293.98
978.11	508.5	8104.82	8104.82
978.61	508	8089.93	8089.93
979.11	507.5	8203.36	8203.36
979.61	507	8098	8098
980.11	506.5	8111.67	8111.67
980.61	506	8250.09	8250.09
981.11	505.5	8227.44	8227.44
981.61	505	8149.94	8149.94
982.11	504.5	8152.6	8152.6
982.61	504	8060.14	8060.14
983.11	503.5	8127.97	8127.97
983.61	503	8152.91	8152.91
984.11	502.5	8205.4	8205.4
984.61	502	8143.26	8143.26
985.11	501.5	8241.5	8241.5
985.61	501	8137.28	8137.28
986.11	500.5	8320.74	8320.74
986.61	500	8222.04	8222.04
987.11	499.5	8195.21	8195.21
987.61	499	8184.01	8184.01
988.11	498.5	8380.53	8380.53
988.61	498	8210.99	8210.99
989.11	497.5	8130.58	8130.58
989.61	497	8309.53	8309.53
990.11	496.5	8270.99	8270.99
990.61	496	8190.69	8190.69
991.11	495.5	8253.66	8253.66
991.61	495	8220.58	8220.58
992.11	494.5	8126.61	8126.61
992.61	494	8237.42	8237.42
993.11	493.5	8333.94	8333.94
993.61	493	8226.28	8226.28
994.11	492.5	8191.39	8191.39
994.61	492	8211.36	8211.36
995.11	491.5	8243.52	8243.52
995.61	491	8174.54	8174.54
996.11	490.5	8274.32	8274.32
996.61	490	8374.61	8374.61
997.11	489.5	8326.34	8326.34
997.61	489	8400.52	8400.52
998.11	488.5	8429.2	8429.2
998.61	488	8405.29	8405.29
999.11	487.5	8504.21	8504.21
999.61	487	8503.46	8503.46
1000.11	486.5	8514.34	8514.34
1000.61	486	8412.24	8412.24
1001.11	485.5	8413.18	8413.18
1001.61	485	8381.42	8381.42
1002.11	484.5	8418.13	8418.13
1002.61	484	8365.7	8365.7
1003.11	483.5	8529.9	8529.9
1003.61	483	8465.01	8465.01
1004.11	482.5	8431.02	8431.02
1004.61	482	8475.58	8475.58
1005.11	481.5	8322.63	8322.63
1005.61	481	8483.43	8483.43
1006.11	480.5	8377.63	8377.63
1006.61	480	8445.94	8445.94
1007.11	479.5	8511.08	8511.08
1007.61	479	8501.71	8501.71
1008.11	478.5	8454.32	8454.32
1008.61	478	8499.06	8499.06
1009.11	477.5	8450.77	8450.77
1009.61	477	8376.68	8376.68
1010.11	476.5	8523.31	8523.31
1010.61	476	8521.19	8521.19
1011.11	475.5	8515.59	8515.59
1011.61	475	8689.48	8689.48
1012.11	474.5	8696.54	8696.54
1012.61	474	8421.68	8421.68
1013.11	473.5	8514.48	8514.48
1013.61	473	8541.11	8541.11
1014.11	472.5	8677.53	8677.53
1014.61	472	8646.64	8646.64
1015.11	471.5	8684.39	8684.39
1015.61	471	8729.28	8729.28
1016.11	470.5	8636.63	8636.63
1016.61	470	8616.03	8616.03
1017.11	469.5	8641.23	8641.23
1017.61	469	8528.36	8528.36
1018.11	468.5	8665.79	8665.79
1018.61	468	8600.36	8600.36
1019.11	467.5	8768.07	8768.07
1019.61	467	8734.21	8734.21
1020.11	466.5	8622.4	8622.4
1020.61	466	8791.08	8791.08
1021.11	465.5	8810.37	8810.37
1021.61	465	8666.7	8666.7
1022.11	464.5	8663.14	8663.14
1022.61	464	8739.58	8739.58
1023.11	463.5	8676.02	8676.02
1023.61	463	8757.69	8757.69
1024.11	462.5	8866.22	8866.22
1024.61	462	8742.04	8742.04
1025.11	461.5	8957.33	8957.33
1025.61	461	8883.31	8883.31
1026.11	460.5	8730.33	8730.33
1026.61	460	8858.6	8858.6
1027.11	459.5	8935.48	8935.48
1027.61	459	8864.02	8864.02
1028.11	458.5	8993.37	8993.37
1028.61	458	8925.01	8925.01
1029.11	457.5	8926.74	8926.74
1029.61	457	8880.7	8880.7
1030.11	456.5	8963.71	8963.71
1030.61	456	8811.39	8811.39
1031.11	455.5	8843.36	8843.36
1031.61	455	8871.58	8871.58
1032.11	454.5	9102.11	9102.11
1032.61	454	8855.27	8855.27
1033.11	453.5	8933.44	8933.44
1033.61	453	8955.54	8955.54
1034.11	452.5	9052	9052
1034.61	452	9027.72	9027.72
1035.11	451.5	9075.68	9075.68
1035.61	451	9140.22	9140.22
1036.11	450.5	8995.56	8995.56
1036.61	450	8914.26	8914.26
1037.11	449.5	8982.24	8982.24
1037.61	449	9018.03	9018.03
1038.11	448.5	8995.59	8995.59
1038.61	448	8861.97	8861.97
1039.11	447.5	9086.82	9086.82
1039.61	447	8848.51	8848.51
1040.11	446.5	8923.74	8923.74
1040.61	446	8929.14	8929.14
1041.11	445.5	9060.27	9060.27
1041.61	445	9023.44	9023.44
1042.11	444.5	9118.03	9118.03
1042.61	444	9133.04	9133.04
1043.11	443.5	9119.03	9119.03
1043.61	443	9088.19	9088.19
1044.11	442.5	9045.28	9045.28
1044.61	442	9018.9	9018.9
1045.11	441.5	9005.51	9005.51
1045.61	441	9009.68	9009.68
1046.11	440.5	8990.22	8990.22
1046.61	440	8998.18	8998.18
1047.11	439.5	9041.76	9041.76
1047.61	439	8895.96	8895.96
1048.11	438.5	9030.4	9030.4
1048.61	438	8892.17	8892.17
1049.11	437.5	8996.27	8996.27
1049.61	437	8975.59	8975.59
1050.11	436.5	9077.98	9077.98
1050.61	436	9002.81	9002.81
1051.11	435.5	9080.27	9080.27
1051.61	435	9035.82	9035.82
1052.11	434.5	9111.43	9111.43
1052.61	434	9223.88	9223.88
1053.11	433.5	9144.48	9144.48
1053.61	433	8903.1	8903.1
1054.11	432.5	9108.4	9108.4
1054.61	432	8938.18	8938.18
1055.11	431.5	9008.58	9008.58
1055.61	431	9032.8	9032.8
1056.11	430.5	9158.7	9158.7
1056.61	430	9143.57	9143.57
1057.11	429.5	9156.53	9156.53
1057.61	429	9091.7	9091.7
1058.11	428.5	9083.12	9083.12
1058.61	428	9025.93	9025.93
1059.11	427.5	9108.67	9108.67
1059.61	427	9107.83	9107.83
1060.11	426.5	9163.98	9163.98
1060.61	426	9299.54	9299.54
1061.11	425.5	9089.56	9089.56
1061.61	425	9021.29	9021.29
1062.11	424.5	9087.8	9087.8
1062.61	424	9255.67	9255.67
1063.11	423.5	9296.5	9296.5
1063.61	423	9277.21	9277.21
1064.11	422.5	9277.87	9277.87
1064.61	422	9168.7	9168.7
1065.11	421.5	9228.12	9228.12
1065.61	421	9148.5	9148.5
1066.11	420.5	9215.6	9215.6
1066.61	420	9261.6	9261.6
1067.11	419.5	9268.79	9268.79
1067.61	419	9141.28	9141.28
1068.11	418.5	9231.43	9231.43
1068.61	418	9239.64	9239.64
1069.11	417.5	9148.17	9148.17
1069.61	417	9290.81	9290.81
1070.11	416.5	9187.68	9187.68
1070.61	416	9184.16	9184.16
1071.11	415.5	9310.08	9310.08
1071.61	415	9389.42	9389.42
1072.11	414.5	9441.31	9441.31
1072.61	414	9308.33	9308.33
1073.11	413.5	9453.77	9453.77
1073.61	413	9335.14	9335.14
1074.11	412.5	9385.67	9385.67
1074.61	412	9381.63	9381.63
1075.11	411.5	9258.63	9258.63
1075.61	411	9297.64	9297.64
1076.11	410.5	9461.67	9461.67
1076.61	410	9459.62	9459.62
1077.11	409.5	9566.39	9566.39
1077.61	409	9506.58	9506.58
1078.11	408.5	9557.73	9557.73
1078.61	408	9616.37	9616.37
1079.11	407.5	9594.9	9594.9
1079.61	407	9655.16	9655.16
1080.11	406.5	9506.12	9506.12
1080.61	406	9723.52	9723.52
1081.11	405.5	9846.14	9846.14
1081.61	405	9685.63	9685.63
1082.11	404.5	9742.63	9742.63
1082.61	404	9821.19	9821.19
1083.11	403.5	9920.52	9920.52
1083.61	403	9985.21	9985.21
1084.11	402.5	10024.2	10024.2
1084.61	402	10185.2	10185.2
1085.11	401.5	10141.6	10141.6
1085.61	401	10238.1	10238.1
1086.11	400.5	10363	10363
1086.61	400	10396.3	10396.3
1087.11	399.5	10487.9	10487.9
1087.61	399	10597.5	10597.5
1088.11	398.5	10440.9	10440.9
1088.61	398	10403.9	10403.9
1089.11	397.5	10333.6	10333.6
1089.61	397	10315.6	10315.6
1090.11	396.5	10386	10386
1090.61	396	10500.5	10500.5
1091.11	395.5	10638.2	10638.2
1091.61	395	10757.9	10757.9
1092.11	394.5	10963	10963
1092.61	394	10972.3	10972.3
1093.11	393.5	10924.6	10924.6
1093.61	393	10940.7	10940.7
1094.11	392.5	11133.9	11133.9
1094.61	392	11104.1	11104.1
1095.11	391.5	10750.1	10750.1
1095.61	391	10684.7	10684.7
1096.11	390.5	10527.2	10527.2
1096.61	390	10625.6	10625.6
1097.11	389.5	10757	10757
1097.61	389	10506.8	10506.8
1098.11	388.5	10702.5	10702.5
1098.61	388	10643.3	10643.3
1099.11	387.5	10664.8	10664.8
1099.61	387	10654.1	10654.1
1100.11	386.5	10663.5	10663.5
1100.61	386	10592.5	10592.5
1101.11	385.5	10588.1	10588.1
1101.61	385	10574.2	10574.2
1102.11	384.5	10532.8	10532.8
1102.61	384	10484.9	10484.9
1103.11	383.5	10704.4	10704.4
1103.61	383	10729.8	10729.8
1104.11	382.5	10872.1	10872.1
1104.61	382	10916.6	10916.6
1105.11	381.5	10694.2	10694.2
1105.61	381	10651.4	10651.4
1106.11	380.5	10405.7	10405.7
1106.61	380	10357.6	10357.6
1107.11	379.5	10345.7	10345.7
1107.61	379	10800.4	10800.4
1108.11	378.5	11687.3	11687.3
1108.61	378	12095	12095
1109.11	377.5	10954.4	10954.4
1109.61	377	10840.4	10840.4
1110.11	376.5	11696.9	11696.9
1110.61	376	13398.9	13398.9
1111.11	375.5	18500.9	18500.9
1111.61	375	38652.1	38652.1
1112.11	374.5	90043.3	90043.3
1112.61	374	72201.4	72201.4
1113.11	373.5	18550.4	18550.4
1113.61	373	10314.9	10314.9
1114.11	372.5	10184	10184
1114.61	372	10054.4	10054.4
1115.11	371.5	7842.57	7842.57
1115.61	371	7045.83	7045.83
1116.11	370.5	8075.23	8075.23
1116.61	370	10441.7	10441.7
1117.11	369.5	17978.2	17978.2
1117.61	369	47530.9	47530.9
1118.11	368.5	121036	121036
1118.61	368	96001.9	96001.9
1119.11	367.5	18777.2	18777.2
1119.61	367	5975.02	5975.02
1120.11	366.5	3762.39	3762.39
1120.61	366	2868.89	2868.89
1121.11	365.5	2393.39	2393.39
1121.61	365	2098.29	2098.29
1122.11	364.5	1969.78	1969.78
1122.61	364	1777.56	1777.56
1123.11	363.5	1665.83	1665.83
1123.61	363	1556.06	1556.06
1124.11	362.5	1562.34	1562.34
1124.61	362	1536.47	1536.47
1125.11	361.5	1491.36	1491.36
1125.61	361	1473.12	1473.12
1126.11	360.5	1417.1	1417.1
1126.61	360	1440.53	1440.53
1127.11	359.5	1473.32	1473.32
1127.61	359	1440.62	1440.62
1128.11	358.5	1413.43	1413.43
1128.61	358	1403.99	1403.99
1129.11	357.5	1384.33	1384.33
1129.61	357	1361.31	1361.31
1130.11	356.5	1378.03	1378.03
1130.61	356	1378.4	1378.4
1131.11	355.5	1358.12	1358.12
1131.61	355	1356.74	1356.74
1132.11	354.5	1348.24	1348.24
1132.61	354	1342.43	1342.43
1133.11	353.5	1345.63	1345.63
1133.61	353	1355.31	1355.31
1134.11	352.5	1341.84	1341.84
1134.61	352	1384.66	1384.66
1135.11	351.5	1350.14	1350.14
1135.61	351	1356.33	1356.33
1136.11	350.5	1349.83	1349.83
1136.61	350	1369.74	1369.74
1137.11	349.5	1366.01	1366.01
1137.61	349	1301.58	1301.58
1138.11	348.5	1307.18	1307.18
1138.61	348	1382.59	1382.59
1139.11	347.5	1354.26	1354.26
1139.61	347	1340.97	1340.97
1140.11	346.5	1340.98	1340.98
1140.61	346	1349.58	1349.58
1141.11	345.5	1298.08	1298.08
1141.61	345	1367.67	1367.67
1142.11	344.5	1361.12	1361.12
1142.61	344	1333.98	1333.98
1143.11	343.5	1256.31	1256.31
1143.61	343	1304.78	1304.78
1144.11	342.5	1371.78	1371.78
1144.61	342	1318.98	1318.98
1145.11	341.5	1318.29	1318.29
1145.61	341	1354.48	1354.48
1146.11	340.5	1369.67	1369.67
1146.61	340	1353.9	1353.9
1147.11	339.5	1336.82	1336.82
1147.61	339	1263.61	1263.61
1148.11	338.5	1299.6	1299.6
1148.61	338	1389.68	1389.68
1149.11	337.5	1383.38	1383.38
1149.61	337	1377.97	1377.97
1150.11	336.5	1284.13	1284.13
1150.61	336	1281.17	1281.17
1151.11	335.5	1349.69	1349.69
1151.61	335	1399.47	1399.47
1152.11	334.5	1315.97	1315.97
1152.61	334	1403.27	1403.27
1153.11	333.5	1411.77	1411.77
1153.61	333	1337.96	1337.96
1154.11	332.5	1403.17	1403.17
1154.61	332	1360.2	1360.2
1155.11	331.5	1333.16	1333.16
1155.61	331	1373.4	1373.4
1156.11	330.5	1360.42	1360.42
1156.61	330	1358.64	1358.64
1157.11	329.5	1317.34	1317.34
1157.61	329	1395.08	1395.08
1158.11	328.5	1431.49	1431.49
1158.61	328	1362.21	1362.21
1159.11	327.5	1391.36	1391.36
1159.61	327	1325.22	1325.22
1160.11	326.5	1400.79	1400.79
1160.61	326	1407.1	1407.1
1161.11	325.5	1390.7	1390.7
1161.61	325	1401.57	1401.57
1162.11	324.5	1389.46	1389.46
1162.61	324	1385.68	1385.68
1163.11	323.5	1374.44	1374.44
1163.61	323	1340.43	1340.43
1164.11	322.5	1418.39	1418.39
1164.61	322	1386.58	1386.58
1165.11	321.5	1440.1	1440.1
1165.61	321	1464.97	1464.97
1166.11	320.5	1411.07	1411.07
1166.61	320	1491.11	1491.11
1167.11	319.5	1427.48	1427.48
1167.61	319	1367.02	1367.02
1168.11	318.5	1443.43	1443.43
1168.61	318	1407.62	1407.62
1169.11	317.5	1373.73	1373.73
1169.61	317	1344.72	1344.72
1170.11	316.5	1415.48	1415.48
1170.61	316	1414.44	1414.44
1171.11	315.5	1464.31	1464.31
1171.61	315	1388.78	1388.78
1172.11	314.5	1392.06	1392.06
1172.61	314	1389.38	1389.38
1173.11	313.5	1359.98	1359.98
1173.61	313	1408.64	1408.64
1174.11	312.5	1357.99	1357.99
1174.61	312	1419.1	1419.1
1175.11	311.5	1391.16	1391.16
1175.61	311	1329	1329
1176.11	310.5	1334.29	1334.29
1176.61	310	1369.07	1369.07
1177.11	309.5	1406.23	1406.23
1177.61	309	1410.44	1410.44
1178.11	308.5	1348.61	1348.61
1178.61	308	1391.43	1391.43
1179.11	307.5	1405.37	1405.37
1179.61	307	1407.01	1407.01
1180.11	306.5	1418.79	1418.79
1180.61	306	1383.38	1383.38
1181.11	305.5	1408.36	1408.36
1181.61	305	1516.43	1516.43
1182.11	304.5	1393.7	1393.7
1182.61	304	1423.88	1423.88
1183.11	303.5	1403.84	1403.84
1183.61	303	1357.94	1357.94
1184.11	302.5	1337.92	1337.92
1184.61	302	1374.38	1374.38
1185.11	301.5	1402.68	1402.68
1185.61	301	1383.01	1383.01
1186.11	300.5	1398.89	1398.89
1186.61	300	1469.16	1469.16
1187.11	299.5	1424.72	1424.72
1187.61	299	1410.59	1410.59
1188.11	298.5	1458.09	1458.09
1188.61	298	1368.88	1368.88
1189.11	297.5	1426.19	1426.19
1189.61	297	1405.53	1405.53
1190.11	296.5	1384.59	1384.59
1190.61	296	1438.36	1438.36
1191.11	295.5	1405.64	1405.64
1191.61	295	1364.24	1364.24
1192.11	294.5	1379.9	1379.9
1192.61	294	1434.6	1434.6
1193.11	293.5	1393.88	1393.88
1193.61	293	1410.59	1410.59
1194.11	292.5	1396	1396
1194.61	292	1467.42	1467.42
1195.11	291.5	1452.68	1452.68
1195.61	291	1455.7	1455.7
1196.11	290.5	1433.14	1433.14
1196.61	290	1497.24	1497.24
1197.11	289.5	1489.59	1489.59
1197.61	289	1445.27	1445.27
1198.11	288.5	1465.63	1465.63
1198.61	288	1490.78	1490.78
1199.11	287.5	1525.39	1525.39
1199.61	287	1557.56	1557.56
1200.11	286.5	1554.32	1554.32
1200.61	286	1556.88	1556.88
1201.11	285.5	1672.87	1672.87
1201.61	285	1707.8	1707.8
1202.11	284.5	1752.67	1752.67
1202.61	284	1592.91	1592.91
1203.11	283.5	1499.38	1499.38
1203.61	283	1397.61	1397.61
1204.11	282.5	1419.41	1419.41
1204.61	282	1412.78	1412.78
1205.11	281.5	1391.42	1391.42
1205.61	281	1420.86	1420.86
1206.11	280.5	1419.4	1419.4
1206.61	280	1449.87	1449.87
1207.11	279.5	1392.26	1392.26
1207.61	279	1397.5	1397.5
1208.11	278.5	1444.86	1444.86
1208.61	278	1391.97	1391.97
1209.11	277.5	1409.86	1409.86
1209.61	277	1450.86	1450.86
1210.11	276.5	1477.7	1477.7
1210.61	276	1397.81	1397.81
1211.11	275.5	1458.04	1458.04
1211.61	275	1421.63	1421.63
1212.11	274.5	1469.71	1469.71
1212.61	274	1473.84	1473.84
1213.11	273.5	1453.44	1453.44
1213.61	273	1479.78	1479.78
1214.11	272.5	1459.92	1459.92
1214.61	272	1435.88	1435.88
1215.11	271.5	1474.2	1474.2
1215.61	271	1425.63	1425.63
1216.11	270.5	1451.84	1451.84
1216.61	270	1454.54	1454.54
1217.11	269.5	1406.19	1406.19
1217.61	269	1485.23	1485.23
1218.11	268.5	1473.63	1473.63
1218.61	268	1487.54	1487.54
1219.11	267.5	1467.26	1467.26
1219.61	267	1451.44	1451.44
1220.11	266.5	1435.76	1435.76
1220.61	266	1467.43	1467.43
1221.11	265.5	1507.84	1507.84
1221.61	265	1507.89	1507.89
1222.11	264.5	1481.07	1481.07
1222.61	264	1449.29	1449.29
1223.11	263.5	1449.31	1449.31
1223.61	263	1528.12	1528.12
1224.11	262.5	1494.03	1494.03
1224.61	262	1469.64	1469.64
1225.11	261.5	1481.42	1481.42
1225.61	261	1468.88	1468.88
1226.11	260.5	1432.74	1432.74
1226.61	260	1469.4	1469.4
1227.11	259.5	1494.38	1494.38
1227.61	259	1475.84	1475.84
1228.11	258.5	1425.24	1425.24
1228.61	258	1420.96	1420.96
1229.11	257.5	1468.18	1468.18
1229.61	257	1438.53	1438.53
1230.11	256.5	1483.29	1483.29
1230.61	256	1462.77	1462.77
1231.11	255.5	1473.87	1473.87
1231.61	255	1465.48	1465.48
1232.11	254.5	1496.36	1496.36
1232.61	254	1472.38	1472.38
1233.11	253.5	1438.68	1438.68
1233.61	253	1521.98	1521.98
1234.11	252.5	1516.47	1516.47
1234.61	252	1522.96	1522.96
1235.11	251.5	1497.72	1497.72
1235.61	251	1518.91	1518.91
1236.11	250.5	1436.69	1436.69
1236.61	250	1500.44	1500.44
1237.11	249.5	1481.9	1481.9
1237.61	249	1543.22	1543.22
1238.11	248.5	1518.43	1518.43
1238.61	248	1473.67	1473.67
1239.11	247.5	1499.44	1499.44
1239.61	247	1557.53	1557.53
1240.11	246.5	1479.24	1479.24
1240.61	246	1471.59	1471.59
1241.11	245.5	1565.34	1565.34
1241.61	245	1580.6	1580.6
1242.11	244.5	1564.27	1564.27
1242.61	244	1559.01	1559.01
1243.11	243.5	1539.36	1539.36
1243.61	243	1589.44	1589.44
1244.11	242.5	1615.93	1615.93
1244.61	242	1672.89	1672.89
1245.11	241.5	1547.97	1547.97
1245.61	241	1481.81	1481.81
1246.11	240.5	1463.81	1463.81
1246.61	240	1473.07	1473.07
1247.11	239.5	1572.57	1572.57
1247.61	239	1455.8	1455.8
1248.11	238.5	1474.6	1474.6
1248.61	238	1499.02	1499.02
1249.11	237.5	1464.29	1464.29
1249.61	237	1484.63	1484.63
1250.11	236.5	1488.89	1488.89
1250.61	236	1498.4	1498.4
1251.11	235.5	1521.02	1521.02
1251.61	235	1465.58	1465.58
1252.11	234.5	1477.63	1477.63
1252.61	234	1470.54	1470.54
1253.11	233.5	1526.39	1526.39
1253.61	233	1497.72	1497.72
1254.11	232.5	1513.52	1513.52
1254.61	232	1488.48	1488.48
1255.11	231.5	1542.59	1542.59
1255.61	231	1548.64	1548.64
1256.11	230.5	1492.62	1492.62
1256.61	230	1458.28	1458.28
1257.11	229.5	1535.48	1535.48
1257.61	229	1524.86	1524.86
1258.11	228.5	1488.32	1488.32
1258.61	228	1482.64	1482.64
1259.11	227.5	1558.46	1558.46
1259.61	227	1521.47	1521.47
1260.11	226.5	1532.16	1532.16
1260.61	226	1608.07	1608.07
1261.11	225.5	1585.98	1585.98
1261.61	225	1453.18	1453.18
1262.11	224.5	1539.06	1539.06
1262.61	224	1612.51	1612.51
1263.11	223.5	1573.56	1573.56
1263.61	223	1578.52	1578.52
1264.11	222.5	1557.36	1557.36
1264.61	222	1636.21	1636.21
1265.11	221.5	1597.04	1597.04
1265.61	221	1505.52	1505.52
1266.11	220.5	1526.61	1526.61
1266.61	220	1554.37	1554.37
1267.11	219.5	1589.67	1589.67
1267.61	219	1547.08	1547.08
1268.11	218.5	1504.76	1504.76
1268.61	218	1484.5	1484.5
1269.11	217.5	1509.24	1509.24
1269.61	217	1482.89	1482.89
1270.11	216.5	1575.62	1575.62
1270.61	216	1626.83	1626.83
1271.11	215.5	1576.34	1576.34
1271.61	215	1589.31	1589.31
1272.11	214.5	1615.03	1615.03
1272.61	214	1617.77	1617.77
1273.11	213.5	1550.49	1550.49
1273.61	213	1584.27	1584.27
1274.11	212.5	1583.48	1583.48
1274.61	212	1612.56	1612.56
1275.11	211.5	1574.67	1574.67
1275.61	211	1554.24	1554.24
1276.11	210.5	1540.79	1540.79
1276.61	210	1542.72	1542.72
1277.11	209.5	1532.63	1532.63
1277.61	209	1550.36	1550.36
1278.11	208.5	1566.29	1566.29
1278.61	208	1550.1	1550.1
1279.11	207.5	1603.24	1603.24
1279.61	207	1628.1	1628.1
1280.11	206.5	1596.49	1596.49
1280.61	206	1605.78	1605.78
1281.11	205.5	1642.11	1642.11
1281.61	205	1609.96	1609.96
1282.11	204.5	1579.09	1579.09
1282.61	204	1579.94	1579.94
1283.11	203.5	1555.71	1555.71
1283.61	203	1583.97	1583.97
1284.11	202.5	1573.93	1573.93
1284.61	202	1630.98	1630.98
1285.11	201.5	1660.38	1660.38
1285.61	201	1608.21	1608.21
1286.11	200.5	1559.07	1559.07
1286.61	200	1597.74	1597.74
1287.11	199.5	1608.34	1608.34
1287.61	199	1678.51	1678.51
1288.11	198.5	1638.66	1638.66
1288.61	198	1613.94	1613.94
1289.11	197.5	1568.94	1568.94
1289.61	197	1606.07	1606.07
1290.11	196.5	1650.94	1650.94
1290.61	196	1668.17	1668.17
1291.11	195.5	1664.23	1664.23
1291.61	195	1570.98	1570.98
1292.11	194.5	1641.3	1641.3
1292.61	194	1651.79	1651.79
1293.11	193.5	1664.27	1664.27
1293.61	193	1672.7	1672.7
1294.11	192.5	1610.18	1610.18
1294.61	192	1666.62	1666.62
1295.11	191.5	1622.4	1622.4
1295.61	191	1602.76	1602.76
1296.11	190.5	1667	1667
1296.61	190	1637.91	1637.91
1297.11	189.5	1629.86	1629.86
1297.61	189	1556.36	1556.36
1298.11	188.5	1614.03	1614.03
1298.61	188	1646.06	1646.06
1299.11	187.5	1647.36	1647.36
1299.61	187	1634.4	1634.4
1300.11	186.5	1725.96	1725.96
1300.61	186	1735.46	1735.46
1301.11	185.5	1672.53	1672.53
1301.61	185	1691.89	1691.89
1302.11	184.5	1700.03	1700.03
1302.61	184	1621.18	1621.18
1303.11	183.5	1636.1	1636.1
1303.61	183	1636.08	1636.08
1304.11	182.5	1616.77	1616.77
1304.61	182	1653.31	1653.31
1305.11	181.5	1713.52	1713.52
1305.61	181	1695.58	1695.58
1306.11	180.5	1661.39	1661.39
1306.61	180	1681.74	1681.74
1307.11	179.5	1698.8	1698.8
1307.61	179	1687.69	1687.69
1308.11	178.5	1656.79	1656.79
1308.61	178	1656.81	1656.81
1309.11	177.5	1700.89	1700.89
1309.61	177	1653.84	1653.84
1310.11	176.5	1696.26	1696.26
1310.61	176	1749.5	1749.5
1311.11	175.5	1707	1707
1311.61	175	1702.32	1702.32
1312.11	174.5	1699.33	1699.33
1312.61	174	1667.97	1667.97
1313.11	173.5	1701.14	1701.14
1313.61	173	1681.97	1681.97
1314.11	172.5	1648.04	1648.04
1314.61	172	1682.78	1682.78
1315.11	171.5	1698.86	1698.86
1315.61	171	1676.08	1676.08
1316.11	170.5	1740.69	1740.69
1316.61	170	1726.53	1726.53
1317.11	169.5	1725.83	1725.83
1317.61	169	1698.84	1698.84
1318.11	168.5	1757.13	1757.13
1318.61	168	1733.8	1733.8
1319.11	167.5	1689.39	1689.39
1319.61	167	1759.38	1759.38
1320.11	166.5	1759.56	1759.56
1320.61	166	1685.82	1685.82
1321.11	165.5	1785.46	1785.46
1321.61	165	1738.96	1738.96
1322.11	164.5	1770.12	1770.12
1322.61	164	1753.68	1753.68
1323.11	163.5	1732.61	1732.61
1323.61	163	1738.64	1738.64
1324.11	162.5	1723.94	1723.94
1324.61	162	1780.13	1780.13
1325.11	161.5	1763.27	1763.27
1325.61	161	1819.49	1819.49
1326.11	160.5	1841.73	1841.73
1326.61	160	1780.93	1780.93
1327.11	159.5	1704.6	1704.6
1327.61	159	1716.41	1716.41
1328.11	158.5	1791.44	1791.44
1328.61	158	1746.97	1746.97
1329.11	157.5	1739.12	1739.12
1329.61	157	1800.61	1800.61
1330.11	156.5	1706.96	1706.96
1330.61	156	1693.8	1693.8
1331.11	155.5	1726.6	1726.6
1331.61	155	1743.67	1743.67
1332.11	154.5	1735.17	1735.17
1332.61	154	1698.72	1698.72
1333.11	153.5	1745.93	1745.93
1333.61	153	1799.16	1799.16
1334.11	152.5	1818.33	1818.33
1334.61	152	1812.28	1812.28
1335.11	151.5	1768.22	1768.22
1335.61	151	1708.34	1708.34
1336.11	150.5	1753.02	1753.02
1336.61	150	1793.97	1793.97
1337.11	149.5	1772.97	1772.97
1337.61	149	1743.52	1743.52
1338.11	148.5	1786.2	1786.2
1338.61	148	1840.69	1840.69
1339.11	147.5	1802.54	1802.54
1339.61	147	1838.39	1838.39
1340.11	146.5	1798.4	1798.4
1340.61	146	1792.89	1792.89
1341.11	145.5	1774.62	1774.62
1341.61	145	1789.84	1789.84
1342.11	144.5	1808.08	1808.08
1342.61	144	1816.71	1816.71
1343.11	143.5	1798.1	1798.1
1343.61	143	1789.28	1789.28
1344.11	142.5	1831.89	1831.89
1344.61	142	1890.02	1890.02
1345.11	141.5	1829.14	1829.14
1345.61	141	1885.86	1885.86
1346.11	140.5	1835.1	1835.1
1346.61	140	1845.23	1845.23
1347.11	139.5	1866.83	1866.83
1347.61	139	1842.71	1842.71
1348.11	138.5	1808.22	1808.22
1348.61	138	1768.43	1768.43
1349.11	137.5	1871.14	1871.14
1349.61	137	1895.17	1895.17
1350.11	136.5	1896.69	1896.69
1350.61	136	1909.6	1909.6
1351.11	135.5	1855.7	1855.7
1351.61	135	1872.29	1872.29
1352.11	134.5	1819.06	1819.06
1352.61	134	1848.2	1848.2
1353.11	133.5	1891.24	1891.24
1353.61	133	1903.12	1903.12
1354.11	132.5	1845.73	1845.73
1354.61	132	1789.73	1789.73
1355.11	131.5	1837.09	1837.09
1355.61	131	1852.48	1852.48
1356.11	130.5	1904.3	1904.3
1356.61	130	1858.34	1858.34
1357.11	129.5	1842.98	1842.98
1357.61	129	1889.09	1889.09
1358.11	128.5	1925.36	1925.36
1358.61	128	1943.07	1943.07
1359.11	127.5	1881.08	1881.08
1359.61	127	1822.81	1822.81
1360.11	126.5	1886.04	1886.04
1360.61	126	1915.3	1915.3
1361.11	125.5	1917.91	1917.91
1361.61	125	1902.86	1902.86
1362.11	124.5	1916.14	1916.14
1362.61	124	1857.4	1857.4
1363.11	123.5	1937.31	1937.31
1363.61	123	1971.01	1971.01
1364.11	122.5	1934.69	1934.69
1364.61	122	1915.72	1915.72
1365.11	121.5	1864.67	1864.67
1365.61	121	1900.41	1900.41
1366.11	120.5	1990.16	1990.16
1366.61	120	1938.47	1938.47
1367.11	119.5	1961.34	1961.34
1367.61	119	1935.4	1935.4
1368.11	118.5	1972.13	1972.13
1368.61	118	1909.67	1909.67
1369.11	117.5	1939.24	1939.24
1369.61	117	1974.36	1974.36
1370.11	116.5	1908.8	1908.8
1370.61	116	1969.53	1969.53
1371.11	115.5	1976.84	1976.84
1371.61	115	1943.82	1943.82
1372.11	114.5	1845.1	1845.1
1372.61	114	1923.44	1923.44
1373.11	113.5	1915.29	1915.29
1373.61	113	1940.17	1940.17
1374.11	112.5	1923.5	1923.5
1374.61	112	1927.4	1927.4
1375.11	111.5	1953.72	1953.72
1375.61	111	1946.72	1946.72
1376.11	110.5	2009.39	2009.39
1376.61	110	1971.32	1971.32
1377.11	109.5	1983.68	1983.68
1377.61	109	2002.48	2002.48
1378.11	108.5	2047.48	2047.48
1378.61	108	2015.31	2015.31
1379.11	107.5	2010.9	2010.9
1379.61	107	2023.09	2023.09
1380.11	106.5	2073.19	2073.19
1380.61	106	2039.38	2039.38
1381.11	105.5	2112.18	2112.18
1381.61	105	2042.26	2042.26
1382.11	104.5	2115.5	2115.5
1382.61	104	2108.73	2108.73
1383.11	103.5	2104.26	2104.26
1383.61	103	2082.06	2082.06
1384.11	102.5	2106.58	2106.58
1384.61	102	2166.94	2166.94
1385.11	101.5	2270.9	2270.9
1385.61	101	2275.1	2275.1
1386.11	100.5	2298.07	2298.07
1386.61	100	2482.04	2482.04
1387.11	99.5	2489.18	2489.18
1387.61	99	2635.14	2635.14
1388.11	98.5	2676.41	2676.41
1388.61	98	2885.66	2885.66
1389.11	97.5	2931.67	2931.67
1389.61	97	2879.64	2879.64
1390.11	96.5	2892.84	2892.84
1390.61	96	2726.88	2726.88
1391.11	95.5	2583.2	2583.2
1391.61	95	2428.11	2428.11
1392.11	94.5	2326.64	2326.64
1392.61	94	2209	2209
1393.11	93.5	2154.87	2154.87
1393.61	93	2143.36	2143.36
1394.11	92.5	2021.77	2021.77
1394.61	92	2030.8	2030.8
1395.11	91.5	2009.8	2009.8
1395.61	91	1993.46	1993.46
1396.11	90.5	2017.39	2017.39
1396.61	90	2013.47	2013.47
1397.11	89.5	1936.41	1936.41
1397.61	89	1933.62	1933.62
1398.11	88.5	1875.24	1875.24
1398.61	88	1904.48	1904.48
1399.11	87.5	1959.43	1959.43
1399.61	87	1926.47	1926.47
1400.11	86.5	1915.83	1915.83
1400.61	86	1891.08	1891.08
1401.11	85.5	1863.79	1863.79
1401.61	85	1969.98	1969.98
1402.11	84.5	1966.76	1966.76
1402.61	84	1891.6	1891.6
1403.11	83.5	1934.19	1934.19
1403.61	83	2010.83	2010.83
1404.11	82.5	1926.42	1926.42
1404.61	82	1935.48	1935.48
1405.11	81.5	1969.37	1969.37
1405.61	81	1970.47	1970.47
1406.11	80.5	1919.59	1919.59
1406.61	80	1912.76	1912.76
1407.11	79.5	1955.99	1955.99
1407.61	79	2055.42	2055.42
1408.11	78.5	2006.2	2006.2
1408.61	78	1954.69	1954.69
1409.11	77.5	1995.78	1995.78
1409.61	77	1941.88	1941.88
1410.11	76.5	1973.3	1973.3
1410.61	76	1935.32	1935.32
1411.11	75.5	2018.46	2018.46
1411.61	75	2059.27	2059.27
1412.11	74.5	2011.14	2011.14
1412.61	74	2047.97	2047.97
1413.11	73.5	2047.86	2047.86
1413.61	73	2044.53	2044.53
1414.11	72.5	2159.37	2159.37
1414.61	72	2128.94	2128.94
1415.11	71.5	2117.24	2117.24
1415.61	71	2204.78	2204.78
1416.11	70.5	2225.42	2225.42
1416.61	70	2275.68	2275.68
1417.11	69.5	2338.2	2338.2
1417.61	69	2378.86	2378.86
1418.11	68.5	2410.66	2410.66
1418.61	68	2447.51	2447.51
1419.11	67.5	2625.78	2625.78
1419.61	67	2780.14	2780.14
1420.11	66.5	2839.82	2839.82
1420.61	66	2781.47	2781.47
1421.11	65.5	2989.23	2989.23
1421.61	65	3045.04	3045.04
1422.11	64.5	3067.3	3067.3
1422.61	64	3147.84	3147.84
1423.11	63.5	3165.9	3165.9
1423.61	63	3154.08	3154.08
1424.11	62.5	3284.07	3284.07
1424.61	62	3230.11	3230.11
1425.11	61.5	3347.14	3347.14
1425.61	61	3462.27	3462.27
1426.11	60.5	3457.14	3457.14
1426.61	60	3474.59	3474.59
1427.11	59.5	3567.72	3567.72
1427.61	59	3530.92	3530.92
1428.11	58.5	3481.2	3481.2
1428.61	58	3493.5	3493.5
1429.11	57.5	3338.44	3338.44
1429.61	57	3216.17	3216.17
1430.11	56.5	3123.81	3123.81
1430.61	56	2867.92	2867.92
1431.11	55.5	2631.98	2631.98
1431.61	55	2450.54	2450.54
1432.11	54.5	2221.32	2221.32
1432.61	54	2080.72	2080.72
1433.11	53.5	1930.69	1930.69
1433.61	53	1662.67	1662.67
1434.11	52.5	1607	1607
1434.61	52	1521.34	1521.34
1435.11	51.5	1411.06	1411.06
1435.61	51	1335.84	1335.84
1436.11	50.5	1280.12	1280.12
1436.61	50	1234.96	1234.96
1437.11	49.5	1167.74	1167.74
1437.61	49	1106.36	1106.36
1438.11	48.5	1061.92	1061.92
1438.61	48	1102.48	1102.48
1439.11	47.5	1008.62	1008.62
1439.61	47	958.622	958.622
1440.11	46.5	949.138	949.138
1440.61	46	950.33	950.33
1441.11	45.5	939.151	939.151
1441.61	45	933.844	933.844
1442.11	44.5	889.878	889.878
1442.61	44	852.28	852.28
1443.11	43.5	906.481	906.481
1443.61	43	892.79	892.79
1444.11	42.5	901.661	901.661
1444.61	42	924.054	924.054
1445.11	41.5	934.058	934.058
1445.61	41	943.243	943.243
1446.11	40.5	878.517	878.517
1446.61	40	879.599	879.599
1447.11	39.5	873.21	873.21
1447.61	39	931.273	931.273
1448.11	38.5	920.918	920.918
1448.61	38	860.478	860.478
1449.11	37.5	850.982	850.982
1449.61	37	904.748	904.748
1450.11	36.5	898.182	898.182
1450.61	36	928.969	928.969
1451.11	35.5	866.994	866.994
1451.61	35	872.422	872.422
1452.11	34.5	868.13	868.13
1452.61	34	911.963	911.963
1453.11	33.5	925.338	925.338
1453.61	33	922.769	922.769
1454.11	32.5	912.817	912.817
1454.61	32	938.971	938.971
1455.11	31.5	957.449	957.449
1455.61	31	947.163	947.163
1456.11	30.5	944.083	944.083
1456.61	30	943.696	943.696
1457.11	29.5	961	961
1457.61	29	937.337	937.337
1458.11	28.5	940.282	940.282
1458.61	28	888.646	888.646
1459.11	27.5	867.021	867.021
1459.61	27	888.567	888.567
1460.11	26.5	877.77	877.77
1460.61	26	948.608	948.608
1461.11	25.5	899.997	899.997
1461.61	25	904.431	904.431
1462.11	24.5	957.933	957.933
1462.61	24	983.796	983.796
1463.11	23.5	976.71	976.71
1463.61	23	921.26	921.26
1464.11	22.5	941.038	941.038
1464.61	22	871.949	871.949
1465.11	21.5	936.412	936.412
1465.61	21	944.303	944.303
1466.11	20.5	930.511	930.511
1466.61	20	903.219	903.219
1467.11	19.5	902.516	902.516
1467.61	19	907.629	907.629
1468.11	18.5	946.918	946.918
1468.61	18	1007.86	1007.86
1469.11	17.5	945.44	945.44
1469.61	17	932.33	932.33
1470.11	16.5	1003.03	1003.03
1470.61	16	962.763	962.763
1471.11	15.5	975.32	975.32
1471.61	15	1022.04	1022.04
1472.11	14.5	1025.13	1025.13
1472.61	14	1099.92	1099.92
1473.11	13.5	1135.62	1135.62
1473.61	13	1090.08	1090.08
1474.11	12.5	1047.69	1047.69
1474.61	12	1054.81	1054.81
1475.11	11.5	1045.41	1045.41
1475.61	11	1044.33	1044.33
1476.11	10.5	1144.1	1144.1
1476.61	10	1141.48	1141.48
1477.11	9.5	1117.67	1117.67
1477.61	9	1203.91	1203.91
1478.11	8.5	1395.13	1395.13
1478.61	8	1943.23	1943.23
1479.11	7.5	3679.23	3679.23
1479.61	7	6137.51	6137.51
1480.11	6.5	7168.18	7168.18
1480.61	6	7230.59	7230.59
1481.11	5.5	7738.5	7738.5
1481.61	5	8673.2	8673.2
1482.11	4.5	8283.06	8283.06
1482.61	4	4968.58	4968.58
1483.11	3.5	1138.1	1138.1
1483.61	3	450.852	450.852
1484.11	2.5	387.796	387.796
1484.61	2	334.201	334.201
1485.11	1.5	334.199	334.199
1485.61	1	348.972	348.972
1486.11	0.5	322.52	322.52
1486.61	-2.27374e-013	154.581	154.581