C:\Users\Mark\ownCloud\Muelheim Group\Projects\Gas phase background\EX340_CEC356_Ag N2 LargeArea.vms
Ag3p
	Characteristic Energy eV	1486.61	Acquisition Time s	2.8
KE_Ag3p	BE_Ag3p	CPS_Ag3p
686.61	800	3198.98
686.71	799.9	3255.9
686.81	799.8	3160.58
686.91	799.7	3264.15
687.01	799.6	3214.37
687.11	799.5	3247.88
687.21	799.4	3238.93
687.31	799.3	3219.72
687.41	799.2	3200.76
687.51	799.1	3186.25
687.61	799	3166.19
687.71	798.9	3232.71
687.81	798.8	3211.38
687.91	798.7	3279.46
688.01	798.6	3269.13
688.11	798.5	3218.31
688.21	798.4	3204.75
688.31	798.3	3251.07
688.41	798.2	3216.09
688.51	798.1	3222.56
688.61	798	3261.58
688.71	797.9	3247.79
688.81	797.8	3231.25
688.91	797.7	3283.87
689.01	797.6	3274.03
689.11	797.5	3249.5
689.21	797.4	3214.98
689.31	797.3	3240.7
689.41	797.2	3234.59
689.51	797.1	3200.81
689.61	797	3259.55
689.71	796.9	3203.02
689.81	796.8	3220.77
689.91	796.7	3223.83
690.01	796.6	3210.18
690.11	796.5	3242.75
690.21	796.4	3212.75
690.31	796.3	3270.96
690.41	796.2	3266.1
690.51	796.1	3244.56
690.61	796	3228.31
690.71	795.9	3201.2
690.81	795.8	3224.6
690.91	795.7	3232.66
691.01	795.6	3178.46
691.11	795.5	3224.99
691.21	795.4	3255.78
691.31	795.3	3246.6
691.41	795.2	3245.41
691.51	795.1	3335.14
691.61	795	3261.63
691.71	794.9	3264.86
691.81	794.8	3252.62
691.91	794.7	3266.13
692.01	794.6	3237.99
692.11	794.5	3328.31
692.21	794.4	3234.98
692.31	794.3	3253.92
692.41	794.2	3290.3
692.51	794.1	3278.51
692.61	794	3285.32
692.71	793.9	3258.67
692.81	793.8	3285.33
692.91	793.7	3259.13
693.01	793.6	3278.07
693.11	793.5	3254.2
693.21	793.4	3219.7
693.31	793.3	3236.82
693.41	793.2	3296.96
693.51	793.1	3296.25
693.61	793	3328.55
693.71	792.9	3305.17
693.81	792.8	3333.71
693.91	792.7	3297.84
694.01	792.6	3296.09
694.11	792.5	3288.76
694.21	792.4	3305.56
694.31	792.3	3323.49
694.41	792.2	3295.25
694.51	792.1	3287.05
694.61	792	3265.79
694.71	791.9	3285.99
694.81	791.8	3294.18
694.91	791.7	3313.59
695.01	791.6	3303.9
695.11	791.5	3324.03
695.21	791.4	3275.77
695.31	791.3	3241.53
695.41	791.2	3253.72
695.51	791.1	3250.29
695.61	791	3289.93
695.71	790.9	3269.21
695.81	790.8	3301.82
695.91	790.7	3338.9
696.01	790.6	3335.92
696.11	790.5	3333.49
696.21	790.4	3315.48
696.31	790.3	3353.82
696.41	790.2	3353.57
696.51	790.1	3273.63
696.61	790	3287.13
696.71	789.9	3254.94
696.81	789.8	3284.14
696.91	789.7	3331.08
697.01	789.6	3285.97
697.11	789.5	3322.34
697.21	789.4	3375.66
697.31	789.3	3306.99
697.41	789.2	3297.85
697.51	789.1	3273.05
697.61	789	3307.96
697.71	788.9	3335.99
697.81	788.8	3300.6
697.91	788.7	3321.08
698.01	788.6	3396.34
698.11	788.5	3318.97
698.21	788.4	3291.81
698.31	788.3	3303
698.41	788.2	3352.02
698.51	788.1	3336.64
698.61	788	3292.74
698.71	787.9	3365.32
698.81	787.8	3357.98
698.91	787.7	3347.16
699.01	787.6	3349.06
699.11	787.5	3313.36
699.21	787.4	3319.59
699.31	787.3	3345.53
699.41	787.2	3356.48
699.51	787.1	3335.86
699.61	787	3336.91
699.71	786.9	3345.02
699.81	786.8	3287.47
699.91	786.7	3279.46
700.01	786.6	3285.65
700.11	786.5	3269.65
700.21	786.4	3337.09
700.31	786.3	3346.28
700.41	786.2	3322.24
700.51	786.1	3367.3
700.61	786	3350.76
700.71	785.9	3286.03
700.81	785.8	3338.47
700.91	785.7	3343.35
701.01	785.6	3330.73
701.11	785.5	3336.92
701.21	785.4	3347.2
701.31	785.3	3307.92
701.41	785.2	3337.54
701.51	785.1	3355
701.61	785	3387.18
701.71	784.9	3324.18
701.81	784.8	3322.54
701.91	784.7	3348.83
702.01	784.6	3370.35
702.11	784.5	3343.81
702.21	784.4	3334.45
702.31	784.3	3372.47
702.41	784.2	3367.63
702.51	784.1	3350.73
702.61	784	3358.06
702.71	783.9	3371.74
702.81	783.8	3361.85
702.91	783.7	3331.07
703.01	783.6	3358.83
703.11	783.5	3403.49
703.21	783.4	3360.66
703.31	783.3	3383.2
703.41	783.2	3429.68
703.51	783.1	3371.16
703.61	783	3330.83
703.71	782.9	3384.44
703.81	782.8	3343.12
703.91	782.7	3353.67
704.01	782.6	3435.12
704.11	782.5	3418.81
704.21	782.4	3396.7
704.31	782.3	3377.58
704.41	782.2	3353.36
704.51	782.1	3328.7
704.61	782	3312.35
704.71	781.9	3327.56
704.81	781.8	3384.97
704.91	781.7	3420.59
705.01	781.6	3419.27
705.11	781.5	3376.56
705.21	781.4	3383.7
705.31	781.3	3389.68
705.41	781.2	3383.8
705.51	781.1	3351.99
705.61	781	3400.29
705.71	780.9	3341.58
705.81	780.8	3367.17
705.91	780.7	3370.05
706.01	780.6	3416.71
706.11	780.5	3333.96
706.21	780.4	3374.9
706.31	780.3	3336.99
706.41	780.2	3348.61
706.51	780.1	3385.26
706.61	780	3377.25
706.71	779.9	3399.96
706.81	779.8	3412.75
706.91	779.7	3416
707.01	779.6	3399.29
707.11	779.5	3336.01
707.21	779.4	3393.75
707.31	779.3	3363.71
707.41	779.2	3433.93
707.51	779.1	3406.27
707.61	779	3429.53
707.71	778.9	3417.97
707.81	778.8	3360.42
707.91	778.7	3366.92
708.01	778.6	3401.67
708.11	778.5	3414.12
708.21	778.4	3428.15
708.31	778.3	3404.72
708.41	778.2	3413.95
708.51	778.1	3444.09
708.61	778	3432.38
708.71	777.9	3441.42
708.81	777.8	3378.45
708.91	777.7	3435.74
709.01	777.6	3434.65
709.11	777.5	3463.79
709.21	777.4	3476.93
709.31	777.3	3437.52
709.41	777.2	3450.91
709.51	777.1	3451.66
709.61	777	3419.31
709.71	776.9	3416.56
709.81	776.8	3452.87
709.91	776.7	3443.96
710.01	776.6	3486.07
710.11	776.5	3402.52
710.21	776.4	3428.63
710.31	776.3	3445.66
710.41	776.2	3436.93
710.51	776.1	3428.42
710.61	776	3435.75
710.71	775.9	3444.84
710.81	775.8	3434.09
710.91	775.7	3451.57
711.01	775.6	3482.67
711.11	775.5	3431.87
711.21	775.4	3378.78
711.31	775.3	3408.61
711.41	775.2	3413.46
711.51	775.1	3501.66
711.61	775	3452.14
711.71	774.9	3442.8
711.81	774.8	3458.88
711.91	774.7	3426.4
712.01	774.6	3427.5
712.11	774.5	3470.24
712.21	774.4	3469.92
712.31	774.3	3465
712.41	774.2	3424.33
712.51	774.1	3470.88
712.61	774	3452.12
712.71	773.9	3437.36
712.81	773.8	3432.66
712.91	773.7	3428.83
713.01	773.6	3489.8
713.11	773.5	3470.43
713.21	773.4	3400.49
713.31	773.3	3470.66
713.41	773.2	3446.72
713.51	773.1	3455.8
713.61	773	3492.92
713.71	772.9	3442.14
713.81	772.8	3448.71
713.91	772.7	3424.08
714.01	772.6	3444.26
714.11	772.5	3503.87
714.21	772.4	3475.96
714.31	772.3	3485.72
714.41	772.2	3405.35
714.51	772.1	3446.39
714.61	772	3441.26
714.71	771.9	3459.1
714.81	771.8	3466.65
714.91	771.7	3465.05
715.01	771.6	3479.53
715.11	771.5	3481.49
715.21	771.4	3444.91
715.31	771.3	3472.98
715.41	771.2	3437.82
715.51	771.1	3442.62
715.61	771	3446.61
715.71	770.9	3464.7
715.81	770.8	3499.23
715.91	770.7	3486.65
716.01	770.6	3485.59
716.11	770.5	3502.29
716.21	770.4	3472.87
716.31	770.3	3523.14
716.41	770.2	3493.94
716.51	770.1	3483.99
716.61	770	3571.71
716.71	769.9	3495.46
716.81	769.8	3486.83
716.91	769.7	3538.99
717.01	769.6	3541.98
717.11	769.5	3505.97
717.21	769.4	3537.61
717.31	769.3	3488.54
717.41	769.2	3494.74
717.51	769.1	3504.97
717.61	769	3484.84
717.71	768.9	3517.14
717.81	768.8	3522.69
717.91	768.7	3479.13
718.01	768.6	3495.34
718.11	768.5	3495.46
718.21	768.4	3481.09
718.31	768.3	3413.69
718.41	768.2	3468.31
718.51	768.1	3486.59
718.61	768	3491.4
718.71	767.9	3523.63
718.81	767.8	3576.97
718.91	767.7	3478.36
719.01	767.6	3503.72
719.11	767.5	3528.88
719.21	767.4	3542.8
719.31	767.3	3569.23
719.41	767.2	3531.62
719.51	767.1	3441.61
719.61	767	3544.59
719.71	766.9	3507.79
719.81	766.8	3454.1
719.91	766.7	3491.29
720.01	766.6	3482
720.11	766.5	3504.8
720.21	766.4	3544.63
720.31	766.3	3556.37
720.41	766.2	3557.35
720.51	766.1	3521.18
720.61	766	3518.85
720.71	765.9	3549.39
720.81	765.8	3505.42
720.91	765.7	3515.57
721.01	765.6	3535.23
721.11	765.5	3563.67
721.21	765.4	3551.95
721.31	765.3	3513.88
721.41	765.2	3519.7
721.51	765.1	3499.52
721.61	765	3554.79
721.71	764.9	3552.5
721.81	764.8	3597.46
721.91	764.7	3548.47
722.01	764.6	3552.85
722.11	764.5	3555.37
722.21	764.4	3595.37
722.31	764.3	3537.57
722.41	764.2	3517.9
722.51	764.1	3518.27
722.61	764	3547.22
722.71	763.9	3522.93
722.81	763.8	3507.7
722.91	763.7	3541.79
723.01	763.6	3460.15
723.11	763.5	3483.55
723.21	763.4	3505.8
723.31	763.3	3510.96
723.41	763.2	3528.81
723.51	763.1	3569.12
723.61	763	3558.45
723.71	762.9	3573.49
723.81	762.8	3558.17
723.91	762.7	3545.45
724.01	762.6	3524.75
724.11	762.5	3550.31
724.21	762.4	3542
724.31	762.3	3587.54
724.41	762.2	3567.8
724.51	762.1	3558.71
724.61	762	3596.04
724.71	761.9	3550.92
724.81	761.8	3548.62
724.91	761.7	3590.06
725.01	761.6	3528.07
725.11	761.5	3490.13
725.21	761.4	3596.99
725.31	761.3	3587.61
725.41	761.2	3555.81
725.51	761.1	3537.87
725.61	761	3588.92
725.71	760.9	3585.71
725.81	760.8	3540.2
725.91	760.7	3530.9
726.01	760.6	3595.45
726.11	760.5	3563.25
726.21	760.4	3586.74
726.31	760.3	3592.8
726.41	760.2	3564.48
726.51	760.1	3558.88
726.61	760	3620.11
726.71	759.9	3561.34
726.81	759.8	3575.62
726.91	759.7	3535.67
727.01	759.6	3587.03
727.11	759.5	3594.47
727.21	759.4	3598.66
727.31	759.3	3605.09
727.41	759.2	3611.57
727.51	759.1	3606.4
727.61	759	3646.83
727.71	758.9	3608.97
727.81	758.8	3583.92
727.91	758.7	3593.23
728.01	758.6	3594.17
728.11	758.5	3617.83
728.21	758.4	3590.13
728.31	758.3	3589.61
728.41	758.2	3635.42
728.51	758.1	3558.98
728.61	758	3606.26
728.71	757.9	3560.46
728.81	757.8	3568.69
728.91	757.7	3564.45
729.01	757.6	3628.42
729.11	757.5	3589.5
729.21	757.4	3610.33
729.31	757.3	3607.19
729.41	757.2	3636.91
729.51	757.1	3599.01
729.61	757	3594.8
729.71	756.9	3593.6
729.81	756.8	3647.16
729.91	756.7	3631.56
730.01	756.6	3628.84
730.11	756.5	3588.76
730.21	756.4	3600.88
730.31	756.3	3609.14
730.41	756.2	3575.54
730.51	756.1	3625.1
730.61	756	3592.74
730.71	755.9	3587.91
730.81	755.8	3632.14
730.91	755.7	3623.98
731.01	755.6	3631.27
731.11	755.5	3614.77
731.21	755.4	3608.92
731.31	755.3	3596.84
731.41	755.2	3615.72
731.51	755.1	3659.75
731.61	755	3609.3
731.71	754.9	3614.17
731.81	754.8	3618.5
731.91	754.7	3606.47
732.01	754.6	3683.79
732.11	754.5	3638.24
732.21	754.4	3630.89
732.31	754.3	3602.05
732.41	754.2	3617.26
732.51	754.1	3610.96
732.61	754	3588.2
732.71	753.9	3625.97
732.81	753.8	3634.32
732.91	753.7	3629.94
733.01	753.6	3594.03
733.11	753.5	3642.7
733.21	753.4	3675.55
733.31	753.3	3710.01
733.41	753.2	3647.91
733.51	753.1	3616.75
733.61	753	3604.61
733.71	752.9	3647.12
733.81	752.8	3618.59
733.91	752.7	3590.26
734.01	752.6	3629.4
734.11	752.5	3612.89
734.21	752.4	3632.55
734.31	752.3	3708.89
734.41	752.2	3627.61
734.51	752.1	3677.26
734.61	752	3731.84
734.71	751.9	3709.35
734.81	751.8	3675.05
734.91	751.7	3684.82
735.01	751.6	3688.81
735.11	751.5	3697.32
735.21	751.4	3646.59
735.31	751.3	3701.14
735.41	751.2	3636.99
735.51	751.1	3547.91
735.61	751	3606.2
735.71	750.9	3688.59
735.81	750.8	3698.9
735.91	750.7	3621.46
736.01	750.6	3586.72
736.11	750.5	3661.27
736.21	750.4	3711.69
736.31	750.3	3694.89
736.41	750.2	3685.58
736.51	750.1	3650.3
736.61	750	3672.82
736.71	749.9	3668.04
736.81	749.8	3673.87
736.91	749.7	3664.68
737.01	749.6	3641.21
737.11	749.5	3673.39
737.21	749.4	3684.49
737.31	749.3	3656.02
737.41	749.2	3681.46
737.51	749.1	3607.7
737.61	749	3631.36
737.71	748.9	3690.77
737.81	748.8	3679.1
737.91	748.7	3705.59
738.01	748.6	3683.63
738.11	748.5	3659.4
738.21	748.4	3673.92
738.31	748.3	3620
738.41	748.2	3654.95
738.51	748.1	3604.98
738.61	748	3661.18
738.71	747.9	3698.89
738.81	747.8	3672.91
738.91	747.7	3623.04
739.01	747.6	3667.9
739.11	747.5	3660.03
739.21	747.4	3666.22
739.31	747.3	3659.97
739.41	747.2	3645.3
739.51	747.1	3647.74
739.61	747	3643.6
739.71	746.9	3660.35
739.81	746.8	3683.1
739.91	746.7	3668.44
740.01	746.6	3687.34
740.11	746.5	3678.78
740.21	746.4	3648.18
740.31	746.3	3675.77
740.41	746.2	3704.94
740.51	746.1	3678.1
740.61	746	3681.49
740.71	745.9	3667.47
740.81	745.8	3688.87
740.91	745.7	3712.88
741.01	745.6	3647.06
741.11	745.5	3706.98
741.21	745.4	3708.7
741.31	745.3	3712.92
741.41	745.2	3709.07
741.51	745.1	3678.99
741.61	745	3761.09
741.71	744.9	3753.56
741.81	744.8	3763.15
741.91	744.7	3773.22
742.01	744.6	3701.02
742.11	744.5	3719.72
742.21	744.4	3741.93
742.31	744.3	3758.5
742.41	744.2	3750.56
742.51	744.1	3754.72
742.61	744	3694.1
742.71	743.9	3744.73
742.81	743.8	3710.02
742.91	743.7	3672.44
743.01	743.6	3727.07
743.11	743.5	3725.55
743.21	743.4	3768.7
743.31	743.3	3758.98
743.41	743.2	3722.72
743.51	743.1	3723.68
743.61	743	3718.35
743.71	742.9	3727.64
743.81	742.8	3743.09
743.91	742.7	3759.47
744.01	742.6	3731.21
744.11	742.5	3758.8
744.21	742.4	3738.34
744.31	742.3	3744.69
744.41	742.2	3668.61
744.51	742.1	3686.79
744.61	742	3697.59
744.71	741.9	3672.16
744.81	741.8	3711.8
744.91	741.7	3793.15
745.01	741.6	3733.98
745.11	741.5	3732.45
745.21	741.4	3697.85
745.31	741.3	3662.54
745.41	741.2	3728.08
745.51	741.1	3753.06
745.61	741	3777.64
745.71	740.9	3727.5
745.81	740.8	3747.28
745.91	740.7	3749.99
746.01	740.6	3760.66
746.11	740.5	3730.72
746.21	740.4	3703.9
746.31	740.3	3776.35
746.41	740.2	3760.94
746.51	740.1	3736.12
746.61	740	3734.86
746.71	739.9	3734.13
746.81	739.8	3739.65
746.91	739.7	3771.34
747.01	739.6	3746.84
747.11	739.5	3728.14
747.21	739.4	3726.89
747.31	739.3	3765.29
747.41	739.2	3813.66
747.51	739.1	3767.7
747.61	739	3763.21
747.71	738.9	3775.74
747.81	738.8	3777.22
747.91	738.7	3736.94
748.01	738.6	3782.89
748.11	738.5	3748.35
748.21	738.4	3770.86
748.31	738.3	3786.63
748.41	738.2	3820.01
748.51	738.1	3825.22
748.61	738	3743.67
748.71	737.9	3769.6
748.81	737.8	3781.47
748.91	737.7	3733.28
749.01	737.6	3769.73
749.11	737.5	3759.54
749.21	737.4	3809.89
749.31	737.3	3800.43
749.41	737.2	3789.13
749.51	737.1	3840.6
749.61	737	3838.52
749.71	736.9	3807.7
749.81	736.8	3774.58
749.91	736.7	3802.74
750.01	736.6	3792.67
750.11	736.5	3812.59
750.21	736.4	3831.89
750.31	736.3	3856.38
750.41	736.2	3790.07
750.51	736.1	3788.52
750.61	736	3767.83
750.71	735.9	3797.38
750.81	735.8	3742.44
750.91	735.7	3847.62
751.01	735.6	3838.51
751.11	735.5	3809.15
751.21	735.4	3784.18
751.31	735.3	3806.37
751.41	735.2	3807.4
751.51	735.1	3812.66
751.61	735	3805.48
751.71	734.9	3835.88
751.81	734.8	3860.82
751.91	734.7	3787.31
752.01	734.6	3787.78
752.11	734.5	3820.64
752.21	734.4	3809.65
752.31	734.3	3804.68
752.41	734.2	3845.04
752.51	734.1	3858.26
752.61	734	3809.49
752.71	733.9	3783.17
752.81	733.8	3789.35
752.91	733.7	3768.05
753.01	733.6	3763.6
753.11	733.5	3800.01
753.21	733.4	3813.6
753.31	733.3	3800.4
753.41	733.2	3744.51
753.51	733.1	3781.8
753.61	733	3873.26
753.71	732.9	3835.21
753.81	732.8	3812.42
753.91	732.7	3801.46
754.01	732.6	3806.11
754.11	732.5	3832.87
754.21	732.4	3786.57
754.31	732.3	3794.94
754.41	732.2	3766.97
754.51	732.1	3798.87
754.61	732	3835.62
754.71	731.9	3851.62
754.81	731.8	3853.71
754.91	731.7	3834.74
755.01	731.6	3818.34
755.11	731.5	3847.37
755.21	731.4	3814.89
755.31	731.3	3774.19
755.41	731.2	3790.37
755.51	731.1	3798.9
755.61	731	3800.88
755.71	730.9	3831.8
755.81	730.8	3852.64
755.91	730.7	3835.67
756.01	730.6	3809.64
756.11	730.5	3789.89
756.21	730.4	3801.82
756.31	730.3	3813.33
756.41	730.2	3787.78
756.51	730.1	3827.46
756.61	730	3793.94
756.71	729.9	3798.34
756.81	729.8	3840.33
756.91	729.7	3757.05
757.01	729.6	3771.78
757.11	729.5	3849.72
757.21	729.4	3780.69
757.31	729.3	3804.37
757.41	729.2	3755.35
757.51	729.1	3846.25
757.61	729	3821.71
757.71	728.9	3788.1
757.81	728.8	3800.37
757.91	728.7	3787.46
758.01	728.6	3790.43
758.11	728.5	3769.29
758.21	728.4	3779.33
758.31	728.3	3786.81
758.41	728.2	3771.21
758.51	728.1	3789.14
758.61	728	3780.71
758.71	727.9	3831.99
758.81	727.8	3812.52
758.91	727.7	3816.68
759.01	727.6	3806.26
759.11	727.5	3814.3
759.21	727.4	3867.15
759.31	727.3	3836.75
759.41	727.2	3782.86
759.51	727.1	3823.83
759.61	727	3799.56
759.71	726.9	3803.97
759.81	726.8	3769.81
759.91	726.7	3803.25
760.01	726.6	3805.99
760.11	726.5	3847.92
760.21	726.4	3831.49
760.31	726.3	3841.34
760.41	726.2	3834.72
760.51	726.1	3854.17
760.61	726	3806.36
760.71	725.9	3779.81
760.81	725.8	3830.79
760.91	725.7	3885.82
761.01	725.6	3867.53
761.11	725.5	3870.91
761.21	725.4	3862.15
761.31	725.3	3844.61
761.41	725.2	3913.29
761.51	725.1	3868.07
761.61	725	3815.23
761.71	724.9	3804.83
761.81	724.8	3834.24
761.91	724.7	3807.97
762.01	724.6	3836.67
762.11	724.5	3834.48
762.21	724.4	3831.95
762.31	724.3	3850.68
762.41	724.2	3888.25
762.51	724.1	3878.1
762.61	724	3870.15
762.71	723.9	3897.37
762.81	723.8	3879.69
762.91	723.7	3863.01
763.01	723.6	3822.34
763.11	723.5	3834.43
763.21	723.4	3837.53
763.31	723.3	3850.34
763.41	723.2	3884.99
763.51	723.1	3906.02
763.61	723	3903.85
763.71	722.9	3919.5
763.81	722.8	3855.54
763.91	722.7	3897
764.01	722.6	3946.63
764.11	722.5	3913.27
764.21	722.4	3973.14
764.31	722.3	3928.13
764.41	722.2	3959.65
764.51	722.1	3951.83
764.61	722	3945.76
764.71	721.9	3934.52
764.81	721.8	3927.13
764.91	721.7	3995.39
765.01	721.6	3866.24
765.11	721.5	3922.14
765.21	721.4	3959.99
765.31	721.3	3959.21
765.41	721.2	3950.58
765.51	721.1	3925.91
765.61	721	3944.34
765.71	720.9	3946.7
765.81	720.8	4008.18
765.91	720.7	3975.33
766.01	720.6	3965.31
766.11	720.5	4002.31
766.21	720.4	3952.86
766.31	720.3	3903.83
766.41	720.2	3966.38
766.51	720.1	3993.35
766.61	720	4025.37
766.71	719.9	4018.51
766.81	719.8	3971.18
766.91	719.7	3996.83
767.01	719.6	4017.94
767.11	719.5	4020.75
767.21	719.4	3933.52
767.31	719.3	3958.08
767.41	719.2	4086.8
767.51	719.1	4002.23
767.61	719	3983.84
767.71	718.9	3952.59
767.81	718.8	3988.97
767.91	718.7	3976.71
768.01	718.6	3978.13
768.11	718.5	3959.99
768.21	718.4	4033.43
768.31	718.3	4017.93
768.41	718.2	3990.49
768.51	718.1	3993.76
768.61	718	4002.48
768.71	717.9	3982.51
768.81	717.8	3967.77
768.91	717.7	3979.69
769.01	717.6	3963.27
769.11	717.5	3871.1
769.21	717.4	3979.38
769.31	717.3	3961.47
769.41	717.2	3966.71
769.51	717.1	3938.15
769.61	717	3970.14
769.71	716.9	4000.82
769.81	716.8	3975.56
769.91	716.7	3987.6
770.01	716.6	3960.96
770.11	716.5	3938.61
770.21	716.4	3939.32
770.31	716.3	3939.39
770.41	716.2	3924.3
770.51	716.1	3891.98
770.61	716	3935.25
770.71	715.9	3850.57
770.81	715.8	3940.86
770.91	715.7	4009.59
771.01	715.6	4008.71
771.11	715.5	3987.12
771.21	715.4	3915.2
771.31	715.3	3927.77
771.41	715.2	3936.57
771.51	715.1	3946.01
771.61	715	3952.04
771.71	714.9	3955.32
771.81	714.8	3918.93
771.91	714.7	3930.13
772.01	714.6	3901.08
772.11	714.5	3908.3
772.21	714.4	3885.38
772.31	714.3	3948.06
772.41	714.2	3860.73
772.51	714.1	3907.01
772.61	714	3783.46
772.71	713.9	3839.22
772.81	713.8	3825.35
772.91	713.7	3873.98
773.01	713.6	3847.84
773.11	713.5	3895.42
773.21	713.4	3896.93
773.31	713.3	3868.48
773.41	713.2	3860.02
773.51	713.1	3887.72
773.61	713	3861.28
773.71	712.9	3933.94
773.81	712.8	3914.76
773.91	712.7	3944.56
774.01	712.6	3894.25
774.11	712.5	3922.98
774.21	712.4	3908.62
774.31	712.3	3826.23
774.41	712.2	3949.05
774.51	712.1	3918.24
774.61	712	3855.77
774.71	711.9	3877.9
774.81	711.8	3899.84
774.91	711.7	3871.04
775.01	711.6	3845.76
775.11	711.5	3836.58
775.21	711.4	3843.04
775.31	711.3	3847.23
775.41	711.2	3861.83
775.51	711.1	3831.09
775.61	711	3895.96
775.71	710.9	3823.85
775.81	710.8	3829.3
775.91	710.7	3854.55
776.01	710.6	3867.88
776.11	710.5	3856.52
776.21	710.4	3848.97
776.31	710.3	3874.43
776.41	710.2	3857.85
776.51	710.1	3807.28
776.61	710	3864.46
776.71	709.9	3839.58
776.81	709.8	3862.51
776.91	709.7	3887.44
777.01	709.6	3814.33
777.11	709.5	3808.14
777.21	709.4	3780.51
777.31	709.3	3836.19
777.41	709.2	3861.01
777.51	709.1	3787.95
777.61	709	3869.51
777.71	708.9	3868.5
777.81	708.8	3845.56
777.91	708.7	3850.41
778.01	708.6	3791.25
778.11	708.5	3873.19
778.21	708.4	3865.3
778.31	708.3	3845.88
778.41	708.2	3855.54
778.51	708.1	3785.67
778.61	708	3885.52
778.71	707.9	3888.17
778.81	707.8	3846.16
778.91	707.7	3835.68
779.01	707.6	3780.56
779.11	707.5	3846.25
779.21	707.4	3844.06
779.31	707.3	3783.95
779.41	707.2	3835.76
779.51	707.1	3850.67
779.61	707	3891.87
779.71	706.9	3880.53
779.81	706.8	3870.79
779.91	706.7	3817.19
780.01	706.6	3817.19
780.11	706.5	3854.78
780.21	706.4	3825.05
780.31	706.3	3864.02
780.41	706.2	3831.32
780.51	706.1	3847.73
780.61	706	3841.21
780.71	705.9	3823.65
780.81	705.8	3822.87
780.91	705.7	3823.3
781.01	705.6	3806.43
781.11	705.5	3829.67
781.21	705.4	3823.03
781.31	705.3	3820.33
781.41	705.2	3806.13
781.51	705.1	3847.88
781.61	705	3852.19
781.71	704.9	3839.81
781.81	704.8	3803.69
781.91	704.7	3875.56
782.01	704.6	3861.17
782.11	704.5	3834.13
782.21	704.4	3865.23
782.31	704.3	3892.29
782.41	704.2	3889.83
782.51	704.1	3842.6
782.61	704	3836.93
782.71	703.9	3874.37
782.81	703.8	3835.37
782.91	703.7	3829.57
783.01	703.6	3866.05
783.11	703.5	3901.64
783.21	703.4	3918.52
783.31	703.3	3823.73
783.41	703.2	3859.39
783.51	703.1	3820.78
783.61	703	3822.84
783.71	702.9	3880.51
783.81	702.8	3846.91
783.91	702.7	3876.62
784.01	702.6	3915.64
784.11	702.5	3851.6
784.21	702.4	3857.66
784.31	702.3	3865.69
784.41	702.2	3835.81
784.51	702.1	3877.34
784.61	702	3864.7
784.71	701.9	3868.44
784.81	701.8	3859.52
784.91	701.7	3887.92
785.01	701.6	3856.29
785.11	701.5	3861.94
785.21	701.4	3884.88
785.31	701.3	3793.37
785.41	701.2	3851.98
785.51	701.1	3849.24
785.61	701	3876.49
785.71	700.9	3906.72
785.81	700.8	3849.91
785.91	700.7	3861.55
786.01	700.6	3852.77
786.11	700.5	3892.31
786.21	700.4	3923.87
786.31	700.3	3844.18
786.41	700.2	3864.68
786.51	700.1	3860.29
786.61	700	3891.56
786.71	699.9	3940.28
786.81	699.8	3897.11
786.91	699.7	3829.3
787.01	699.6	3880.31
787.11	699.5	3895.45
787.21	699.4	3868.38
787.31	699.3	3845.83
787.41	699.2	3851.6
787.51	699.1	3858.07
787.61	699	3867.68
787.71	698.9	3902.43
787.81	698.8	3875.28
787.91	698.7	3889.19
788.01	698.6	3936.64
788.11	698.5	3949.64
788.21	698.4	3881.28
788.31	698.3	3885.27
788.41	698.2	3896.97
788.51	698.1	3897.63
788.61	698	3888.54
788.71	697.9	3876.02
788.81	697.8	3840.7
788.91	697.7	3882.25
789.01	697.6	3986.88
789.11	697.5	3979.9
789.21	697.4	3882.33
789.31	697.3	3871.53
789.41	697.2	3905.99
789.51	697.1	3906.66
789.61	697	3862.69
789.71	696.9	3899.81
789.81	696.8	3870.27
789.91	696.7	3943.02
790.01	696.6	3934.95
790.11	696.5	3913.17
790.21	696.4	3926.67
790.31	696.3	3830.62
790.41	696.2	3946.94
790.51	696.1	3941.86
790.61	696	3880.9
790.71	695.9	3840.73
790.81	695.8	3899.86
790.91	695.7	3953.6
791.01	695.6	4000.32
791.11	695.5	3971.66
791.21	695.4	3902.5
791.31	695.3	3975.32
791.41	695.2	3973.23
791.51	695.1	3946.99
791.61	695	3918.64
791.71	694.9	3953.48
791.81	694.8	3958.84
791.91	694.7	3929.72
792.01	694.6	3924.21
792.11	694.5	3921.39
792.21	694.4	3956.09
792.31	694.3	3943.47
792.41	694.2	3947.73
792.51	694.1	3952.21
792.61	694	3877.38
792.71	693.9	3945.69
792.81	693.8	4022.71
792.91	693.7	3901.85
793.01	693.6	3929.06
793.11	693.5	3944.42
793.21	693.4	3899.02
793.31	693.3	3887.49
793.41	693.2	3872.95
793.51	693.1	3947.47
793.61	693	3954.63
793.71	692.9	3873.24
793.81	692.8	3938.84
793.91	692.7	3926.97
794.01	692.6	4009.21
794.11	692.5	3945.45
794.21	692.4	3919.59
794.31	692.3	3945.36
794.41	692.2	3910.54
794.51	692.1	3942.89
794.61	692	3915.9
794.71	691.9	3920.71
794.81	691.8	3936.97
794.91	691.7	3931.96
795.01	691.6	3969.85
795.11	691.5	3991.5
795.21	691.4	3931.84
795.31	691.3	3931.02
795.41	691.2	3934.93
795.51	691.1	3962.07
795.61	691	3896.44
795.71	690.9	3952.02
795.81	690.8	3895.6
795.91	690.7	3924.78
796.01	690.6	3933.33
796.11	690.5	3936.96
796.21	690.4	3931.12
796.31	690.3	3917.62
796.41	690.2	3993.18
796.51	690.1	3963.1
796.61	690	3951.62
796.71	689.9	3968.99
796.81	689.8	3964.53
796.91	689.7	3957.17
797.01	689.6	3914.99
797.11	689.5	3957.36
797.21	689.4	3960
797.31	689.3	3926.47
797.41	689.2	3963.08
797.51	689.1	3962.21
797.61	689	3965.92
797.71	688.9	3914.8
797.81	688.8	3926.91
797.91	688.7	3930.56
798.01	688.6	3964.77
798.11	688.5	3982.3
798.21	688.4	3962.12
798.31	688.3	3994.83
798.41	688.2	4024
798.51	688.1	4003.73
798.61	688	4018.1
798.71	687.9	3997.46
798.81	687.8	3963.85
798.91	687.7	3963.21
799.01	687.6	3987.71
799.11	687.5	3983.22
799.21	687.4	4040.51
799.31	687.3	4005.54
799.41	687.2	4006.91
799.51	687.1	4016.77
799.61	687	4006.95
799.71	686.9	3992.43
799.81	686.8	4014.31
799.91	686.7	4004.72
800.01	686.6	3996.03
800.11	686.5	3986.9
800.21	686.4	3997.01
800.31	686.3	4035.56
800.41	686.2	3978.66
800.51	686.1	4048.41
800.61	686	4053.06
800.71	685.9	4035.21
800.81	685.8	4045.87
800.91	685.7	4017.39
801.01	685.6	3977.63
801.11	685.5	3965.08
801.21	685.4	3988.86
801.31	685.3	3977.94
801.41	685.2	3956.81
801.51	685.1	3974.55
801.61	685	4028.04
801.71	684.9	4009.95
801.81	684.8	4014.07
801.91	684.7	4013.76
802.01	684.6	3993.76
802.11	684.5	4037.58
802.21	684.4	3973.77
802.31	684.3	3976.95
802.41	684.2	4026.42
802.51	684.1	4002.11
802.61	684	4044.47
802.71	683.9	4002.19
802.81	683.8	3968.66
802.91	683.7	4023.4
803.01	683.6	4022.19
803.11	683.5	3997.43
803.21	683.4	4028.67
803.31	683.3	4100.19
803.41	683.2	4073.52
803.51	683.1	4057.39
803.61	683	4028
803.71	682.9	4004.5
803.81	682.8	4055.77
803.91	682.7	4076.46
804.01	682.6	4019.66
804.11	682.5	4035.65
804.21	682.4	4015.82
804.31	682.3	4027.17
804.41	682.2	3960.66
804.51	682.1	4017.24
804.61	682	4053.51
804.71	681.9	4058.45
804.81	681.8	4012.62
804.91	681.7	4000.76
805.01	681.6	4073.13
805.11	681.5	3992.96
805.21	681.4	4014.42
805.31	681.3	4065.42
805.41	681.2	4054.62
805.51	681.1	4039.33
805.61	681	3958.17
805.71	680.9	4010.03
805.81	680.8	3980.37
805.91	680.7	4070.27
806.01	680.6	4021.95
806.11	680.5	4033.61
806.21	680.4	4039.14
806.31	680.3	4068.73
806.41	680.2	4053.41
806.51	680.1	3990.06
806.61	680	4031.88
806.71	679.9	4045.67
806.81	679.8	4108.46
806.91	679.7	4097.63
807.01	679.6	4073.98
807.11	679.5	4021.42
807.21	679.4	4002.58
807.31	679.3	4040.04
807.41	679.2	4044.98
807.51	679.1	4049.45
807.61	679	4088.81
807.71	678.9	4064
807.81	678.8	4064.7
807.91	678.7	4090.22
808.01	678.6	4132.67
808.11	678.5	4050.22
808.21	678.4	4068.96
808.31	678.3	4102.03
808.41	678.2	4056.14
808.51	678.1	4075.58
808.61	678	4086.37
808.71	677.9	4091.87
808.81	677.8	4105.14
808.91	677.7	4106.67
809.01	677.6	4021.4
809.11	677.5	4100.4
809.21	677.4	4068.5
809.31	677.3	4030.04
809.41	677.2	4047.75
809.51	677.1	4047.23
809.61	677	4005.54
809.71	676.9	4046.26
809.81	676.8	4101.54
809.91	676.7	4060.06
810.01	676.6	4100.48
810.11	676.5	4085.13
810.21	676.4	4103.93
810.31	676.3	4083.35
810.41	676.2	4058.13
810.51	676.1	4079.68
810.61	676	4096.59
810.71	675.9	4038.16
810.81	675.8	4114.07
810.91	675.7	4098.57
811.01	675.6	4101.41
811.11	675.5	4093.83
811.21	675.4	4135.41
811.31	675.3	4091.42
811.41	675.2	4091.76
811.51	675.1	4073.01
811.61	675	4109.56
811.71	674.9	4111.17
811.81	674.8	4104.09
811.91	674.7	4062.51
812.01	674.6	4081.59
812.11	674.5	4052.53
812.21	674.4	4093.44
812.31	674.3	4112.65
812.41	674.2	4029.08
812.51	674.1	4103.64
812.61	674	4070.26
812.71	673.9	4107.28
812.81	673.8	4151.79
812.91	673.7	4160.7
813.01	673.6	4107.65
813.11	673.5	4097.03
813.21	673.4	4150.62
813.31	673.3	4133.66
813.41	673.2	4117.43
813.51	673.1	4071.9
813.61	673	4080.22
813.71	672.9	4113.96
813.81	672.8	4179.52
813.91	672.7	4149.09
814.01	672.6	4139.9
814.11	672.5	4120.72
814.21	672.4	4126.68
814.31	672.3	4120.07
814.41	672.2	4123.75
814.51	672.1	4100.69
814.61	672	4096.98
814.71	671.9	4088.2
814.81	671.8	4130.23
814.91	671.7	4104.06
815.01	671.6	4063.74
815.11	671.5	4086.76
815.21	671.4	4134.33
815.31	671.3	4158.62
815.41	671.2	4174.37
815.51	671.1	4096.93
815.61	671	4105
815.71	670.9	4146.17
815.81	670.8	4153.69
815.91	670.7	4121.13
816.01	670.6	4123.99
816.11	670.5	4099.76
816.21	670.4	4137.05
816.31	670.3	4104.59
816.41	670.2	4123.43
816.51	670.1	4119.9
816.61	670	4116.65
816.71	669.9	4108.91
816.81	669.8	4099.73
816.91	669.7	4134.56
817.01	669.6	4143.19
817.11	669.5	4196.75
817.21	669.4	4182.13
817.31	669.3	4123.58
817.41	669.2	4162.54
817.51	669.1	4151.42
817.61	669	4169.87
817.71	668.9	4118.98
817.81	668.8	4135.59
817.91	668.7	4191.48
818.01	668.6	4158.99
818.11	668.5	4139.89
818.21	668.4	4194.93
818.31	668.3	4154.86
818.41	668.2	4128.83
818.51	668.1	4189.73
818.61	668	4115.01
818.71	667.9	4109.94
818.81	667.8	4129.96
818.91	667.7	4193.41
819.01	667.6	4155.69
819.11	667.5	4129.24
819.21	667.4	4088.95
819.31	667.3	4143.85
819.41	667.2	4123.59
819.51	667.1	4175.14
819.61	667	4214.8
819.71	666.9	4104.12
819.81	666.8	4143.72
819.91	666.7	4141.48
820.01	666.6	4134.54
820.11	666.5	4193.44
820.21	666.4	4220.79
820.31	666.3	4193.9
820.41	666.2	4183.14
820.51	666.1	4152.2
820.61	666	4150.79
820.71	665.9	4134.44
820.81	665.8	4141.91
820.91	665.7	4177.92
821.01	665.6	4156.06
821.11	665.5	4117.98
821.21	665.4	4191.71
821.31	665.3	4186.51
821.41	665.2	4151.14
821.51	665.1	4214.51
821.61	665	4133.04
821.71	664.9	4101.3
821.81	664.8	4085.23
821.91	664.7	4140.27
822.01	664.6	4176.25
822.11	664.5	4228.93
822.21	664.4	4277.2
822.31	664.3	4238.26
822.41	664.2	4172.21
822.51	664.1	4113.73
822.61	664	4181.47
822.71	663.9	4197.55
822.81	663.8	4191.12
822.91	663.7	4192.17
823.01	663.6	4160.95
823.11	663.5	4190.18
823.21	663.4	4192.75
823.31	663.3	4162.51
823.41	663.2	4193.43
823.51	663.1	4195.19
823.61	663	4208.06
823.71	662.9	4185.96
823.81	662.8	4244.34
823.91	662.7	4251.62
824.01	662.6	4238.36
824.11	662.5	4264.57
824.21	662.4	4174.76
824.31	662.3	4171.18
824.41	662.2	4197.67
824.51	662.1	4253.35
824.61	662	4176.06
824.71	661.9	4192.17
824.81	661.8	4224.16
824.91	661.7	4213.4
825.01	661.6	4218.79
825.11	661.5	4195.51
825.21	661.4	4304.28
825.31	661.3	4247.41
825.41	661.2	4190.2
825.51	661.1	4227.7
825.61	661	4213.75
825.71	660.9	4200.39
825.81	660.8	4207.22
825.91	660.7	4247.99
826.01	660.6	4215.02
826.11	660.5	4215.71
826.21	660.4	4257.55
826.31	660.3	4281.05
826.41	660.2	4247.85
826.51	660.1	4218.82
826.61	660	4250.26
826.71	659.9	4260.49
826.81	659.8	4278.87
826.91	659.7	4282.68
827.01	659.6	4252.01
827.11	659.5	4233.86
827.21	659.4	4269.82
827.31	659.3	4250.21
827.41	659.2	4199.66
827.51	659.1	4231.32
827.61	659	4226.21
827.71	658.9	4237.63
827.81	658.8	4239.87
827.91	658.7	4234.06
828.01	658.6	4244.56
828.11	658.5	4244.04
828.21	658.4	4238.18
828.31	658.3	4244.59
828.41	658.2	4245.92
828.51	658.1	4231.95
828.61	658	4253.55
828.71	657.9	4259.34
828.81	657.8	4218.92
828.91	657.7	4244.67
829.01	657.6	4284.86
829.11	657.5	4311.42
829.21	657.4	4266.49
829.31	657.3	4267.12
829.41	657.2	4293.99
829.51	657.1	4279.17
829.61	657	4254.22
829.71	656.9	4294.23
829.81	656.8	4227.28
829.91	656.7	4247.83
830.01	656.6	4271.04
830.11	656.5	4221.78
830.21	656.4	4287.94
830.31	656.3	4308.45
830.41	656.2	4285.59
830.51	656.1	4299.4
830.61	656	4245.33
830.71	655.9	4270.84
830.81	655.8	4250.56
830.91	655.7	4316.5
831.01	655.6	4287.21
831.11	655.5	4305.47
831.21	655.4	4258.35
831.31	655.3	4275.68
831.41	655.2	4245.38
831.51	655.1	4286.02
831.61	655	4310.64
831.71	654.9	4255.32
831.81	654.8	4240.86
831.91	654.7	4326.4
832.01	654.6	4325.99
832.11	654.5	4310.83
832.21	654.4	4310.98
832.31	654.3	4278.82
832.41	654.2	4275.45
832.51	654.1	4281.55
832.61	654	4300.93
832.71	653.9	4305.06
832.81	653.8	4286.46
832.91	653.7	4290.69
833.01	653.6	4294.22
833.11	653.5	4264.9
833.21	653.4	4315.73
833.31	653.3	4285.25
833.41	653.2	4317.29
833.51	653.1	4264.42
833.61	653	4305.29
833.71	652.9	4276.58
833.81	652.8	4316.6
833.91	652.7	4300
834.01	652.6	4252.46
834.11	652.5	4269.84
834.21	652.4	4318.79
834.31	652.3	4287.42
834.41	652.2	4294.85
834.51	652.1	4299.04
834.61	652	4351.25
834.71	651.9	4354.96
834.81	651.8	4312.69
834.91	651.7	4286.19
835.01	651.6	4319.7
835.11	651.5	4312.22
835.21	651.4	4342.6
835.31	651.3	4346.19
835.41	651.2	4307.59
835.51	651.1	4301.32
835.61	651	4365.73
835.71	650.9	4346.81
835.81	650.8	4339.3
835.91	650.7	4371.23
836.01	650.6	4315.37
836.11	650.5	4312.2
836.21	650.4	4307.56
836.31	650.3	4344.04
836.41	650.2	4387.95
836.51	650.1	4371.05
836.61	650	4326.77
836.71	649.9	4330.5
836.81	649.8	4313.87
836.91	649.7	4341.73
837.01	649.6	4314.47
837.11	649.5	4324.69
837.21	649.4	4312.54
837.31	649.3	4362.28
837.41	649.2	4312.3
837.51	649.1	4322
837.61	649	4357.84
837.71	648.9	4304.02
837.81	648.8	4330.81
837.91	648.7	4339.77
838.01	648.6	4344.37
838.11	648.5	4334.42
838.21	648.4	4366.47
838.31	648.3	4336.48
838.41	648.2	4295.21
838.51	648.1	4363.22
838.61	648	4360.04
838.71	647.9	4350.8
838.81	647.8	4305.93
838.91	647.7	4340.17
839.01	647.6	4327.03
839.11	647.5	4426.98
839.21	647.4	4312.92
839.31	647.3	4343.53
839.41	647.2	4333.15
839.51	647.1	4356.54
839.61	647	4355.15
839.71	646.9	4306.79
839.81	646.8	4350.55
839.91	646.7	4376.4
840.01	646.6	4379.32
840.11	646.5	4381.84
840.21	646.4	4401.03
840.31	646.3	4419.11
840.41	646.2	4343.26
840.51	646.1	4376.3
840.61	646	4324.32
840.71	645.9	4321.51
840.81	645.8	4369.79
840.91	645.7	4343.6
841.01	645.6	4292.48
841.11	645.5	4315.95
841.21	645.4	4357.15
841.31	645.3	4356.98
841.41	645.2	4395.41
841.51	645.1	4387.34
841.61	645	4401.48
841.71	644.9	4386.08
841.81	644.8	4403.12
841.91	644.7	4385.77
842.01	644.6	4375.49
842.11	644.5	4335.29
842.21	644.4	4354.69
842.31	644.3	4347.75
842.41	644.2	4383.61
842.51	644.1	4396.52
842.61	644	4354.16
842.71	643.9	4367.29
842.81	643.8	4372.1
842.91	643.7	4359.67
843.01	643.6	4379.82
843.11	643.5	4399.82
843.21	643.4	4381.26
843.31	643.3	4391.99
843.41	643.2	4374.96
843.51	643.1	4373.44
843.61	643	4371.76
843.71	642.9	4427.13
843.81	642.8	4392.99
843.91	642.7	4341.64
844.01	642.6	4355.01
844.11	642.5	4377.16
844.21	642.4	4358.63
844.31	642.3	4392.82
844.41	642.2	4364.48
844.51	642.1	4429.97
844.61	642	4399.77
844.71	641.9	4420.89
844.81	641.8	4400.48
844.91	641.7	4396.67
845.01	641.6	4374.82
845.11	641.5	4398.54
845.21	641.4	4432.52
845.31	641.3	4428.99
845.41	641.2	4415.72
845.51	641.1	4401.01
845.61	641	4372.83
845.71	640.9	4329.54
845.81	640.8	4413.07
845.91	640.7	4448.44
846.01	640.6	4450.21
846.11	640.5	4397.56
846.21	640.4	4435.01
846.31	640.3	4374.4
846.41	640.2	4436.37
846.51	640.1	4455.75
846.61	640	4380.61
846.71	639.9	4387.11
846.81	639.8	4410.48
846.91	639.7	4371.87
847.01	639.6	4345.35
847.11	639.5	4399.56
847.21	639.4	4474
847.31	639.3	4375.41
847.41	639.2	4482.7
847.51	639.1	4470.33
847.61	639	4478.31
847.71	638.9	4441.26
847.81	638.8	4434.57
847.91	638.7	4409.56
848.01	638.6	4468.48
848.11	638.5	4442.5
848.21	638.4	4395.02
848.31	638.3	4470.98
848.41	638.2	4499.4
848.51	638.1	4475.21
848.61	638	4452.05
848.71	637.9	4479.44
848.81	637.8	4457.15
848.91	637.7	4458.88
849.01	637.6	4469.42
849.11	637.5	4434.98
849.21	637.4	4413.95
849.31	637.3	4420.57
849.41	637.2	4420.32
849.51	637.1	4470.39
849.61	637	4460.43
849.71	636.9	4447.77
849.81	636.8	4427.69
849.91	636.7	4490.67
850.01	636.6	4422.54
850.11	636.5	4391.79
850.21	636.4	4457.79
850.31	636.3	4445.93
850.41	636.2	4465.54
850.51	636.1	4513.96
850.61	636	4471.37
850.71	635.9	4506.88
850.81	635.8	4436.84
850.91	635.7	4429.34
851.01	635.6	4464.2
851.11	635.5	4449.61
851.21	635.4	4441.06
851.31	635.3	4483.01
851.41	635.2	4509.72
851.51	635.1	4511.09
851.61	635	4539.24
851.71	634.9	4460.87
851.81	634.8	4498.76
851.91	634.7	4469.67
852.01	634.6	4477.63
852.11	634.5	4438.2
852.21	634.4	4433.85
852.31	634.3	4454.25
852.41	634.2	4468.14
852.51	634.1	4482.74
852.61	634	4453.49
852.71	633.9	4487.2
852.81	633.8	4455.13
852.91	633.7	4443.86
853.01	633.6	4474.67
853.11	633.5	4529.8
853.21	633.4	4508.73
853.31	633.3	4470.33
853.41	633.2	4497.4
853.51	633.1	4498.88
853.61	633	4547.39
853.71	632.9	4464.85
853.81	632.8	4523.81
853.91	632.7	4509.24
854.01	632.6	4518.61
854.11	632.5	4599.81
854.21	632.4	4505.07
854.31	632.3	4510.77
854.41	632.2	4532.37
854.51	632.1	4502.23
854.61	632	4496.69
854.71	631.9	4463.95
854.81	631.8	4451.86
854.91	631.7	4470.51
855.01	631.6	4506.88
855.11	631.5	4509.27
855.21	631.4	4512.75
855.31	631.3	4470.7
855.41	631.2	4525.09
855.51	631.1	4537.75
855.61	631	4490.29
855.71	630.9	4493.83
855.81	630.8	4534.63
855.91	630.7	4536.95
856.01	630.6	4538.6
856.11	630.5	4550
856.21	630.4	4610.66
856.31	630.3	4515.45
856.41	630.2	4485.29
856.51	630.1	4568.68
856.61	630	4595.8
856.71	629.9	4493.44
856.81	629.8	4534.36
856.91	629.7	4497.01
857.01	629.6	4532.73
857.11	629.5	4529.15
857.21	629.4	4500.96
857.31	629.3	4543.01
857.41	629.2	4572.21
857.51	629.1	4544.69
857.61	629	4508.08
857.71	628.9	4498.83
857.81	628.8	4492.96
857.91	628.7	4538.53
858.01	628.6	4545.36
858.11	628.5	4615.26
858.21	628.4	4629.28
858.31	628.3	4578.08
858.41	628.2	4490.64
858.51	628.1	4575.74
858.61	628	4523.96
858.71	627.9	4547.82
858.81	627.8	4530.15
858.91	627.7	4543.64
859.01	627.6	4522.95
859.11	627.5	4502.12
859.21	627.4	4534.79
859.31	627.3	4523.49
859.41	627.2	4589.44
859.51	627.1	4546.88
859.61	627	4540.69
859.71	626.9	4576.17
859.81	626.8	4572.85
859.91	626.7	4554.3
860.01	626.6	4526.76
860.11	626.5	4542.23
860.21	626.4	4534.66
860.31	626.3	4560.52
860.41	626.2	4598.4
860.51	626.1	4531.41
860.61	626	4535.3
860.71	625.9	4559.11
860.81	625.8	4532.69
860.91	625.7	4499.95
861.01	625.6	4523.66
861.11	625.5	4589.96
861.21	625.4	4552.8
861.31	625.3	4562.87
861.41	625.2	4562.61
861.51	625.1	4567.38
861.61	625	4589.24
861.71	624.9	4532.77
861.81	624.8	4562.06
861.91	624.7	4527.22
862.01	624.6	4598.29
862.11	624.5	4585.35
862.21	624.4	4565.18
862.31	624.3	4552.72
862.41	624.2	4552.62
862.51	624.1	4558.28
862.61	624	4579.4
862.71	623.9	4568.8
862.81	623.8	4638.92
862.91	623.7	4572.26
863.01	623.6	4568.17
863.11	623.5	4611.66
863.21	623.4	4601.04
863.31	623.3	4619.75
863.41	623.2	4522.57
863.51	623.1	4521.63
863.61	623	4615.18
863.71	622.9	4552.96
863.81	622.8	4561.46
863.91	622.7	4557.92
864.01	622.6	4570.46
864.11	622.5	4508.75
864.21	622.4	4528.16
864.31	622.3	4606.07
864.41	622.2	4586.71
864.51	622.1	4569.49
864.61	622	4530.29
864.71	621.9	4628.1
864.81	621.8	4596.18
864.91	621.7	4598.4
865.01	621.6	4610.22
865.11	621.5	4527.04
865.21	621.4	4563.69
865.31	621.3	4577.35
865.41	621.2	4594.39
865.51	621.1	4636.26
865.61	621	4666.76
865.71	620.9	4649.97
865.81	620.8	4623.16
865.91	620.7	4597.66
866.01	620.6	4648.31
866.11	620.5	4661.5
866.21	620.4	4608.15
866.31	620.3	4660.65
866.41	620.2	4694.53
866.51	620.1	4603.27
866.61	620	4601.29
866.71	619.9	4673.05
866.81	619.8	4644.96
866.91	619.7	4610.37
867.01	619.6	4604.56
867.11	619.5	4601.24
867.21	619.4	4638.63
867.31	619.3	4601.22
867.41	619.2	4643.39
867.51	619.1	4653.74
867.61	619	4726.32
867.71	618.9	4692.71
867.81	618.8	4702.57
867.91	618.7	4658.4
868.01	618.6	4683.8
868.11	618.5	4660.41
868.21	618.4	4735
868.31	618.3	4683.55
868.41	618.2	4658.54
868.51	618.1	4627.66
868.61	618	4674.89
868.71	617.9	4708.39
868.81	617.8	4695.53
868.91	617.7	4661.39
869.01	617.6	4729.33
869.11	617.5	4695.21
869.21	617.4	4647.4
869.31	617.3	4665.57
869.41	617.2	4654.95
869.51	617.1	4702.94
869.61	617	4652.9
869.71	616.9	4682.99
869.81	616.8	4674.67
869.91	616.7	4568.78
870.01	616.6	4594.54
870.11	616.5	4595
870.21	616.4	4616.22
870.31	616.3	4619.95
870.41	616.2	4562.53
870.51	616.1	4522.88
870.61	616	4563.23
870.71	615.9	4553.69
870.81	615.8	4488.95
870.91	615.7	4532.33
871.01	615.6	4502.03
871.11	615.5	4496.8
871.21	615.4	4410.63
871.31	615.3	4450.27
871.41	615.2	4475.63
871.51	615.1	4464.41
871.61	615	4446.08
871.71	614.9	4488.23
871.81	614.8	4405.61
871.91	614.7	4457.57
872.01	614.6	4480.41
872.11	614.5	4420.51
872.21	614.4	4448.98
872.31	614.3	4502.85
872.41	614.2	4519.71
872.51	614.1	4470.12
872.61	614	4473.8
872.71	613.9	4431.69
872.81	613.8	4448.27
872.91	613.7	4384.38
873.01	613.6	4468.67
873.11	613.5	4468.15
873.21	613.4	4446.37
873.31	613.3	4470.15
873.41	613.2	4361.07
873.51	613.1	4402.95
873.61	613	4483.1
873.71	612.9	4412.1
873.81	612.8	4459.89
873.91	612.7	4444.04
874.01	612.6	4413.66
874.11	612.5	4404.47
874.21	612.4	4377.8
874.31	612.3	4378.39
874.41	612.2	4425.12
874.51	612.1	4414.2
874.61	612	4426.37
874.71	611.9	4493.16
874.81	611.8	4467.49
874.91	611.7	4431.07
875.01	611.6	4459.13
875.11	611.5	4479.78
875.21	611.4	4457.68
875.31	611.3	4408.47
875.41	611.2	4485.08
875.51	611.1	4397.84
875.61	611	4494.84
875.71	610.9	4466.02
875.81	610.8	4451.4
875.91	610.7	4417.08
876.01	610.6	4406.01
876.11	610.5	4470.21
876.21	610.4	4453.79
876.31	610.3	4393.67
876.41	610.2	4403.77
876.51	610.1	4453.75
876.61	610	4469.83
876.71	609.9	4458.67
876.81	609.8	4443.71
876.91	609.7	4453.18
877.01	609.6	4467.35
877.11	609.5	4461.59
877.21	609.4	4501.2
877.31	609.3	4482.24
877.41	609.2	4555.3
877.51	609.1	4547.77
877.61	609	4495.66
877.71	608.9	4536.49
877.81	608.8	4511.11
877.91	608.7	4540.21
878.01	608.6	4554.88
878.11	608.5	4517.17
878.21	608.4	4529.32
878.31	608.3	4559.53
878.41	608.2	4588.11
878.51	608.1	4593.08
878.61	608	4638.9
878.71	607.9	4545.79
878.81	607.8	4573.53
878.91	607.7	4557.58
879.01	607.6	4585.35
879.11	607.5	4612.41
879.21	607.4	4641.45
879.31	607.3	4631.12
879.41	607.2	4658.93
879.51	607.1	4692.59
879.61	607	4709.51
879.71	606.9	4787.82
879.81	606.8	4744.32
879.91	606.7	4758.36
880.01	606.6	4800.43
880.11	606.5	4763.08
880.21	606.4	4860.52
880.31	606.3	4915.24
880.41	606.2	4906.99
880.51	606.1	4905.95
880.61	606	4933.49
880.71	605.9	4985.98
880.81	605.8	5049.82
880.91	605.7	5151.33
881.01	605.6	5212.67
881.11	605.5	5238.45
881.21	605.4	5226.9
881.31	605.3	5277.9
881.41	605.2	5408.12
881.51	605.1	5550
881.61	605	5638.72
881.71	604.9	5707.78
881.81	604.8	5710.82
881.91	604.7	5744.4
882.01	604.6	5813.07
882.11	604.5	5893.06
882.21	604.4	5984.5
882.31	604.3	6009.22
882.41	604.2	6055.33
882.51	604.1	5982.32
882.61	604	5940.03
882.71	603.9	5968.52
882.81	603.8	5930.38
882.91	603.7	5893.47
883.01	603.6	5852.1
883.11	603.5	5868.56
883.21	603.4	5779.01
883.31	603.3	5598.84
883.41	603.2	5545.09
883.51	603.1	5504.09
883.61	603	5405.6
883.71	602.9	5289.63
883.81	602.8	5188.91
883.91	602.7	5205.09
884.01	602.6	5148.79
884.11	602.5	5057.46
884.21	602.4	5009.17
884.31	602.3	4901.39
884.41	602.2	4940.32
884.51	602.1	4902.33
884.61	602	4840.09
884.71	601.9	4760.49
884.81	601.8	4734.76
884.91	601.7	4761.27
885.01	601.6	4636.21
885.11	601.5	4694.1
885.21	601.4	4661.43
885.31	601.3	4599.96
885.41	601.2	4594.76
885.51	601.1	4606.78
885.61	601	4538.91
885.71	600.9	4506.23
885.81	600.8	4554.72
885.91	600.7	4585.38
886.01	600.6	4510.54
886.11	600.5	4530.83
886.21	600.4	4511.96
886.31	600.3	4445.96
886.41	600.2	4492.52
886.51	600.1	4503.38
886.61	600	4380.72
886.71	599.9	4404.58
886.81	599.8	4475.21
886.91	599.7	4456.81
887.01	599.6	4459.18
887.11	599.5	4398.03
887.21	599.4	4355.91
887.31	599.3	4372.18
887.41	599.2	4420.11
887.51	599.1	4442.58
887.61	599	4345.4
887.71	598.9	4347.74
887.81	598.8	4360.22
887.91	598.7	4314.9
888.01	598.6	4357.67
888.11	598.5	4308.86
888.21	598.4	4278.23
888.31	598.3	4349.33
888.41	598.2	4379.16
888.51	598.1	4329.44
888.61	598	4304.76
888.71	597.9	4314.83
888.81	597.8	4317.01
888.91	597.7	4312.9
889.01	597.6	4305.51
889.11	597.5	4324.15
889.21	597.4	4361.95
889.31	597.3	4348.73
889.41	597.2	4287.14
889.51	597.1	4311.46
889.61	597	4325.47
889.71	596.9	4308.3
889.81	596.8	4318.93
889.91	596.7	4289.16
890.01	596.6	4299.14
890.11	596.5	4314.11
890.21	596.4	4282.04
890.31	596.3	4273.18
890.41	596.2	4274.07
890.51	596.1	4280.91
890.61	596	4324.62
890.71	595.9	4312.67
890.81	595.8	4279.13
890.91	595.7	4333.5
891.01	595.6	4314.37
891.11	595.5	4276.8
891.21	595.4	4260.99
891.31	595.3	4236.66
891.41	595.2	4293.35
891.51	595.1	4262.95
891.61	595	4238.17
891.71	594.9	4239.37
891.81	594.8	4235.38
891.91	594.7	4248.8
892.01	594.6	4295.38
892.11	594.5	4283
892.21	594.4	4227.13
892.31	594.3	4228.71
892.41	594.2	4293.02
892.51	594.1	4297.26
892.61	594	4230.73
892.71	593.9	4268.52
892.81	593.8	4291.03
892.91	593.7	4264.89
893.01	593.6	4326.87
893.11	593.5	4294.92
893.21	593.4	4295.72
893.31	593.3	4277.51
893.41	593.2	4252.18
893.51	593.1	4229.36
893.61	593	4234.66
893.71	592.9	4283.73
893.81	592.8	4310.39
893.91	592.7	4257.44
894.01	592.6	4307.65
894.11	592.5	4314.64
894.21	592.4	4333.88
894.31	592.3	4355.44
894.41	592.2	4331.3
894.51	592.1	4335.66
894.61	592	4342.46
894.71	591.9	4315.78
894.81	591.8	4270.97
894.91	591.7	4239.59
895.01	591.6	4301.6
895.11	591.5	4307.11
895.21	591.4	4345.01
895.31	591.3	4297.85
895.41	591.2	4309.63
895.51	591.1	4350.13
895.61	591	4381.38
895.71	590.9	4332.76
895.81	590.8	4292.52
895.91	590.7	4306.36
896.01	590.6	4344.64
896.11	590.5	4265.63
896.21	590.4	4302.05
896.31	590.3	4382.02
896.41	590.2	4360.13
896.51	590.1	4306.03
896.61	590	4326.88
896.71	589.9	4329.01
896.81	589.8	4355.57
896.91	589.7	4317.04
897.01	589.6	4347.82
897.11	589.5	4371.27
897.21	589.4	4360.67
897.31	589.3	4355.12
897.41	589.2	4385.29
897.51	589.1	4372.74
897.61	589	4348.29
897.71	588.9	4309.04
897.81	588.8	4365.02
897.91	588.7	4372.75
898.01	588.6	4400.2
898.11	588.5	4380.79
898.21	588.4	4414.02
898.31	588.3	4435.4
898.41	588.2	4404.81
898.51	588.1	4438.35
898.61	588	4443.37
898.71	587.9	4462.51
898.81	587.8	4415.8
898.91	587.7	4449.13
899.01	587.6	4414.35
899.11	587.5	4424.2
899.21	587.4	4448.53
899.31	587.3	4467.84
899.41	587.2	4470.37
899.51	587.1	4489.46
899.61	587	4511.18
899.71	586.9	4517.95
899.81	586.8	4499.6
899.91	586.7	4465.69
900.01	586.6	4474.22
900.11	586.5	4446.08
900.21	586.4	4415.79
900.31	586.3	4369.66
900.41	586.2	4346.31
900.51	586.1	4364.46
900.61	586	4363.12
900.71	585.9	4332.14
900.81	585.8	4350.98
900.91	585.7	4243.4
901.01	585.6	4221.52
901.11	585.5	4215.81
901.21	585.4	4233.72
901.31	585.3	4186.97
901.41	585.2	4133.66
901.51	585.1	4154.71
901.61	585	4114.18
901.71	584.9	4077.29
901.81	584.8	4051.75
901.91	584.7	4064.57
902.01	584.6	4071.97
902.11	584.5	4064.88
902.21	584.4	3995.37
902.31	584.3	4006.29
902.41	584.2	3987.38
902.51	584.1	3956.45
902.61	584	3942.44
902.71	583.9	3963.93
902.81	583.8	3936.98
902.91	583.7	3907.4
903.01	583.6	3920.24
903.11	583.5	3906.63
903.21	583.4	3907.23
903.31	583.3	3866.39
903.41	583.2	3898.98
903.51	583.1	3881.51
903.61	583	3899.07
903.71	582.9	3887.27
903.81	582.8	3896.75
903.91	582.7	3887.07
904.01	582.6	3851.51
904.11	582.5	3872.78
904.21	582.4	3894.47
904.31	582.3	3861.61
904.41	582.2	3807.3
904.51	582.1	3843.09
904.61	582	3891.99
904.71	581.9	3867.75
904.81	581.8	3847.12
904.91	581.7	3824.83
905.01	581.6	3873.03
905.11	581.5	3913.73
905.21	581.4	3863.51
905.31	581.3	3841.92
905.41	581.2	3839.27
905.51	581.1	3812.57
905.61	581	3907.6
905.71	580.9	3894.57
905.81	580.8	3840.81
905.91	580.7	3836.42
906.01	580.6	3824.26
906.11	580.5	3851.68
906.21	580.4	3873.59
906.31	580.3	3898.77
906.41	580.2	3825.61
906.51	580.1	3869.43
906.61	580	3844.59
906.71	579.9	3855.75
906.81	579.8	3896.72
906.91	579.7	3865.58
907.01	579.6	3813.65
907.11	579.5	3846.04
907.21	579.4	3884.35
907.31	579.3	3882.41
907.41	579.2	3893.1
907.51	579.1	3846.96
907.61	579	3890.1
907.71	578.9	3868.98
907.81	578.8	3893.48
907.91	578.7	3862
908.01	578.6	3889.56
908.11	578.5	3935.41
908.21	578.4	3959.36
908.31	578.3	3958.13
908.41	578.2	3963.91
908.51	578.1	3945.99
908.61	578	3988.75
908.71	577.9	4039.18
908.81	577.8	3992.99
908.91	577.7	4078.04
909.01	577.6	4096.63
909.11	577.5	4078.61
909.21	577.4	4094.36
909.31	577.3	4135.75
909.41	577.2	4152.82
909.51	577.1	4149.01
909.61	577	4184.31
909.71	576.9	4214.2
909.81	576.8	4170.79
909.91	576.7	4207.38
910.01	576.6	4246.48
910.11	576.5	4274.95
910.21	576.4	4271.22
910.31	576.3	4302.16
910.41	576.2	4419.37
910.51	576.1	4413.46
910.61	576	4488.73
910.71	575.9	4549.55
910.81	575.8	4560.49
910.91	575.7	4598.96
911.01	575.6	4633.7
911.11	575.5	4729.95
911.21	575.4	4756.3
911.31	575.3	4848.19
911.41	575.2	4908.98
911.51	575.1	5008.78
911.61	575	5154.85
911.71	574.9	5212.37
911.81	574.8	5374.02
911.91	574.7	5421.13
912.01	574.6	5615.81
912.11	574.5	5724.92
912.21	574.4	5768.3
912.31	574.3	5887.73
912.41	574.2	6093.33
912.51	574.1	6265.46
912.61	574	6389.31
912.71	573.9	6506.12
912.81	573.8	6567.8
912.91	573.7	6742.41
913.01	573.6	6819.41
913.11	573.5	6966.1
913.21	573.4	6961.35
913.31	573.3	6955.37
913.41	573.2	6971.85
913.51	573.1	6918.25
913.61	573	6838.62
913.71	572.9	6779.15
913.81	572.8	6680.46
913.91	572.7	6567.52
914.01	572.6	6488.48
914.11	572.5	6233.24
914.21	572.4	6010.44
914.31	572.3	5908.74
914.41	572.2	5720.71
914.51	572.1	5652.2
914.61	572	5467.34
914.71	571.9	5353.03
914.81	571.8	5197.37
914.91	571.7	5034.92
915.01	571.6	4908.42
915.11	571.5	4782.96
915.21	571.4	4737.33
915.31	571.3	4642.82
915.41	571.2	4530.12
915.51	571.1	4469.69
915.61	571	4406.89
915.71	570.9	4285.64
915.81	570.8	4273.22
915.91	570.7	4235.32
916.01	570.6	4165.71
916.11	570.5	4097.09
916.21	570.4	4046.66
916.31	570.3	4028.86
916.41	570.2	3941.25
916.51	570.1	3893.07
916.61	570	3864.67
916.71	569.9	3822.78
916.81	569.8	3811.79
916.91	569.7	3785.53
917.01	569.6	3770.7
917.11	569.5	3761.28
917.21	569.4	3720.85
917.31	569.3	3691.12
917.41	569.2	3707.82
917.51	569.1	3668.99
917.61	569	3609.47
917.71	568.9	3631.89
917.81	568.8	3644.99
917.91	568.7	3618.51
918.01	568.6	3618.58
918.11	568.5	3633.36
918.21	568.4	3607.52
918.31	568.3	3595.02
918.41	568.2	3573.02
918.51	568.1	3578.62
918.61	568	3455.93
918.71	567.9	3424.28
918.81	567.8	3509.85
918.91	567.7	3501.04
919.01	567.6	3503.4
919.11	567.5	3496.12
919.21	567.4	3497.24
919.31	567.3	3470.74
919.41	567.2	3456.07
919.51	567.1	3457.1
919.61	567	3399.82
919.71	566.9	3402.17
919.81	566.8	3386.72
919.91	566.7	3448.04
920.01	566.6	3464.92
920.11	566.5	3415.89
920.21	566.4	3424.31
920.31	566.3	3367.6
920.41	566.2	3396.51
920.51	566.1	3420.63
920.61	566	3396.11
920.71	565.9	3357.01
920.81	565.8	3394.92
920.91	565.7	3367.32
921.01	565.6	3429.9
921.11	565.5	3400.25
921.21	565.4	3349.24
921.31	565.3	3379.97
921.41	565.2	3395.35
921.51	565.1	3375.65
921.61	565	3371.6
921.71	564.9	3376.25
921.81	564.8	3379.68
921.91	564.7	3395.51
922.01	564.6	3409.92
922.11	564.5	3357.91
922.21	564.4	3354.83
922.31	564.3	3357.05
922.41	564.2	3324.91
922.51	564.1	3309.08
922.61	564	3350.79
922.71	563.9	3399.82
922.81	563.8	3360.11
922.91	563.7	3317.76
923.01	563.6	3305.09
923.11	563.5	3310.04
923.21	563.4	3353.51
923.31	563.3	3311.62
923.41	563.2	3342.53
923.51	563.1	3354.72
923.61	563	3298.13
923.71	562.9	3283.67
923.81	562.8	3311.39
923.91	562.7	3355.65
924.01	562.6	3382.6
924.11	562.5	3387.35
924.21	562.4	3354.74
924.31	562.3	3330.46
924.41	562.2	3398.33
924.51	562.1	3351.26
924.61	562	3321.09
924.71	561.9	3306.06
924.81	561.8	3321.53
924.91	561.7	3340.5
925.01	561.6	3353.64
925.11	561.5	3346.18
925.21	561.4	3405.41
925.31	561.3	3397.49
925.41	561.2	3348.72
925.51	561.1	3360.61
925.61	561	3340.65
925.71	560.9	3276.88
925.81	560.8	3344.7
925.91	560.7	3332.26
926.01	560.6	3386.4
926.11	560.5	3372.29
926.21	560.4	3340.34
926.31	560.3	3277.74
926.41	560.2	3314.51
926.51	560.1	3369.5
926.61	560	3321.79
926.71	559.9	3320.53
926.81	559.8	3343.95
926.91	559.7	3327.39
927.01	559.6	3332.48
927.11	559.5	3345.38
927.21	559.4	3340.66
927.31	559.3	3351.73
927.41	559.2	3349.39
927.51	559.1	3325.33
927.61	559	3302.37
927.71	558.9	3299.23
927.81	558.8	3269.18
927.91	558.7	3287.19
928.01	558.6	3290.12
928.11	558.5	3322.71
928.21	558.4	3326.87
928.31	558.3	3334.37
928.41	558.2	3282.47
928.51	558.1	3351.56
928.61	558	3352.21
928.71	557.9	3307.77
928.81	557.8	3371.58
928.91	557.7	3309.87
929.01	557.6	3299.33
929.11	557.5	3302.09
929.21	557.4	3291.89
929.31	557.3	3289.1
929.41	557.2	3284.71
929.51	557.1	3355.18
929.61	557	3344.82
929.71	556.9	3272.18
929.81	556.8	3324.82
929.91	556.7	3302.97
930.01	556.6	3326.86
930.11	556.5	3337.5
930.21	556.4	3339.39
930.31	556.3	3374.37
930.41	556.2	3343.38
930.51	556.1	3345.32
930.61	556	3342.58
930.71	555.9	3322.96
930.81	555.8	3338.78
930.91	555.7	3307.8
931.01	555.6	3310.73
931.11	555.5	3363.46
931.21	555.4	3368.1
931.31	555.3	3357.25
931.41	555.2	3342.63
931.51	555.1	3349.49
931.61	555	3297.45
931.71	554.9	3378.4
931.81	554.8	3346.21
931.91	554.7	3325.61
932.01	554.6	3343.41
932.11	554.5	3290.83
932.21	554.4	3312.6
932.31	554.3	3265.3
932.41	554.2	3334.17
932.51	554.1	3355.39
932.61	554	3316.82
932.71	553.9	3348.32
932.81	553.8	3322.14
932.91	553.7	3302.61
933.01	553.6	3322.17
933.11	553.5	3360.6
933.21	553.4	3332.99
933.31	553.3	3325.08
933.41	553.2	3313.74
933.51	553.1	3347.81
933.61	553	3339.73
933.71	552.9	3362.26
933.81	552.8	3318.72
933.91	552.7	3334.7
934.01	552.6	3361.6
934.11	552.5	3379.36
934.21	552.4	3321.91
934.31	552.3	3344.42
934.41	552.2	3338.21
934.51	552.1	3302.17
934.61	552	3369.6
934.71	551.9	3390.92
934.81	551.8	3348.11
934.91	551.7	3329.47
935.01	551.6	3343.41
935.11	551.5	3348.6
935.21	551.4	3331.2
935.31	551.3	3312.2
935.41	551.2	3344.65
935.51	551.1	3366.62
935.61	551	3348.72
935.71	550.9	3357.85
935.81	550.8	3377.88
935.91	550.7	3360.92
936.01	550.6	3370
936.11	550.5	3338.07
936.21	550.4	3357.06
936.31	550.3	3336.41
936.41	550.2	3325.53
936.51	550.1	3360.88
936.61	550	3354.64
936.71	549.9	3377.25
936.81	549.8	3385.12
936.91	549.7	3335.75
937.01	549.6	3356.31
937.11	549.5	3362.93
937.21	549.4	3374.42
937.31	549.3	3361.65
937.41	549.2	3353.61
937.51	549.1	3363.72
937.61	549	3392.4
937.71	548.9	3388.05
937.81	548.8	3357.44
937.91	548.7	3386.13
938.01	548.6	3403.9
938.11	548.5	3356.65
938.21	548.4	3350.17
938.31	548.3	3353.25
938.41	548.2	3362.5
938.51	548.1	3306.85
938.61	548	3420.74
938.71	547.9	3431.56
938.81	547.8	3389.69
938.91	547.7	3381.92
939.01	547.6	3393.9
939.11	547.5	3422.68
939.21	547.4	3418.5
939.31	547.3	3383.4
939.41	547.2	3362.59
939.51	547.1	3376.11
939.61	547	3389.2
939.71	546.9	3364.01
939.81	546.8	3383.4
939.91	546.7	3392.35
940.01	546.6	3385.55
940.11	546.5	3412.8
940.21	546.4	3366.1
940.31	546.3	3344.87
940.41	546.2	3407.44
940.51	546.1	3450.62
940.61	546	3454.37
940.71	545.9	3408.4
940.81	545.8	3332.68
940.91	545.7	3359.76
941.01	545.6	3411.95
941.11	545.5	3403.05
941.21	545.4	3408.37
941.31	545.3	3422.8
941.41	545.2	3456.17
941.51	545.1	3390.17
941.61	545	3403.24
941.71	544.9	3436.84
941.81	544.8	3350.39
941.91	544.7	3400.13
942.01	544.6	3371.89
942.11	544.5	3381.9
942.21	544.4	3402.48
942.31	544.3	3416.03
942.41	544.2	3448.27
942.51	544.1	3391.16
942.61	544	3373.95
942.71	543.9	3365.16
942.81	543.8	3380.24
942.91	543.7	3439.29
943.01	543.6	3445.36
943.11	543.5	3390.3
943.21	543.4	3382.59
943.31	543.3	3424.13
943.41	543.2	3381.66
943.51	543.1	3382.43
943.61	543	3386.47
943.71	542.9	3380.72
943.81	542.8	3397.59
943.91	542.7	3447.15
944.01	542.6	3429.9
944.11	542.5	3378.8
944.21	542.4	3342.41
944.31	542.3	3368.79
944.41	542.2	3396.6
944.51	542.1	3424.68
944.61	542	3385.86
944.71	541.9	3345.72
944.81	541.8	3324.28
944.91	541.7	3401.57
945.01	541.6	3381.59
945.11	541.5	3388.25
945.21	541.4	3442.68
945.31	541.3	3424.06
945.41	541.2	3403.27
945.51	541.1	3406.63
945.61	541	3447.06
945.71	540.9	3400.03
945.81	540.8	3381.11
945.91	540.7	3416.96
946.01	540.6	3414.74
946.11	540.5	3416.95
946.21	540.4	3421.56
946.31	540.3	3416.48
946.41	540.2	3391.06
946.51	540.1	3444.3
946.61	540	3443.5
946.71	539.9	3392.42
946.81	539.8	3409.56
946.91	539.7	3486.58
947.01	539.6	3377.71
947.11	539.5	3368.43
947.21	539.4	3391.79
947.31	539.3	3394.18
947.41	539.2	3409.04
947.51	539.1	3456.02
947.61	539	3401.42
947.71	538.9	3415.73
947.81	538.8	3449.89
947.91	538.7	3438.94
948.01	538.6	3447.63
948.11	538.5	3430.68
948.21	538.4	3437.85
948.31	538.3	3456.11
948.41	538.2	3391.82
948.51	538.1	3398.72
948.61	538	3376.89
948.71	537.9	3430.68
948.81	537.8	3431.82
948.91	537.7	3440.27
949.01	537.6	3418.88
949.11	537.5	3419.31
949.21	537.4	3441.21
949.31	537.3	3452.86
949.41	537.2	3435.74
949.51	537.1	3415.36
949.61	537	3404.45
949.71	536.9	3435.57
949.81	536.8	3414.07
949.91	536.7	3428.96
950.01	536.6	3433.03
950.11	536.5	3470.57
950.21	536.4	3436.53
950.31	536.3	3461.58
950.41	536.2	3419.37
950.51	536.1	3391.23
950.61	536	3411.53
950.71	535.9	3476.14
950.81	535.8	3442.78
950.91	535.7	3512.34
951.01	535.6	3465.87
951.11	535.5	3445.82
951.21	535.4	3395.41
951.31	535.3	3412.11
951.41	535.2	3442.73
951.51	535.1	3444.33
951.61	535	3473.95
951.71	534.9	3488.19
951.81	534.8	3431.65
951.91	534.7	3515.68
952.01	534.6	3510.25
952.11	534.5	3460.87
952.21	534.4	3494.07
952.31	534.3	3465.58
952.41	534.2	3497.78
952.51	534.1	3498.6
952.61	534	3487.18
952.71	533.9	3422.76
952.81	533.8	3481.85
952.91	533.7	3532.58
953.01	533.6	3477.7
953.11	533.5	3491.14
953.21	533.4	3462.21
953.31	533.3	3471.45
953.41	533.2	3485.88
953.51	533.1	3424.48
953.61	533	3503.09
953.71	532.9	3526.67
953.81	532.8	3569.71
953.91	532.7	3515.98
954.01	532.6	3526.22
954.11	532.5	3537.59
954.21	532.4	3555.48
954.31	532.3	3540.51
954.41	532.2	3513.65
954.51	532.1	3570.74
954.61	532	3539.1
954.71	531.9	3526.27
954.81	531.8	3521.11
954.91	531.7	3552.29
955.01	531.6	3579.47
955.11	531.5	3551.99
955.21	531.4	3592.18
955.31	531.3	3563.4
955.41	531.2	3583.73
955.51	531.1	3566.73
955.61	531	3599.28
955.71	530.9	3596.07
955.81	530.8	3579.14
955.91	530.7	3582.04
956.01	530.6	3560.57
956.11	530.5	3561.22
956.21	530.4	3566.92
956.31	530.3	3540.18
956.41	530.2	3536.9
956.51	530.1	3530.75
956.61	530	3516.63
956.71	529.9	3520.48
956.81	529.8	3473.72
956.91	529.7	3443.41
957.01	529.6	3473.37
957.11	529.5	3523.98
957.21	529.4	3474.31
957.31	529.3	3516.26
957.41	529.2	3525.81
957.51	529.1	3497.57
957.61	529	3499.51
957.71	528.9	3451.21
957.81	528.8	3505.99
957.91	528.7	3456.56
958.01	528.6	3486.36
958.11	528.5	3470.37
958.21	528.4	3486.19
958.31	528.3	3594.44
958.41	528.2	3544.97
958.51	528.1	3513.28
958.61	528	3493.76
958.71	527.9	3486.11
958.81	527.8	3472.17
958.91	527.7	3543.78
959.01	527.6	3486.2
959.11	527.5	3560.17
959.21	527.4	3530.81
959.31	527.3	3506.71
959.41	527.2	3511.35
959.51	527.1	3508.45
959.61	527	3486.1
959.71	526.9	3586.6
959.81	526.8	3496.29
959.91	526.7	3468.09
960.01	526.6	3501.32
960.11	526.5	3516.06
960.21	526.4	3556.85
960.31	526.3	3505.92
960.41	526.2	3516.74
960.51	526.1	3501.52
960.61	526	3496.05
960.71	525.9	3486.06
960.81	525.8	3525.61
960.91	525.7	3488.52
961.01	525.6	3532.32
961.11	525.5	3539.41
961.21	525.4	3559.8
961.31	525.3	3506.4
961.41	525.2	3553.75
961.51	525.1	3502.28
961.61	525	3490.39
961.71	524.9	3534
961.81	524.8	3460.72
961.91	524.7	3547.28
962.01	524.6	3528.07
962.11	524.5	3541.26
962.21	524.4	3528.68
962.31	524.3	3461.98
962.41	524.2	3494.86
962.51	524.1	3517.59
962.61	524	3526.75
962.71	523.9	3549.36
962.81	523.8	3473.59
962.91	523.7	3565.65
963.01	523.6	3504.75
963.11	523.5	3506.11
963.21	523.4	3594.78
963.31	523.3	3556.64
963.41	523.2	3549.35
963.51	523.1	3530.53
963.61	523	3495.39
963.71	522.9	3512.78
963.81	522.8	3533.45
963.91	522.7	3513.26
964.01	522.6	3538.51
964.11	522.5	3551.81
964.21	522.4	3553.23
964.31	522.3	3537.34
964.41	522.2	3490.41
964.51	522.1	3480.79
964.61	522	3512.16
964.71	521.9	3497.99
964.81	521.8	3552.69
964.91	521.7	3550.94
965.01	521.6	3539.92
965.11	521.5	3547.49
965.21	521.4	3568.66
965.31	521.3	3547.02
965.41	521.2	3517.93
965.51	521.1	3484.91
965.61	521	3501.62
965.71	520.9	3554.06
965.81	520.8	3513.61
965.91	520.7	3538.19
966.01	520.6	3577.62
966.11	520.5	3544.95
966.21	520.4	3553.41
966.31	520.3	3565.47
966.41	520.2	3601.69
966.51	520.1	3576.91
966.61	520	3552.95
966.71	519.9	3550.14
966.81	519.8	3548.53
966.91	519.7	3535.41
967.01	519.6	3589.14
967.11	519.5	3554.21
967.21	519.4	3545.89
967.31	519.3	3533.06
967.41	519.2	3516.91
967.51	519.1	3529.77
967.61	519	3577.44
967.71	518.9	3527.11
967.81	518.8	3571.45
967.91	518.7	3539.06
968.01	518.6	3541.9
968.11	518.5	3566.44
968.21	518.4	3500.47
968.31	518.3	3542.04
968.41	518.2	3523.27
968.51	518.1	3550.48
968.61	518	3562.68
968.71	517.9	3592.54
968.81	517.8	3544.43
968.91	517.7	3578.86
969.01	517.6	3554.19
969.11	517.5	3538.66
969.21	517.4	3563.32
969.31	517.3	3570.38
969.41	517.2	3615.79
969.51	517.1	3597.38
969.61	517	3552.05
969.71	516.9	3563.76
969.81	516.8	3579.91
969.91	516.7	3555.67
970.01	516.6	3588.02
970.11	516.5	3611.98
970.21	516.4	3570.15
970.31	516.3	3582.35
970.41	516.2	3567.34
970.51	516.1	3592.61
970.61	516	3598.82
970.71	515.9	3568.28
970.81	515.8	3586.37
970.91	515.7	3622.63
971.01	515.6	3592.93
971.11	515.5	3572.99
971.21	515.4	3653.67
971.31	515.3	3593.98
971.41	515.2	3625.36
971.51	515.1	3583.55
971.61	515	3609.33
971.71	514.9	3595.91
971.81	514.8	3603.5
971.91	514.7	3581.41
972.01	514.6	3559.02
972.11	514.5	3626.44
972.21	514.4	3604.2
972.31	514.3	3564.63
972.41	514.2	3608.25
972.51	514.1	3579.66
972.61	514	3629.42
972.71	513.9	3604.65
972.81	513.8	3538.81
972.91	513.7	3583.29
973.01	513.6	3605.17
973.11	513.5	3624.93
973.21	513.4	3611.52
973.31	513.3	3612.89
973.41	513.2	3609.62
973.51	513.1	3608.93
973.61	513	3591.56
973.71	512.9	3604.93
973.81	512.8	3610.25
973.91	512.7	3615.61
974.01	512.6	3620.89
974.11	512.5	3631.22
974.21	512.4	3618.35
974.31	512.3	3637.05
974.41	512.2	3638.1
974.51	512.1	3590.79
974.61	512	3591.05
974.71	511.9	3594.44
974.81	511.8	3577.83
974.91	511.7	3560.16
975.01	511.6	3551.37
975.11	511.5	3564.38
975.21	511.4	3624.54
975.31	511.3	3644.55
975.41	511.2	3650.87
975.51	511.1	3692.08
975.61	511	3640.02
975.71	510.9	3659.67
975.81	510.8	3616.66
975.91	510.7	3581.22
976.01	510.6	3554.84
976.11	510.5	3626.93
976.21	510.4	3598.79
976.31	510.3	3646.12
976.41	510.2	3637.94
976.51	510.1	3611.58
976.61	510	3628.75
976.71	509.9	3640.78
976.81	509.8	3622.87
976.91	509.7	3653.53
977.01	509.6	3651.11
977.11	509.5	3649.76
977.21	509.4	3700.79
977.31	509.3	3678.93
977.41	509.2	3645.47
977.51	509.1	3646.99
977.61	509	3670.9
977.71	508.9	3629.5
977.81	508.8	3613.07
977.91	508.7	3662.27
978.01	508.6	3630.19
978.11	508.5	3638.14
978.21	508.4	3605.91
978.31	508.3	3597.27
978.41	508.2	3656.16
978.51	508.1	3650.61
978.61	508	3641.83
978.71	507.9	3637.79
978.81	507.8	3633.49
978.91	507.7	3679.28
979.01	507.6	3630.15
979.11	507.5	3661.61
979.21	507.4	3643.42
979.31	507.3	3630.37
979.41	507.2	3675.01
979.51	507.1	3676.41
979.61	507	3696.47
979.71	506.9	3643.19
979.81	506.8	3614.54
979.91	506.7	3661.96
980.01	506.6	3691.67
980.11	506.5	3685.67
980.21	506.4	3637.04
980.31	506.3	3700.84
980.41	506.2	3665.03
980.51	506.1	3691.45
980.61	506	3689.41
980.71	505.9	3651.9
980.81	505.8	3720.98
980.91	505.7	3747.38
981.01	505.6	3683.67
981.11	505.5	3601.19
981.21	505.4	3715.77
981.31	505.3	3671.75
981.41	505.2	3644.12
981.51	505.1	3617.39
981.61	505	3688.96
981.71	504.9	3698.1
981.81	504.8	3731.22
981.91	504.7	3672.35
982.01	504.6	3692.17
982.11	504.5	3713.7
982.21	504.4	3711.79
982.31	504.3	3660.33
982.41	504.2	3673.7
982.51	504.1	3688.14
982.61	504	3661.04
982.71	503.9	3746.32
982.81	503.8	3757.03
982.91	503.7	3720.69
983.01	503.6	3676.67
983.11	503.5	3656.56
983.21	503.4	3651.09
983.31	503.3	3668.66
983.41	503.2	3672.79
983.51	503.1	3691.46
983.61	503	3720.65
983.71	502.9	3647.88
983.81	502.8	3692.59
983.91	502.7	3701.53
984.01	502.6	3725.8
984.11	502.5	3628.34
984.21	502.4	3719.36
984.31	502.3	3695.98
984.41	502.2	3750.39
984.51	502.1	3661.53
984.61	502	3730.26
984.71	501.9	3708.02
984.81	501.8	3741.52
984.91	501.7	3744.68
985.01	501.6	3690.87
985.11	501.5	3727.87
985.21	501.4	3703.04
985.31	501.3	3744.68
985.41	501.2	3753.01
985.51	501.1	3749.07
985.61	501	3696.72
985.71	500.9	3701.37
985.81	500.8	3750.36
985.91	500.7	3746.72
986.01	500.6	3706.84
986.11	500.5	3724.97
986.21	500.4	3733.52
986.31	500.3	3740.38
986.41	500.2	3699.46
986.51	500.1	3758.65
986.61	500	3714.93