C:\Users\Mark\ownCloud\Muelheim Group\Projects\Gas phase background\EX340_CEC356_Ag N2 LargeArea.vms
Ag3p
	Characteristic Energy eV	1486.61	Acquisition Time s	0.7
KE_Ag3p	BE_Ag3p	CPS_Ag3p	Background_Ag3p
686.61	800	9454.91	9454.91
686.71	799.9	9503.3	9503.3
686.81	799.8	9481.21	9481.21
686.91	799.7	9496.54	9496.54
687.01	799.6	9398.61	9398.61
687.11	799.5	9439.21	9439.21
687.21	799.4	9594.36	9594.36
687.31	799.3	9421.33	9421.33
687.41	799.2	9430.16	9430.16
687.51	799.1	9324.71	9324.71
687.61	799	9468.57	9468.57
687.71	798.9	9357.57	9357.57
687.81	798.8	9494.56	9494.56
687.91	798.7	9518.69	9518.69
688.01	798.6	9442.74	9442.74
688.11	798.5	9568.44	9568.44
688.21	798.4	9598.71	9598.71
688.31	798.3	9523.67	9523.67
688.41	798.2	9411.44	9411.44
688.51	798.1	9574.44	9574.44
688.61	798	9383.5	9383.5
688.71	797.9	9423.57	9423.57
688.81	797.8	9473.84	9473.84
688.91	797.7	9408.49	9408.49
689.01	797.6	9443.9	9443.9
689.11	797.5	9515.29	9515.29
689.21	797.4	9447.5	9447.5
689.31	797.3	9460.51	9460.51
689.41	797.2	9503.27	9503.27
689.51	797.1	9446	9446
689.61	797	9542.17	9542.17
689.71	796.9	9460.63	9460.63
689.81	796.8	9631.69	9631.69
689.91	796.7	9648.74	9648.74
690.01	796.6	9477.89	9477.89
690.11	796.5	9515.01	9515.01
690.21	796.4	9468.03	9468.03
690.31	796.3	9653.86	9653.86
690.41	796.2	9465.99	9465.99
690.51	796.1	9677.73	9677.73
690.61	796	9526.37	9526.37
690.71	795.9	9436.71	9436.71
690.81	795.8	9240.74	9240.74
690.91	795.7	9503.67	9503.67
691.01	795.6	9553.17	9553.17
691.11	795.5	9406.81	9406.81
691.21	795.4	9536.69	9536.69
691.31	795.3	9651.47	9651.47
691.41	795.2	9681.29	9681.29
691.51	795.1	9574.87	9574.87
691.61	795	9536.04	9536.04
691.71	794.9	9676.87	9676.87
691.81	794.8	9532.54	9532.54
691.91	794.7	9648.29	9648.29
692.01	794.6	9606.6	9606.6
692.11	794.5	9526.84	9526.84
692.21	794.4	9453.59	9453.59
692.31	794.3	9518.84	9518.84
692.41	794.2	9572.81	9572.81
692.51	794.1	9507.53	9507.53
692.61	794	9530.5	9530.5
692.71	793.9	9567.86	9567.86
692.81	793.8	9416.5	9416.5
692.91	793.7	9576.16	9576.16
693.01	793.6	9494.46	9494.46
693.11	793.5	9487.24	9487.24
693.21	793.4	9433.23	9433.23
693.31	793.3	9474.84	9474.84
693.41	793.2	9444	9444
693.51	793.1	9533.11	9533.11
693.61	793	9682.09	9682.09
693.71	792.9	9527.69	9527.69
693.81	792.8	9535.27	9535.27
693.91	792.7	9460.59	9460.59
694.01	792.6	9477.97	9477.97
694.11	792.5	9548.81	9548.81
694.21	792.4	9618.1	9618.1
694.31	792.3	9672.69	9672.69
694.41	792.2	9762.3	9762.3
694.51	792.1	9568.14	9568.14
694.61	792	9541.57	9541.57
694.71	791.9	9531.17	9531.17
694.81	791.8	9510.49	9510.49
694.91	791.7	9618.76	9618.76
695.01	791.6	9611.57	9611.57
695.11	791.5	9520.46	9520.46
695.21	791.4	9682.64	9682.64
695.31	791.3	9714.81	9714.81
695.41	791.2	9488.6	9488.6
695.51	791.1	9596.24	9596.24
695.61	791	9627.8	9627.8
695.71	790.9	9355.93	9355.93
695.81	790.8	9355.8	9355.8
695.91	790.7	9598.99	9598.99
696.01	790.6	9593.39	9593.39
696.11	790.5	9592.13	9592.13
696.21	790.4	9489.47	9489.47
696.31	790.3	9382.34	9382.34
696.41	790.2	9542.69	9542.69
696.51	790.1	9633.47	9633.47
696.61	790	9464.83	9464.83
696.71	789.9	9638.89	9638.89
696.81	789.8	9699.99	9699.99
696.91	789.7	9723.04	9723.04
697.01	789.6	9606.24	9606.24
697.11	789.5	9483.86	9483.86
697.21	789.4	9539.9	9539.9
697.31	789.3	9568.59	9568.59
697.41	789.2	9529.83	9529.83
697.51	789.1	9608.63	9608.63
697.61	789	9522.06	9522.06
697.71	788.9	9646.56	9646.56
697.81	788.8	9666.2	9666.2
697.91	788.7	9654.63	9654.63
698.01	788.6	9827.21	9827.21
698.11	788.5	9645.39	9645.39
698.21	788.4	9685.63	9685.63
698.31	788.3	9744.47	9744.47
698.41	788.2	9731.1	9731.1
698.51	788.1	9601.56	9601.56
698.61	788	9651.01	9651.01
698.71	787.9	9653.09	9653.09
698.81	787.8	9618.17	9618.17
698.91	787.7	9612.24	9612.24
699.01	787.6	9803.16	9803.16
699.11	787.5	9524.97	9524.97
699.21	787.4	9542.57	9542.57
699.31	787.3	9534.57	9534.57
699.41	787.2	9618.69	9618.69
699.51	787.1	9715.89	9715.89
699.61	787	9613.43	9613.43
699.71	786.9	9626.34	9626.34
699.81	786.8	9637.73	9637.73
699.91	786.7	9584.79	9584.79
700.01	786.6	9373.43	9373.43
700.11	786.5	9534.41	9534.41
700.21	786.4	9729.8	9729.8
700.31	786.3	9818.6	9818.6
700.41	786.2	9865.13	9865.13
700.51	786.1	9726.13	9726.13
700.61	786	9642.94	9642.94
700.71	785.9	9481.51	9481.51
700.81	785.8	9743.37	9743.37
700.91	785.7	9715.5	9715.5
701.01	785.6	9645.77	9645.77
701.11	785.5	9687.99	9687.99
701.21	785.4	9547.26	9547.26
701.31	785.3	9508.66	9508.66
701.41	785.2	9743.43	9743.43
701.51	785.1	9813.64	9813.64
701.61	785	9572.3	9572.3
701.71	784.9	9568.84	9568.84
701.81	784.8	9646.77	9646.77
701.91	784.7	9779.04	9779.04
702.01	784.6	9650.63	9650.63
702.11	784.5	9585.04	9585.04
702.21	784.4	9604.96	9604.96
702.31	784.3	9597.04	9597.04
702.41	784.2	9672.1	9672.1
702.51	784.1	9745.01	9745.01
702.61	784	9606.3	9606.3
702.71	783.9	9494.06	9494.06
702.81	783.8	9475.64	9475.64
702.91	783.7	9725.76	9725.76
703.01	783.6	9698.06	9698.06
703.11	783.5	9757.01	9757.01
703.21	783.4	9661.53	9661.53
703.31	783.3	9584.53	9584.53
703.41	783.2	9635.04	9635.04
703.51	783.1	9604.2	9604.2
703.61	783	9708.2	9708.2
703.71	782.9	9724.11	9724.11
703.81	782.8	9721.73	9721.73
703.91	782.7	9729.01	9729.01
704.01	782.6	9789.06	9789.06
704.11	782.5	9775.87	9775.87
704.21	782.4	9643.89	9643.89
704.31	782.3	9540.59	9540.59
704.41	782.2	9802.76	9802.76
704.51	782.1	9762.13	9762.13
704.61	782	9746.53	9746.53
704.71	781.9	9826.7	9826.7
704.81	781.8	9640.89	9640.89
704.91	781.7	9632.56	9632.56
705.01	781.6	9738.41	9738.41
705.11	781.5	9706.33	9706.33
705.21	781.4	9768.87	9768.87
705.31	781.3	9673.2	9673.2
705.41	781.2	9724	9724
705.51	781.1	9816.77	9816.77
705.61	781	9757.8	9757.8
705.71	780.9	9859.96	9859.96
705.81	780.8	9811.94	9811.94
705.91	780.7	9542.71	9542.71
706.01	780.6	9613.01	9613.01
706.11	780.5	9848.46	9848.46
706.21	780.4	9773.56	9773.56
706.31	780.3	9814.51	9814.51
706.41	780.2	9674.7	9674.7
706.51	780.1	9541.41	9541.41
706.61	780	9521.37	9521.37
706.71	779.9	9663.81	9663.81
706.81	779.8	9834	9834
706.91	779.7	9733.01	9733.01
707.01	779.6	9643.04	9643.04
707.11	779.5	9787.71	9787.71
707.21	779.4	9719.76	9719.76
707.31	779.3	9852.86	9852.86
707.41	779.2	9765.5	9765.5
707.51	779.1	9659.34	9659.34
707.61	779	9676.64	9676.64
707.71	778.9	9775.31	9775.31
707.81	778.8	9830.53	9830.53
707.91	778.7	9678.86	9678.86
708.01	778.6	9683.8	9683.8
708.11	778.5	9808.96	9808.96
708.21	778.4	9829.06	9829.06
708.31	778.3	9996.56	9996.56
708.41	778.2	9893.24	9893.24
708.51	778.1	9785.86	9785.86
708.61	778	9672.27	9672.27
708.71	777.9	9765.71	9765.71
708.81	777.8	9920.27	9920.27
708.91	777.7	9731.41	9731.41
709.01	777.6	9686.57	9686.57
709.11	777.5	9788.33	9788.33
709.21	777.4	9869.39	9869.39
709.31	777.3	9809.64	9809.64
709.41	777.2	9712.09	9712.09
709.51	777.1	9623.07	9623.07
709.61	777	9621.23	9621.23
709.71	776.9	9572.9	9572.9
709.81	776.8	9626.8	9626.8
709.91	776.7	9898.13	9898.13
710.01	776.6	9828.84	9828.84
710.11	776.5	9952.2	9952.2
710.21	776.4	9845.09	9845.09
710.31	776.3	9865.73	9865.73
710.41	776.2	9606.09	9606.09
710.51	776.1	9802.01	9802.01
710.61	776	9896.01	9896.01
710.71	775.9	9818.4	9818.4
710.81	775.8	9753.41	9753.41
710.91	775.7	9651.64	9651.64
711.01	775.6	9608.57	9608.57
711.11	775.5	9629.86	9629.86
711.21	775.4	9778.67	9778.67
711.31	775.3	9689.57	9689.57
711.41	775.2	9774.61	9774.61
711.51	775.1	9865.8	9865.8
711.61	775	9818.67	9818.67
711.71	774.9	9629.47	9629.47
711.81	774.8	9752.63	9752.63
711.91	774.7	9701.99	9701.99
712.01	774.6	9704.19	9704.19
712.11	774.5	9811.13	9811.13
712.21	774.4	9759.3	9759.3
712.31	774.3	9885.19	9885.19
712.41	774.2	9744.84	9744.84
712.51	774.1	9882.77	9882.77
712.61	774	9790.77	9790.77
712.71	773.9	9658.19	9658.19
712.81	773.8	9804.41	9804.41
712.91	773.7	9821.64	9821.64
713.01	773.6	9825.9	9825.9
713.11	773.5	9989.97	9989.97
713.21	773.4	9800.93	9800.93
713.31	773.3	9787.61	9787.61
713.41	773.2	9865.93	9865.93
713.51	773.1	9668.16	9668.16
713.61	773	9791.24	9791.24
713.71	772.9	10031.2	10031.2
713.81	772.8	9956.56	9956.56
713.91	772.7	9706.81	9706.81
714.01	772.6	9678.3	9678.3
714.11	772.5	9868.17	9868.17
714.21	772.4	9883.43	9883.43
714.31	772.3	9774.64	9774.64
714.41	772.2	9875.63	9875.63
714.51	772.1	9802.77	9802.77
714.61	772	9872.51	9872.51
714.71	771.9	10033	10033
714.81	771.8	9863.19	9863.19
714.91	771.7	9819.94	9819.94
715.01	771.6	9786.56	9786.56
715.11	771.5	9780.4	9780.4
715.21	771.4	9883.9	9883.9
715.31	771.3	9973.53	9973.53
715.41	771.2	10028.5	10028.5
715.51	771.1	9869.11	9869.11
715.61	771	9821.69	9821.69
715.71	770.9	9945.89	9945.89
715.81	770.8	9874.6	9874.6
715.91	770.7	9806.81	9806.81
716.01	770.6	9784.59	9784.59
716.11	770.5	9917.09	9917.09
716.21	770.4	9952.91	9952.91
716.31	770.3	9928.89	9928.89
716.41	770.2	9721.71	9721.71
716.51	770.1	9913.11	9913.11
716.61	770	9933.39	9933.39
716.71	769.9	9939.43	9939.43
716.81	769.8	10024.7	10024.7
716.91	769.7	9998.5	9998.5
717.01	769.6	9971.71	9971.71
717.11	769.5	9712	9712
717.21	769.4	9894.31	9894.31
717.31	769.3	10006.3	10006.3
717.41	769.2	9953.56	9953.56
717.51	769.1	10105.9	10105.9
717.61	769	10015.3	10015.3
717.71	768.9	10038.4	10038.4
717.81	768.8	9914.06	9914.06
717.91	768.7	9857.93	9857.93
718.01	768.6	9966.99	9966.99
718.11	768.5	9854.51	9854.51
718.21	768.4	9835.76	9835.76
718.31	768.3	9869.99	9869.99
718.41	768.2	9990.89	9990.89
718.51	768.1	9776.14	9776.14
718.61	768	9894	9894
718.71	767.9	9962.3	9962.3
718.81	767.8	9803.3	9803.3
718.91	767.7	9938.54	9938.54
719.01	767.6	9925.3	9925.3
719.11	767.5	9973.41	9973.41
719.21	767.4	9901.84	9901.84
719.31	767.3	9733.89	9733.89
719.41	767.2	9967.13	9967.13
719.51	767.1	9846.23	9846.23
719.61	767	9999.97	9999.97
719.71	766.9	9886.9	9886.9
719.81	766.8	9750.39	9750.39
719.91	766.7	9878.27	9878.27
720.01	766.6	9983.34	9983.34
720.11	766.5	9914.73	9914.73
720.21	766.4	9951.14	9951.14
720.31	766.3	9915.53	9915.53
720.41	766.2	10028.4	10028.4
720.51	766.1	10021.5	10021.5
720.61	766	9946.71	9946.71
720.71	765.9	9755.73	9755.73
720.81	765.8	10029.2	10029.2
720.91	765.7	10044.1	10044.1
721.01	765.6	10178.4	10178.4
721.11	765.5	10029.2	10029.2
721.21	765.4	9883.96	9883.96
721.31	765.3	9802.27	9802.27
721.41	765.2	9941.9	9941.9
721.51	765.1	9977.64	9977.64
721.61	765	9866.09	9866.09
721.71	764.9	10067.8	10067.8
721.81	764.8	10027	10027
721.91	764.7	10038.2	10038.2
722.01	764.6	9764.07	9764.07
722.11	764.5	9946.89	9946.89
722.21	764.4	10126.9	10126.9
722.31	764.3	9922.04	9922.04
722.41	764.2	9900.4	9900.4
722.51	764.1	10207.3	10207.3
722.61	764	9985.06	9985.06
722.71	763.9	10060.2	10060.2
722.81	763.8	10022.7	10022.7
722.91	763.7	9888.5	9888.5
723.01	763.6	10079.7	10079.7
723.11	763.5	9896.8	9896.8
723.21	763.4	9927.29	9927.29
723.31	763.3	9882.14	9882.14
723.41	763.2	10014.4	10014.4
723.51	763.1	9976.9	9976.9
723.61	763	9925.93	9925.93
723.71	762.9	10002.6	10002.6
723.81	762.8	10124.1	10124.1
723.91	762.7	10054.3	10054.3
724.01	762.6	10092.9	10092.9
724.11	762.5	10070.4	10070.4
724.21	762.4	10049.7	10049.7
724.31	762.3	9932.53	9932.53
724.41	762.2	10062.5	10062.5
724.51	762.1	9952.71	9952.71
724.61	762	9941.47	9941.47
724.71	761.9	10079.5	10079.5
724.81	761.8	9967.34	9967.34
724.91	761.7	10099	10099
725.01	761.6	10067.3	10067.3
725.11	761.5	9942.97	9942.97
725.21	761.4	10062.9	10062.9
725.31	761.3	10001.3	10001.3
725.41	761.2	10155.1	10155.1
725.51	761.1	10029.8	10029.8
725.61	761	9925.5	9925.5
725.71	760.9	10176.3	10176.3
725.81	760.8	10177	10177
725.91	760.7	10054.5	10054.5
726.01	760.6	10046.7	10046.7
726.11	760.5	10183.7	10183.7
726.21	760.4	9966.76	9966.76
726.31	760.3	10083.3	10083.3
726.41	760.2	9938.5	9938.5
726.51	760.1	10118.6	10118.6
726.61	760	10095.4	10095.4
726.71	759.9	9940.66	9940.66
726.81	759.8	10073.7	10073.7
726.91	759.7	10129.9	10129.9
727.01	759.6	10047.7	10047.7
727.11	759.5	10213.3	10213.3
727.21	759.4	10171.2	10171.2
727.31	759.3	10062.8	10062.8
727.41	759.2	10128	10128
727.51	759.1	10055.2	10055.2
727.61	759	10230.7	10230.7
727.71	758.9	9936.3	9936.3
727.81	758.8	10056.7	10056.7
727.91	758.7	9981.44	9981.44
728.01	758.6	9878.3	9878.3
728.11	758.5	9951.06	9951.06
728.21	758.4	10037.4	10037.4
728.31	758.3	10055.4	10055.4
728.41	758.2	10329	10329
728.51	758.1	10161.5	10161.5
728.61	758	10117.1	10117.1
728.71	757.9	10098.6	10098.6
728.81	757.8	10172.9	10172.9
728.91	757.7	10166.6	10166.6
729.01	757.6	10161.2	10161.2
729.11	757.5	10014.6	10014.6
729.21	757.4	10078.6	10078.6
729.31	757.3	10187.4	10187.4
729.41	757.2	10085.2	10085.2
729.51	757.1	10164	10164
729.61	757	10056.4	10056.4
729.71	756.9	10160.3	10160.3
729.81	756.8	10085.9	10085.9
729.91	756.7	10184.6	10184.6
730.01	756.6	10132	10132
730.11	756.5	10148	10148
730.21	756.4	10324.9	10324.9
730.31	756.3	10244.4	10244.4
730.41	756.2	10169.5	10169.5
730.51	756.1	10065	10065
730.61	756	10234	10234
730.71	755.9	10396.1	10396.1
730.81	755.8	10148.9	10148.9
730.91	755.7	10150.9	10150.9
731.01	755.6	10147.8	10147.8
731.11	755.5	10009.2	10009.2
731.21	755.4	10280.2	10280.2
731.31	755.3	10217.5	10217.5
731.41	755.2	10110.3	10110.3
731.51	755.1	10141.8	10141.8
731.61	755	10250.8	10250.8
731.71	754.9	10118.5	10118.5
731.81	754.8	10163.6	10163.6
731.91	754.7	10007.8	10007.8
732.01	754.6	10212.8	10212.8
732.11	754.5	10266.7	10266.7
732.21	754.4	10308.3	10308.3
732.31	754.3	10116.1	10116.1
732.41	754.2	10152	10152
732.51	754.1	10356.1	10356.1
732.61	754	10454.5	10454.5
732.71	753.9	10199.8	10199.8
732.81	753.8	10218.1	10218.1
732.91	753.7	10220.2	10220.2
733.01	753.6	10226.5	10226.5
733.11	753.5	10220.1	10220.1
733.21	753.4	10313.2	10313.2
733.31	753.3	10206.3	10206.3
733.41	753.2	10117	10117
733.51	753.1	10174.2	10174.2
733.61	753	10216	10216
733.71	752.9	10197.8	10197.8
733.81	752.8	10250.2	10250.2
733.91	752.7	10377.2	10377.2
734.01	752.6	10086.9	10086.9
734.11	752.5	10291.4	10291.4
734.21	752.4	10180.2	10180.2
734.31	752.3	10223.5	10223.5
734.41	752.2	10221.3	10221.3
734.51	752.1	9900.84	9900.84
734.61	752	10299.9	10299.9
734.71	751.9	10128.8	10128.8
734.81	751.8	9983.61	9983.61
734.91	751.7	10128.9	10128.9
735.01	751.6	10237.7	10237.7
735.11	751.5	10282.5	10282.5
735.21	751.4	10155.2	10155.2
735.31	751.3	10068.3	10068.3
735.41	751.2	10224.3	10224.3
735.51	751.1	10269.5	10269.5
735.61	751	10047.1	10047.1
735.71	750.9	10198.8	10198.8
735.81	750.8	10095.9	10095.9
735.91	750.7	10251.5	10251.5
736.01	750.6	10386.6	10386.6
736.11	750.5	10253.4	10253.4
736.21	750.4	10181.7	10181.7
736.31	750.3	10257.6	10257.6
736.41	750.2	10311.9	10311.9
736.51	750.1	10355.7	10355.7
736.61	750	10311.3	10311.3
736.71	749.9	10199.4	10199.4
736.81	749.8	10390.5	10390.5
736.91	749.7	10241.2	10241.2
737.01	749.6	10145.8	10145.8
737.11	749.5	10154.6	10154.6
737.21	749.4	10258.4	10258.4
737.31	749.3	10427.6	10427.6
737.41	749.2	10338.4	10338.4
737.51	749.1	10220.7	10220.7
737.61	749	10127	10127
737.71	748.9	10100.1	10100.1
737.81	748.8	10388.1	10388.1
737.91	748.7	10209.3	10209.3
738.01	748.6	10301.9	10301.9
738.11	748.5	10110	10110
738.21	748.4	10238.1	10238.1
738.31	748.3	10268.2	10268.2
738.41	748.2	10488.8	10488.8
738.51	748.1	10471.1	10471.1
738.61	748	10388	10388
738.71	747.9	10399.1	10399.1
738.81	747.8	10462.2	10462.2
738.91	747.7	10404.6	10404.6
739.01	747.6	10343.7	10343.7
739.11	747.5	10266.1	10266.1
739.21	747.4	10318	10318
739.31	747.3	10335.4	10335.4
739.41	747.2	10251	10251
739.51	747.1	10246.9	10246.9
739.61	747	10317.1	10317.1
739.71	746.9	10358.8	10358.8
739.81	746.8	10351.8	10351.8
739.91	746.7	10420.8	10420.8
740.01	746.6	10302	10302
740.11	746.5	10405	10405
740.21	746.4	10417.7	10417.7
740.31	746.3	10239.2	10239.2
740.41	746.2	10410.2	10410.2
740.51	746.1	10311.4	10311.4
740.61	746	10445.3	10445.3
740.71	745.9	10407.2	10407.2
740.81	745.8	10270.3	10270.3
740.91	745.7	10305.3	10305.3
741.01	745.6	10414.6	10414.6
741.11	745.5	10301.3	10301.3
741.21	745.4	10382.9	10382.9
741.31	745.3	10307.7	10307.7
741.41	745.2	10432.9	10432.9
741.51	745.1	10400.1	10400.1
741.61	745	10375.5	10375.5
741.71	744.9	10383.1	10383.1
741.81	744.8	10411	10411
741.91	744.7	10385.3	10385.3
742.01	744.6	10419	10419
742.11	744.5	10307.8	10307.8
742.21	744.4	10372	10372
742.31	744.3	10282.2	10282.2
742.41	744.2	10388.6	10388.6
742.51	744.1	10372.1	10372.1
742.61	744	10328.3	10328.3
742.71	743.9	10437.7	10437.7
742.81	743.8	10424.3	10424.3
742.91	743.7	10384.2	10384.2
743.01	743.6	10437.5	10437.5
743.11	743.5	10614	10614
743.21	743.4	10436.7	10436.7
743.31	743.3	10612.9	10612.9
743.41	743.2	10423.4	10423.4
743.51	743.1	10512.6	10512.6
743.61	743	10613.3	10613.3
743.71	742.9	10486.5	10486.5
743.81	742.8	10403.5	10403.5
743.91	742.7	10472.4	10472.4
744.01	742.6	10477.1	10477.1
744.11	742.5	10482.4	10482.4
744.21	742.4	10446.3	10446.3
744.31	742.3	10529.8	10529.8
744.41	742.2	10591.7	10591.7
744.51	742.1	10337.1	10337.1
744.61	742	10401.6	10401.6
744.71	741.9	10483.1	10483.1
744.81	741.8	10490	10490
744.91	741.7	10342.5	10342.5
745.01	741.6	10472.2	10472.2
745.11	741.5	10802.6	10802.6
745.21	741.4	10486.6	10486.6
745.31	741.3	10421.8	10421.8
745.41	741.2	10568.4	10568.4
745.51	741.1	10432.5	10432.5
745.61	741	10407	10407
745.71	740.9	10475.7	10475.7
745.81	740.8	10420.9	10420.9
745.91	740.7	10517.6	10517.6
746.01	740.6	10526.7	10526.7
746.11	740.5	10451.4	10451.4
746.21	740.4	10448.8	10448.8
746.31	740.3	10396.1	10396.1
746.41	740.2	10453.7	10453.7
746.51	740.1	10335.5	10335.5
746.61	740	10415.5	10415.5
746.71	739.9	10411.6	10411.6
746.81	739.8	10569	10569
746.91	739.7	10654.4	10654.4
747.01	739.6	10721	10721
747.11	739.5	10457.4	10457.4
747.21	739.4	10358.7	10358.7
747.31	739.3	10331	10331
747.41	739.2	10589.3	10589.3
747.51	739.1	10702.6	10702.6
747.61	739	10620	10620
747.71	738.9	10564.7	10564.7
747.81	738.8	10565.8	10565.8
747.91	738.7	10612.6	10612.6
748.01	738.6	10565.6	10565.6
748.11	738.5	10310	10310
748.21	738.4	10483	10483
748.31	738.3	10414.6	10414.6
748.41	738.2	10688.7	10688.7
748.51	738.1	10564.2	10564.2
748.61	738	10523.5	10523.5
748.71	737.9	10538.2	10538.2
748.81	737.8	10686	10686
748.91	737.7	10571.3	10571.3
749.01	737.6	10324.6	10324.6
749.11	737.5	10370.3	10370.3
749.21	737.4	10478.4	10478.4
749.31	737.3	10591.5	10591.5
749.41	737.2	10638.6	10638.6
749.51	737.1	10581.4	10581.4
749.61	737	10456.9	10456.9
749.71	736.9	10653.2	10653.2
749.81	736.8	10587.9	10587.9
749.91	736.7	10607	10607
750.01	736.6	10707.1	10707.1
750.11	736.5	10813.7	10813.7
750.21	736.4	10583.6	10583.6
750.31	736.3	10535.8	10535.8
750.41	736.2	10439.7	10439.7
750.51	736.1	10517.7	10517.7
750.61	736	10675.4	10675.4
750.71	735.9	10712	10712
750.81	735.8	10625.8	10625.8
750.91	735.7	10494.8	10494.8
751.01	735.6	10636.7	10636.7
751.11	735.5	10565	10565
751.21	735.4	10548.6	10548.6
751.31	735.3	10544	10544
751.41	735.2	10544.7	10544.7
751.51	735.1	10571.2	10571.2
751.61	735	10548.8	10548.8
751.71	734.9	10619.6	10619.6
751.81	734.8	10593.1	10593.1
751.91	734.7	10687.7	10687.7
752.01	734.6	10635.2	10635.2
752.11	734.5	10626.4	10626.4
752.21	734.4	10689.2	10689.2
752.31	734.3	10593.8	10593.8
752.41	734.2	10526.6	10526.6
752.51	734.1	10587.3	10587.3
752.61	734	10759.2	10759.2
752.71	733.9	10707.4	10707.4
752.81	733.8	10783.5	10783.5
752.91	733.7	10821.9	10821.9
753.01	733.6	10745.2	10745.2
753.11	733.5	10680	10680
753.21	733.4	10547.5	10547.5
753.31	733.3	10659.6	10659.6
753.41	733.2	10961.7	10961.7
753.51	733.1	10699.8	10699.8
753.61	733	10677.6	10677.6
753.71	732.9	10631.7	10631.7
753.81	732.8	10832.4	10832.4
753.91	732.7	10636	10636
754.01	732.6	10760.6	10760.6
754.11	732.5	10889.1	10889.1
754.21	732.4	10724.2	10724.2
754.31	732.3	10607.1	10607.1
754.41	732.2	10603.8	10603.8
754.51	732.1	10759.8	10759.8
754.61	732	10687	10687
754.71	731.9	10656.2	10656.2
754.81	731.8	10604.3	10604.3
754.91	731.7	10672.3	10672.3
755.01	731.6	10797.3	10797.3
755.11	731.5	10728	10728
755.21	731.4	10814.2	10814.2
755.31	731.3	10817.2	10817.2
755.41	731.2	10740.3	10740.3
755.51	731.1	10750.1	10750.1
755.61	731	10801.1	10801.1
755.71	730.9	10621	10621
755.81	730.8	10761.1	10761.1
755.91	730.7	10607.3	10607.3
756.01	730.6	10862.8	10862.8
756.11	730.5	10802.4	10802.4
756.21	730.4	10828.7	10828.7
756.31	730.3	10788.2	10788.2
756.41	730.2	10674.4	10674.4
756.51	730.1	10708.3	10708.3
756.61	730	10801.3	10801.3
756.71	729.9	10869.1	10869.1
756.81	729.8	10885.8	10885.8
756.91	729.7	10800.8	10800.8
757.01	729.6	10823.3	10823.3
757.11	729.5	10867.1	10867.1
757.21	729.4	10694.4	10694.4
757.31	729.3	10558	10558
757.41	729.2	10756.5	10756.5
757.51	729.1	10843.7	10843.7
757.61	729	10985.8	10985.8
757.71	728.9	10829.8	10829.8
757.81	728.8	10757.6	10757.6
757.91	728.7	10923.3	10923.3
758.01	728.6	10840.1	10840.1
758.11	728.5	10748.2	10748.2
758.21	728.4	10780.9	10780.9
758.31	728.3	10926.1	10926.1
758.41	728.2	10794.3	10794.3
758.51	728.1	10981.7	10981.7
758.61	728	10972.3	10972.3
758.71	727.9	10956.4	10956.4
758.81	727.8	10827.5	10827.5
758.91	727.7	10953.3	10953.3
759.01	727.6	10798.3	10798.3
759.11	727.5	11075.2	11075.2
759.21	727.4	10852.1	10852.1
759.31	727.3	11095.6	11095.6
759.41	727.2	10992	10992
759.51	727.1	10961	10961
759.61	727	10924.6	10924.6
759.71	726.9	11158.5	11158.5
759.81	726.8	11127	11127
759.91	726.7	11129.2	11129.2
760.01	726.6	10968.1	10968.1
760.11	726.5	11048.2	11048.2
760.21	726.4	11199.2	11199.2
760.31	726.3	11188	11188
760.41	726.2	11017.3	11017.3
760.51	726.1	11223	11223
760.61	726	11029.7	11029.7
760.71	725.9	10913.6	10913.6
760.81	725.8	11130.3	11130.3
760.91	725.7	11292.9	11292.9
761.01	725.6	11191.1	11191.1
761.11	725.5	11148.8	11148.8
761.21	725.4	11226.2	11226.2
761.31	725.3	11257.1	11257.1
761.41	725.2	11115.3	11115.3
761.51	725.1	11186.1	11186.1
761.61	725	11139	11139
761.71	724.9	11200.4	11200.4
761.81	724.8	11368.2	11368.2
761.91	724.7	11299.8	11299.8
762.01	724.6	11271.4	11271.4
762.11	724.5	11267.2	11267.2
762.21	724.4	11383.9	11383.9
762.31	724.3	11441.3	11441.3
762.41	724.2	11222.9	11222.9
762.51	724.1	11516.8	11516.8
762.61	724	11502.7	11502.7
762.71	723.9	11675.3	11675.3
762.81	723.8	11534.7	11534.7
762.91	723.7	11546.4	11546.4
763.01	723.6	11614.1	11614.1
763.11	723.5	11595.8	11595.8
763.21	723.4	11545	11545
763.31	723.3	11512.1	11512.1
763.41	723.2	11549.6	11549.6
763.51	723.1	11543.4	11543.4
763.61	723	11538.9	11538.9
763.71	722.9	11595	11595
763.81	722.8	11819	11819
763.91	722.7	11852.4	11852.4
764.01	722.6	11761.9	11761.9
764.11	722.5	11725.8	11725.8
764.21	722.4	11813.5	11813.5
764.31	722.3	11722.5	11722.5
764.41	722.2	11875.1	11875.1
764.51	722.1	11977.6	11977.6
764.61	722	11884.4	11884.4
764.71	721.9	11838.4	11838.4
764.81	721.8	11923.4	11923.4
764.91	721.7	12106.2	12106.2
765.01	721.6	11940	11940
765.11	721.5	11782.6	11782.6
765.21	721.4	11934.5	11934.5
765.31	721.3	12106.6	12106.6
765.41	721.2	12242.3	12242.3
765.51	721.1	12246.6	12246.6
765.61	721	11997.8	11997.8
765.71	720.9	12004.8	12004.8
765.81	720.8	12196.5	12196.5
765.91	720.7	12102.3	12102.3
766.01	720.6	12220	12220
766.11	720.5	12100	12100
766.21	720.4	12067.8	12067.8
766.31	720.3	12172.2	12172.2
766.41	720.2	12139.1	12139.1
766.51	720.1	12184.6	12184.6
766.61	720	12226.5	12226.5
766.71	719.9	12278.2	12278.2
766.81	719.8	12408	12408
766.91	719.7	12209.4	12209.4
767.01	719.6	12269.2	12269.2
767.11	719.5	12198.1	12198.1
767.21	719.4	12325.8	12325.8
767.31	719.3	12507.3	12507.3
767.41	719.2	12309.4	12309.4
767.51	719.1	12132.8	12132.8
767.61	719	12235.8	12235.8
767.71	718.9	12349.9	12349.9
767.81	718.8	12465.3	12465.3
767.91	718.7	12487.8	12487.8
768.01	718.6	12296.7	12296.7
768.11	718.5	12329.8	12329.8
768.21	718.4	12263	12263
768.31	718.3	12091.5	12091.5
768.41	718.2	12189.5	12189.5
768.51	718.1	12201.3	12201.3
768.61	718	12191.5	12191.5
768.71	717.9	12161.4	12161.4
768.81	717.8	12037.2	12037.2
768.91	717.7	12081.3	12081.3
769.01	717.6	12060.6	12060.6
769.11	717.5	12141.2	12141.2
769.21	717.4	11971.7	11971.7
769.31	717.3	12051.5	12051.5
769.41	717.2	12104.9	12104.9
769.51	717.1	12063.7	12063.7
769.61	717	11973.8	11973.8
769.71	716.9	12088.9	12088.9
769.81	716.8	11906.1	11906.1
769.91	716.7	11661.4	11661.4
770.01	716.6	11967.7	11967.7
770.11	716.5	11787.4	11787.4
770.21	716.4	11822.1	11822.1
770.31	716.3	11852.9	11852.9
770.41	716.2	11740	11740
770.51	716.1	11721.7	11721.7
770.61	716	11681.5	11681.5
770.71	715.9	11436.3	11436.3
770.81	715.8	11544.8	11544.8
770.91	715.7	11647.1	11647.1
771.01	715.6	11701.6	11701.6
771.11	715.5	11589.5	11589.5
771.21	715.4	11329.7	11329.7
771.31	715.3	11450.3	11450.3
771.41	715.2	11320.5	11320.5
771.51	715.1	11402.2	11402.2
771.61	715	11364.1	11364.1
771.71	714.9	11285.3	11285.3
771.81	714.8	11271.7	11271.7
771.91	714.7	11270.8	11270.8
772.01	714.6	11235.1	11235.1
772.11	714.5	11149.3	11149.3
772.21	714.4	11157.7	11157.7
772.31	714.3	11087.6	11087.6
772.41	714.2	11268.1	11268.1
772.51	714.1	11390.5	11390.5
772.61	714	11322.7	11322.7
772.71	713.9	11098.3	11098.3
772.81	713.8	11012	11012
772.91	713.7	11000.6	11000.6
773.01	713.6	10986.7	10986.7
773.11	713.5	11115.7	11115.7
773.21	713.4	11070.1	11070.1
773.31	713.3	10944.1	10944.1
773.41	713.2	11035.9	11035.9
773.51	713.1	11022.2	11022.2
773.61	713	10987.2	10987.2
773.71	712.9	10914.8	10914.8
773.81	712.8	11037	11037
773.91	712.7	11029.1	11029.1
774.01	712.6	10840.7	10840.7
774.11	712.5	10815.1	10815.1
774.21	712.4	10801.7	10801.7
774.31	712.3	10816.1	10816.1
774.41	712.2	10815.3	10815.3
774.51	712.1	10663.8	10663.8
774.61	712	10776.1	10776.1
774.71	711.9	10570.9	10570.9
774.81	711.8	10722.1	10722.1
774.91	711.7	10741.2	10741.2
775.01	711.6	10845.9	10845.9
775.11	711.5	10864.7	10864.7
775.21	711.4	10846	10846
775.31	711.3	10924.4	10924.4
775.41	711.2	10641.3	10641.3
775.51	711.1	10654.5	10654.5
775.61	711	10532.7	10532.7
775.71	710.9	10511.5	10511.5
775.81	710.8	10755.5	10755.5
775.91	710.7	10677.7	10677.7
776.01	710.6	10738.2	10738.2
776.11	710.5	10697.5	10697.5
776.21	710.4	10665.3	10665.3
776.31	710.3	10626.8	10626.8
776.41	710.2	10640.7	10640.7
776.51	710.1	10581.7	10581.7
776.61	710	10564.8	10564.8
776.71	709.9	10635	10635
776.81	709.8	10761	10761
776.91	709.7	10687.3	10687.3
777.01	709.6	10744.3	10744.3
777.11	709.5	10691.7	10691.7
777.21	709.4	10607.9	10607.9
777.31	709.3	10491.2	10491.2
777.41	709.2	10545.2	10545.2
777.51	709.1	10549.4	10549.4
777.61	709	10461.4	10461.4
777.71	708.9	10337.1	10337.1
777.81	708.8	10305.9	10305.9
777.91	708.7	10554.1	10554.1
778.01	708.6	10553.3	10553.3
778.11	708.5	10568.9	10568.9
778.21	708.4	10502.1	10502.1
778.31	708.3	10616.7	10616.7
778.41	708.2	10463.1	10463.1
778.51	708.1	10507.4	10507.4
778.61	708	10589.1	10589.1
778.71	707.9	10245.2	10245.2
778.81	707.8	10187.4	10187.4
778.91	707.7	10425.2	10425.2
779.01	707.6	10404.7	10404.7
779.11	707.5	10431	10431
779.21	707.4	10364.8	10364.8
779.31	707.3	10544.3	10544.3
779.41	707.2	10422.6	10422.6
779.51	707.1	10394.6	10394.6
779.61	707	10404.5	10404.5
779.71	706.9	10295.2	10295.2
779.81	706.8	10478.4	10478.4
779.91	706.7	10403.9	10403.9
780.01	706.6	10339.7	10339.7
780.11	706.5	10432	10432
780.21	706.4	10358.7	10358.7
780.31	706.3	10318.9	10318.9
780.41	706.2	10259.9	10259.9
780.51	706.1	10175.7	10175.7
780.61	706	10248	10248
780.71	705.9	10309.7	10309.7
780.81	705.8	10351.1	10351.1
780.91	705.7	10363.2	10363.2
781.01	705.6	10289	10289
781.11	705.5	10311.8	10311.8
781.21	705.4	10447.7	10447.7
781.31	705.3	10289.9	10289.9
781.41	705.2	10474.8	10474.8
781.51	705.1	10438.7	10438.7
781.61	705	10366.9	10366.9
781.71	704.9	10503.8	10503.8
781.81	704.8	10311.3	10311.3
781.91	704.7	10280.1	10280.1
782.01	704.6	10167.7	10167.7
782.11	704.5	10337.3	10337.3
782.21	704.4	10256.7	10256.7
782.31	704.3	10287.8	10287.8
782.41	704.2	10452.5	10452.5
782.51	704.1	10411.6	10411.6
782.61	704	10302.9	10302.9
782.71	703.9	10190.3	10190.3
782.81	703.8	10321.1	10321.1
782.91	703.7	10321.4	10321.4
783.01	703.6	10372.7	10372.7
783.11	703.5	10466.7	10466.7
783.21	703.4	10428.5	10428.5
783.31	703.3	10305.6	10305.6
783.41	703.2	10319.4	10319.4
783.51	703.1	10282	10282
783.61	703	10598.4	10598.4
783.71	702.9	10494.8	10494.8
783.81	702.8	10386.1	10386.1
783.91	702.7	10396.3	10396.3
784.01	702.6	10295.4	10295.4
784.11	702.5	10235.2	10235.2
784.21	702.4	10320	10320
784.31	702.3	10613.8	10613.8
784.41	702.2	10346.5	10346.5
784.51	702.1	10497.2	10497.2
784.61	702	10429.5	10429.5
784.71	701.9	10356.6	10356.6
784.81	701.8	10427.5	10427.5
784.91	701.7	10274.7	10274.7
785.01	701.6	10303.4	10303.4
785.11	701.5	10324.6	10324.6
785.21	701.4	10211.3	10211.3
785.31	701.3	10416.3	10416.3
785.41	701.2	10477.7	10477.7
785.51	701.1	10404.1	10404.1
785.61	701	10456.5	10456.5
785.71	700.9	10373.6	10373.6
785.81	700.8	10354.5	10354.5
785.91	700.7	10491.7	10491.7
786.01	700.6	10212.1	10212.1
786.11	700.5	10229.8	10229.8
786.21	700.4	10262.8	10262.8
786.31	700.3	10258.6	10258.6
786.41	700.2	10436.6	10436.6
786.51	700.1	10351.7	10351.7
786.61	700	10298.6	10298.6
786.71	699.9	10374.9	10374.9
786.81	699.8	10219.7	10219.7
786.91	699.7	10410.5	10410.5
787.01	699.6	10304.7	10304.7
787.11	699.5	10224.5	10224.5
787.21	699.4	10343.8	10343.8
787.31	699.3	10474.5	10474.5
787.41	699.2	10309.8	10309.8
787.51	699.1	10322.3	10322.3
787.61	699	10398.9	10398.9
787.71	698.9	10319.5	10319.5
787.81	698.8	10324.5	10324.5
787.91	698.7	10246.6	10246.6
788.01	698.6	10232.1	10232.1
788.11	698.5	10401.3	10401.3
788.21	698.4	10298.6	10298.6
788.31	698.3	10243	10243
788.41	698.2	10278.5	10278.5
788.51	698.1	10238.9	10238.9
788.61	698	10369.1	10369.1
788.71	697.9	10186.9	10186.9
788.81	697.8	10268.4	10268.4
788.91	697.7	10246.7	10246.7
789.01	697.6	10255.3	10255.3
789.11	697.5	10365.7	10365.7
789.21	697.4	10291.8	10291.8
789.31	697.3	10152	10152
789.41	697.2	10311.5	10311.5
789.51	697.1	10491.6	10491.6
789.61	697	10393.9	10393.9
789.71	696.9	10325.8	10325.8
789.81	696.8	10369.8	10369.8
789.91	696.7	10411.6	10411.6
790.01	696.6	10342	10342
790.11	696.5	10357.9	10357.9
790.21	696.4	10270.2	10270.2
790.31	696.3	10255.9	10255.9
790.41	696.2	10332.3	10332.3
790.51	696.1	10518.5	10518.5
790.61	696	10363.3	10363.3
790.71	695.9	10314.3	10314.3
790.81	695.8	10285.6	10285.6
790.91	695.7	10311.9	10311.9
791.01	695.6	10232.6	10232.6
791.11	695.5	10238.3	10238.3
791.21	695.4	10493.9	10493.9
791.31	695.3	10300.8	10300.8
791.41	695.2	10357.7	10357.7
791.51	695.1	10230.4	10230.4
791.61	695	10222.8	10222.8
791.71	694.9	10402.9	10402.9
791.81	694.8	10305.4	10305.4
791.91	694.7	10312.1	10312.1
792.01	694.6	10297.3	10297.3
792.11	694.5	10380.1	10380.1
792.21	694.4	10333.9	10333.9
792.31	694.3	10238.3	10238.3
792.41	694.2	10310.5	10310.5
792.51	694.1	10289.6	10289.6
792.61	694	10365.2	10365.2
792.71	693.9	10294.5	10294.5
792.81	693.8	10276.1	10276.1
792.91	693.7	10213.2	10213.2
793.01	693.6	10315.2	10315.2
793.11	693.5	10514.2	10514.2
793.21	693.4	10377.2	10377.2
793.31	693.3	10121.9	10121.9
793.41	693.2	10315	10315
793.51	693.1	10328.7	10328.7
793.61	693	10389.9	10389.9
793.71	692.9	10527.7	10527.7
793.81	692.8	10515.5	10515.5
793.91	692.7	10369.1	10369.1
794.01	692.6	10329.5	10329.5
794.11	692.5	10438.4	10438.4
794.21	692.4	10451.3	10451.3
794.31	692.3	10385.5	10385.5
794.41	692.2	10535.8	10535.8
794.51	692.1	10418	10418
794.61	692	10412.7	10412.7
794.71	691.9	10298.8	10298.8
794.81	691.8	10326.7	10326.7
794.91	691.7	10482.6	10482.6
795.01	691.6	10323.1	10323.1
795.11	691.5	10382.9	10382.9
795.21	691.4	10314.8	10314.8
795.31	691.3	10342.9	10342.9
795.41	691.2	10295.3	10295.3
795.51	691.1	10392.9	10392.9
795.61	691	10359.2	10359.2
795.71	690.9	10483.7	10483.7
795.81	690.8	10525.1	10525.1
795.91	690.7	10260.8	10260.8
796.01	690.6	10285.1	10285.1
796.11	690.5	10354.2	10354.2
796.21	690.4	10137.1	10137.1
796.31	690.3	10443.5	10443.5
796.41	690.2	10497.3	10497.3
796.51	690.1	10318.7	10318.7
796.61	690	10439	10439
796.71	689.9	10439.2	10439.2
796.81	689.8	10282.1	10282.1
796.91	689.7	10478.3	10478.3
797.01	689.6	10324.5	10324.5
797.11	689.5	10424.9	10424.9
797.21	689.4	10503.2	10503.2
797.31	689.3	10638	10638
797.41	689.2	10362.3	10362.3
797.51	689.1	10355.9	10355.9
797.61	689	10408.2	10408.2
797.71	688.9	10452.5	10452.5
797.81	688.8	10546.2	10546.2
797.91	688.7	10477.9	10477.9
798.01	688.6	10626.4	10626.4
798.11	688.5	10339.7	10339.7
798.21	688.4	10626.2	10626.2
798.31	688.3	10521.1	10521.1
798.41	688.2	10580.7	10580.7
798.51	688.1	10287	10287
798.61	688	10482.7	10482.7
798.71	687.9	10448.6	10448.6
798.81	687.8	10346.9	10346.9
798.91	687.7	10402.7	10402.7
799.01	687.6	10493.3	10493.3
799.11	687.5	10425.9	10425.9
799.21	687.4	10248.4	10248.4
799.31	687.3	10305.7	10305.7
799.41	687.2	10454.2	10454.2
799.51	687.1	10411.3	10411.3
799.61	687	10191	10191
799.71	686.9	10263.2	10263.2
799.81	686.8	10339.4	10339.4
799.91	686.7	10465	10465
800.01	686.6	10336	10336
800.11	686.5	10360.2	10360.2
800.21	686.4	10444.8	10444.8
800.31	686.3	10503	10503
800.41	686.2	10508.5	10508.5
800.51	686.1	10382.2	10382.2
800.61	686	10465.6	10465.6
800.71	685.9	10424.4	10424.4
800.81	685.8	10366.2	10366.2
800.91	685.7	10297.2	10297.2
801.01	685.6	10504.3	10504.3
801.11	685.5	10514.2	10514.2
801.21	685.4	10632.4	10632.4
801.31	685.3	10431.6	10431.6
801.41	685.2	10444.7	10444.7
801.51	685.1	10487.1	10487.1
801.61	685	10419.4	10419.4
801.71	684.9	10437.2	10437.2
801.81	684.8	10433.1	10433.1
801.91	684.7	10392.6	10392.6
802.01	684.6	10457.8	10457.8
802.11	684.5	10555.4	10555.4
802.21	684.4	10478	10478
802.31	684.3	10456.3	10456.3
802.41	684.2	10614.9	10614.9
802.51	684.1	10651.8	10651.8
802.61	684	10500.2	10500.2
802.71	683.9	10590.2	10590.2
802.81	683.8	10556	10556
802.91	683.7	10260.1	10260.1
803.01	683.6	10514.2	10514.2
803.11	683.5	10386.2	10386.2
803.21	683.4	10316.7	10316.7
803.31	683.3	10384.3	10384.3
803.41	683.2	10519.3	10519.3
803.51	683.1	10432.8	10432.8
803.61	683	10511.6	10511.6
803.71	682.9	10437.8	10437.8
803.81	682.8	10496.5	10496.5
803.91	682.7	10535	10535
804.01	682.6	10496.2	10496.2
804.11	682.5	10560.1	10560.1
804.21	682.4	10509.6	10509.6
804.31	682.3	10452.5	10452.5
804.41	682.2	10426.5	10426.5
804.51	682.1	10531.7	10531.7
804.61	682	10419.6	10419.6
804.71	681.9	10714.8	10714.8
804.81	681.8	10485	10485
804.91	681.7	10588.6	10588.6
805.01	681.6	10596.3	10596.3
805.11	681.5	10555.5	10555.5
805.21	681.4	10495.3	10495.3
805.31	681.3	10683.2	10683.2
805.41	681.2	10576.6	10576.6
805.51	681.1	10562.1	10562.1
805.61	681	10500.6	10500.6
805.71	680.9	10374.8	10374.8
805.81	680.8	10317.7	10317.7
805.91	680.7	10454.9	10454.9
806.01	680.6	10456.2	10456.2
806.11	680.5	10511	10511
806.21	680.4	10483.8	10483.8
806.31	680.3	10463.1	10463.1
806.41	680.2	10473.9	10473.9
806.51	680.1	10548.1	10548.1
806.61	680	10575.5	10575.5
806.71	679.9	10741.3	10741.3
806.81	679.8	10655.9	10655.9
806.91	679.7	10667.4	10667.4
807.01	679.6	10605.5	10605.5
807.11	679.5	10473.8	10473.8
807.21	679.4	10621.7	10621.7
807.31	679.3	10515.5	10515.5
807.41	679.2	10609.3	10609.3
807.51	679.1	10598.8	10598.8
807.61	679	10564.4	10564.4
807.71	678.9	10668	10668
807.81	678.8	10578.1	10578.1
807.91	678.7	10471.7	10471.7
808.01	678.6	10535.6	10535.6
808.11	678.5	10386.3	10386.3
808.21	678.4	10435.2	10435.2
808.31	678.3	10751.1	10751.1
808.41	678.2	10603.2	10603.2
808.51	678.1	10484.7	10484.7
808.61	678	10545	10545
808.71	677.9	10505.9	10505.9
808.81	677.8	10713.3	10713.3
808.91	677.7	10655.6	10655.6
809.01	677.6	10587.6	10587.6
809.11	677.5	10399.7	10399.7
809.21	677.4	10563	10563
809.31	677.3	10594.1	10594.1
809.41	677.2	10442	10442
809.51	677.1	10485.1	10485.1
809.61	677	10540.2	10540.2
809.71	676.9	10588.3	10588.3
809.81	676.8	10609.1	10609.1
809.91	676.7	10678.4	10678.4
810.01	676.6	10579.7	10579.7
810.11	676.5	10560.9	10560.9
810.21	676.4	10682.8	10682.8
810.31	676.3	10711.8	10711.8
810.41	676.2	10653.3	10653.3
810.51	676.1	10599.2	10599.2
810.61	676	10536.1	10536.1
810.71	675.9	10560.5	10560.5
810.81	675.8	10530.5	10530.5
810.91	675.7	10493.5	10493.5
811.01	675.6	10559.6	10559.6
811.11	675.5	10502.1	10502.1
811.21	675.4	10552.5	10552.5
811.31	675.3	10604.9	10604.9
811.41	675.2	10589.6	10589.6
811.51	675.1	10554.2	10554.2
811.61	675	10560.6	10560.6
811.71	674.9	10585.2	10585.2
811.81	674.8	10633	10633
811.91	674.7	10758.8	10758.8
812.01	674.6	10687.2	10687.2
812.11	674.5	10758.8	10758.8
812.21	674.4	10631.9	10631.9
812.31	674.3	10504	10504
812.41	674.2	10470.7	10470.7
812.51	674.1	10613.7	10613.7
812.61	674	10674.5	10674.5
812.71	673.9	10512.6	10512.6
812.81	673.8	10589.4	10589.4
812.91	673.7	10531.2	10531.2
813.01	673.6	10675.4	10675.4
813.11	673.5	10583	10583
813.21	673.4	10687.3	10687.3
813.31	673.3	10635.3	10635.3
813.41	673.2	10700.8	10700.8
813.51	673.1	10682.6	10682.6
813.61	673	10606.2	10606.2
813.71	672.9	10790	10790
813.81	672.8	10604.9	10604.9
813.91	672.7	10691.3	10691.3
814.01	672.6	10739.3	10739.3
814.11	672.5	10622	10622
814.21	672.4	10557.7	10557.7
814.31	672.3	10501.5	10501.5
814.41	672.2	10437.5	10437.5
814.51	672.1	10526.6	10526.6
814.61	672	10530.8	10530.8
814.71	671.9	10644.1	10644.1
814.81	671.8	10591.8	10591.8
814.91	671.7	10558.1	10558.1
815.01	671.6	10712.1	10712.1
815.11	671.5	10688	10688
815.21	671.4	10561.7	10561.7
815.31	671.3	10445.3	10445.3
815.41	671.2	10480.4	10480.4
815.51	671.1	10760.4	10760.4
815.61	671	10876.4	10876.4
815.71	670.9	10707.7	10707.7
815.81	670.8	10484.8	10484.8
815.91	670.7	10612.7	10612.7
816.01	670.6	10476.6	10476.6
816.11	670.5	10510.1	10510.1
816.21	670.4	10624.4	10624.4
816.31	670.3	10440.3	10440.3
816.41	670.2	10488.4	10488.4
816.51	670.1	10504.6	10504.6
816.61	670	10692.7	10692.7
816.71	669.9	10691.3	10691.3
816.81	669.8	10726.9	10726.9
816.91	669.7	10490.8	10490.8
817.01	669.6	10658.7	10658.7
817.11	669.5	10666.4	10666.4
817.21	669.4	10734.8	10734.8
817.31	669.3	10669.2	10669.2
817.41	669.2	10679.6	10679.6
817.51	669.1	10571.3	10571.3
817.61	669	10667.8	10667.8
817.71	668.9	10900.3	10900.3
817.81	668.8	10802.6	10802.6
817.91	668.7	10683.6	10683.6
818.01	668.6	10676.2	10676.2
818.11	668.5	10607.5	10607.5
818.21	668.4	10513.8	10513.8
818.31	668.3	10928.1	10928.1
818.41	668.2	10787.4	10787.4
818.51	668.1	10820.7	10820.7
818.61	668	10757.3	10757.3
818.71	667.9	10608.1	10608.1
818.81	667.8	10636.7	10636.7
818.91	667.7	10710.3	10710.3
819.01	667.6	10679.3	10679.3
819.11	667.5	10728.3	10728.3
819.21	667.4	10876.3	10876.3
819.31	667.3	10580.6	10580.6
819.41	667.2	10671.1	10671.1
819.51	667.1	10651.8	10651.8
819.61	667	10752.8	10752.8
819.71	666.9	10630.8	10630.8
819.81	666.8	10657.8	10657.8
819.91	666.7	10615.3	10615.3
820.01	666.6	10701.1	10701.1
820.11	666.5	10617.7	10617.7
820.21	666.4	10709.1	10709.1
820.31	666.3	10784.9	10784.9
820.41	666.2	10618.2	10618.2
820.51	666.1	10550.7	10550.7
820.61	666	10508.4	10508.4
820.71	665.9	10592.1	10592.1
820.81	665.8	10630.8	10630.8
820.91	665.7	10716.5	10716.5
821.01	665.6	10813.1	10813.1
821.11	665.5	10435.9	10435.9
821.21	665.4	10555.7	10555.7
821.31	665.3	10772.4	10772.4
821.41	665.2	10584.1	10584.1
821.51	665.1	10472.6	10472.6
821.61	665	10652.9	10652.9
821.71	664.9	10773.2	10773.2
821.81	664.8	10596	10596
821.91	664.7	10669.2	10669.2
822.01	664.6	10824.2	10824.2
822.11	664.5	10827.6	10827.6
822.21	664.4	10655.4	10655.4
822.31	664.3	10491.9	10491.9
822.41	664.2	10604.7	10604.7
822.51	664.1	10827	10827
822.61	664	10756.1	10756.1
822.71	663.9	10787.7	10787.7
822.81	663.8	10755.5	10755.5
822.91	663.7	10860.5	10860.5
823.01	663.6	10566.1	10566.1
823.11	663.5	10661.2	10661.2
823.21	663.4	10813	10813
823.31	663.3	10782.9	10782.9
823.41	663.2	10642.1	10642.1
823.51	663.1	10520.3	10520.3
823.61	663	10697.2	10697.2
823.71	662.9	10882.9	10882.9
823.81	662.8	10699.4	10699.4
823.91	662.7	10678.3	10678.3
824.01	662.6	10725.8	10725.8
824.11	662.5	10719	10719
824.21	662.4	10720.4	10720.4
824.31	662.3	10847.2	10847.2
824.41	662.2	10815.1	10815.1
824.51	662.1	10654.4	10654.4
824.61	662	10793.5	10793.5
824.71	661.9	10696.4	10696.4
824.81	661.8	10602.3	10602.3
824.91	661.7	10661.9	10661.9
825.01	661.6	10794.1	10794.1
825.11	661.5	10892.1	10892.1
825.21	661.4	10876.2	10876.2
825.31	661.3	10888.6	10888.6
825.41	661.2	11011.9	11011.9
825.51	661.1	10748.5	10748.5
825.61	661	10845.6	10845.6
825.71	660.9	10796.6	10796.6
825.81	660.8	10622.8	10622.8
825.91	660.7	10704.8	10704.8
826.01	660.6	10707.3	10707.3
826.11	660.5	10852.7	10852.7
826.21	660.4	10871.5	10871.5
826.31	660.3	10701.9	10701.9
826.41	660.2	10795.9	10795.9
826.51	660.1	10878.1	10878.1
826.61	660	10836.4	10836.4
826.71	659.9	10811	10811
826.81	659.8	11007.4	11007.4
826.91	659.7	10945.9	10945.9
827.01	659.6	10788.4	10788.4
827.11	659.5	10911.2	10911.2
827.21	659.4	10934.3	10934.3
827.31	659.3	10725.2	10725.2
827.41	659.2	10842.7	10842.7
827.51	659.1	10796.3	10796.3
827.61	659	11059.1	11059.1
827.71	658.9	10754.4	10754.4
827.81	658.8	10743.8	10743.8
827.91	658.7	10801.4	10801.4
828.01	658.6	10960.9	10960.9
828.11	658.5	10910.5	10910.5
828.21	658.4	10841.7	10841.7
828.31	658.3	10943.2	10943.2
828.41	658.2	10781.5	10781.5
828.51	658.1	11005.3	11005.3
828.61	658	10989.5	10989.5
828.71	657.9	10839.2	10839.2
828.81	657.8	11032.7	11032.7
828.91	657.7	11023.8	11023.8
829.01	657.6	10651.9	10651.9
829.11	657.5	10749.8	10749.8
829.21	657.4	10778.5	10778.5
829.31	657.3	10764.2	10764.2
829.41	657.2	10792	10792
829.51	657.1	10998.4	10998.4
829.61	657	11052.5	11052.5
829.71	656.9	10848.6	10848.6
829.81	656.8	10887.8	10887.8
829.91	656.7	10850.5	10850.5
830.01	656.6	10944.6	10944.6
830.11	656.5	10911.7	10911.7
830.21	656.4	10785	10785
830.31	656.3	10817.4	10817.4
830.41	656.2	10974.5	10974.5
830.51	656.1	10855	10855
830.61	656	11002.8	11002.8
830.71	655.9	10867.9	10867.9
830.81	655.8	10922.1	10922.1
830.91	655.7	11002.4	11002.4
831.01	655.6	11097.7	11097.7
831.11	655.5	10839.8	10839.8
831.21	655.4	10912.1	10912.1
831.31	655.3	10877.7	10877.7
831.41	655.2	11074.1	11074.1
831.51	655.1	10776.8	10776.8
831.61	655	10815.3	10815.3
831.71	654.9	10966.4	10966.4
831.81	654.8	10891.4	10891.4
831.91	654.7	10767.1	10767.1
832.01	654.6	10822.1	10822.1
832.11	654.5	10910.5	10910.5
832.21	654.4	10875	10875
832.31	654.3	10851.7	10851.7
832.41	654.2	10916.1	10916.1
832.51	654.1	10825.1	10825.1
832.61	654	10798.9	10798.9
832.71	653.9	10763	10763
832.81	653.8	11036.9	11036.9
832.91	653.7	11001.1	11001.1
833.01	653.6	10927.7	10927.7
833.11	653.5	11143.6	11143.6
833.21	653.4	11158.7	11158.7
833.31	653.3	11035.6	11035.6
833.41	653.2	11061.1	11061.1
833.51	653.1	10874.4	10874.4
833.61	653	11005.7	11005.7
833.71	652.9	10955.7	10955.7
833.81	652.8	10988.2	10988.2
833.91	652.7	10883.4	10883.4
834.01	652.6	10983.2	10983.2
834.11	652.5	10819.9	10819.9
834.21	652.4	10978.5	10978.5
834.31	652.3	11056.2	11056.2
834.41	652.2	10914.7	10914.7
834.51	652.1	10962.7	10962.7
834.61	652	11023.8	11023.8
834.71	651.9	10828.4	10828.4
834.81	651.8	11037.9	11037.9
834.91	651.7	11107.7	11107.7
835.01	651.6	11034	11034
835.11	651.5	10917.7	10917.7
835.21	651.4	10867	10867
835.31	651.3	10929.6	10929.6
835.41	651.2	11014.6	11014.6
835.51	651.1	11096.7	11096.7
835.61	651	10995.7	10995.7
835.71	650.9	11069.5	11069.5
835.81	650.8	11120.4	11120.4
835.91	650.7	10984.3	10984.3
836.01	650.6	10991.4	10991.4
836.11	650.5	11078.4	11078.4
836.21	650.4	10848.4	10848.4
836.31	650.3	10812.7	10812.7
836.41	650.2	10796.3	10796.3
836.51	650.1	10990.9	10990.9
836.61	650	10719.5	10719.5
836.71	649.9	10821.1	10821.1
836.81	649.8	10936.3	10936.3
836.91	649.7	11059	11059
837.01	649.6	10879.8	10879.8
837.11	649.5	11097.9	11097.9
837.21	649.4	11074.8	11074.8
837.31	649.3	10879.8	10879.8
837.41	649.2	10841.1	10841.1
837.51	649.1	10931.6	10931.6
837.61	649	11028.3	11028.3
837.71	648.9	10953.7	10953.7
837.81	648.8	11018	11018
837.91	648.7	10963.1	10963.1
838.01	648.6	10817.5	10817.5
838.11	648.5	11012.7	11012.7
838.21	648.4	10868.2	10868.2
838.31	648.3	10885	10885
838.41	648.2	10972.8	10972.8
838.51	648.1	10959.5	10959.5
838.61	648	10967.3	10967.3
838.71	647.9	10894.5	10894.5
838.81	647.8	10897.2	10897.2
838.91	647.7	11040.4	11040.4
839.01	647.6	11044.1	11044.1
839.11	647.5	10922.4	10922.4
839.21	647.4	11007.2	11007.2
839.31	647.3	11028.2	11028.2
839.41	647.2	11018.7	11018.7
839.51	647.1	10939.7	10939.7
839.61	647	11086.6	11086.6
839.71	646.9	10822.2	10822.2
839.81	646.8	10894.4	10894.4
839.91	646.7	10947.7	10947.7
840.01	646.6	11085.3	11085.3
840.11	646.5	10975.8	10975.8
840.21	646.4	10898.9	10898.9
840.31	646.3	11037.4	11037.4
840.41	646.2	10911.9	10911.9
840.51	646.1	10961.2	10961.2
840.61	646	11038.2	11038.2
840.71	645.9	11189.1	11189.1
840.81	645.8	10982.8	10982.8
840.91	645.7	10978.2	10978.2
841.01	645.6	11044.4	11044.4
841.11	645.5	11183.9	11183.9
841.21	645.4	10965.8	10965.8
841.31	645.3	10979.3	10979.3
841.41	645.2	11009.9	11009.9
841.51	645.1	11082.2	11082.2
841.61	645	11073.7	11073.7
841.71	644.9	10980.6	10980.6
841.81	644.8	10969.7	10969.7
841.91	644.7	11002.2	11002.2
842.01	644.6	11030.4	11030.4
842.11	644.5	10973.7	10973.7
842.21	644.4	10979.8	10979.8
842.31	644.3	10896.2	10896.2
842.41	644.2	10982.9	10982.9
842.51	644.1	11142.2	11142.2
842.61	644	10993.2	10993.2
842.71	643.9	10917.3	10917.3
842.81	643.8	10893.7	10893.7
842.91	643.7	11001.5	11001.5
843.01	643.6	11048.7	11048.7
843.11	643.5	10987.5	10987.5
843.21	643.4	11133.8	11133.8
843.31	643.3	11198.6	11198.6
843.41	643.2	11213.2	11213.2
843.51	643.1	11238.8	11238.8
843.61	643	11262.6	11262.6
843.71	642.9	11116.2	11116.2
843.81	642.8	11069.9	11069.9
843.91	642.7	11027.9	11027.9
844.01	642.6	11012.5	11012.5
844.11	642.5	11103.5	11103.5
844.21	642.4	10938.3	10938.3
844.31	642.3	11046.4	11046.4
844.41	642.2	11201.7	11201.7
844.51	642.1	11090.9	11090.9
844.61	642	11240	11240
844.71	641.9	11223.7	11223.7
844.81	641.8	11059.8	11059.8
844.91	641.7	11259	11259
845.01	641.6	11213.5	11213.5
845.11	641.5	11173.9	11173.9
845.21	641.4	11198.5	11198.5
845.31	641.3	10934.4	10934.4
845.41	641.2	11129.9	11129.9
845.51	641.1	11053.2	11053.2
845.61	641	11092.7	11092.7
845.71	640.9	11163.5	11163.5
845.81	640.8	11115.3	11115.3
845.91	640.7	11085.8	11085.8
846.01	640.6	11158.4	11158.4
846.11	640.5	10910	10910
846.21	640.4	11075	11075
846.31	640.3	11092.1	11092.1
846.41	640.2	11144.9	11144.9
846.51	640.1	11373.1	11373.1
846.61	640	11102.3	11102.3
846.71	639.9	11128.4	11128.4
846.81	639.8	11196.1	11196.1
846.91	639.7	11190	11190
847.01	639.6	11212.5	11212.5
847.11	639.5	11197.5	11197.5
847.21	639.4	11049.4	11049.4
847.31	639.3	11069.6	11069.6
847.41	639.2	11230.5	11230.5
847.51	639.1	11069.7	11069.7
847.61	639	11154.5	11154.5
847.71	638.9	11262.3	11262.3
847.81	638.8	11282.6	11282.6
847.91	638.7	11345.4	11345.4
848.01	638.6	11205.9	11205.9
848.11	638.5	11176.2	11176.2
848.21	638.4	11131	11131
848.31	638.3	11190.9	11190.9
848.41	638.2	11107.2	11107.2
848.51	638.1	11266.3	11266.3
848.61	638	11297.9	11297.9
848.71	637.9	11250.6	11250.6
848.81	637.8	11069.4	11069.4
848.91	637.7	10902.9	10902.9
849.01	637.6	11321.7	11321.7
849.11	637.5	11222	11222
849.21	637.4	11241.3	11241.3
849.31	637.3	11194.2	11194.2
849.41	637.2	11089.8	11089.8
849.51	637.1	11103.6	11103.6
849.61	637	11302	11302
849.71	636.9	11175.6	11175.6
849.81	636.8	11082.9	11082.9
849.91	636.7	11292.6	11292.6
850.01	636.6	11338.9	11338.9
850.11	636.5	11327.7	11327.7
850.21	636.4	11257.4	11257.4
850.31	636.3	11295.3	11295.3
850.41	636.2	11127.3	11127.3
850.51	636.1	11290.9	11290.9
850.61	636	11256.5	11256.5
850.71	635.9	11302.8	11302.8
850.81	635.8	11302	11302
850.91	635.7	11481	11481
851.01	635.6	11323.9	11323.9
851.11	635.5	11189.8	11189.8
851.21	635.4	11230.8	11230.8
851.31	635.3	11299.4	11299.4
851.41	635.2	11182.7	11182.7
851.51	635.1	11208.9	11208.9
851.61	635	11094.3	11094.3
851.71	634.9	11379.2	11379.2
851.81	634.8	11077.3	11077.3
851.91	634.7	11229.1	11229.1
852.01	634.6	11228.1	11228.1
852.11	634.5	11375.9	11375.9
852.21	634.4	11388	11388
852.31	634.3	11302.6	11302.6
852.41	634.2	11541.5	11541.5
852.51	634.1	11154.9	11154.9
852.61	634	11351.6	11351.6
852.71	633.9	11454.6	11454.6
852.81	633.8	11320.9	11320.9
852.91	633.7	11320.1	11320.1
853.01	633.6	11470.1	11470.1
853.11	633.5	11518.1	11518.1
853.21	633.4	11224.3	11224.3
853.31	633.3	11327.7	11327.7
853.41	633.2	11442.5	11442.5
853.51	633.1	11384.7	11384.7
853.61	633	11480.8	11480.8
853.71	632.9	11514.5	11514.5
853.81	632.8	11442	11442
853.91	632.7	11361.5	11361.5
854.01	632.6	11462.2	11462.2
854.11	632.5	11555.1	11555.1
854.21	632.4	11389.8	11389.8
854.31	632.3	11345.3	11345.3
854.41	632.2	11429.6	11429.6
854.51	632.1	11352.9	11352.9
854.61	632	11372.7	11372.7
854.71	631.9	11445.4	11445.4
854.81	631.8	11268.8	11268.8
854.91	631.7	11129	11129
855.01	631.6	11079.8	11079.8
855.11	631.5	11465.6	11465.6
855.21	631.4	11550.3	11550.3
855.31	631.3	11558.2	11558.2
855.41	631.2	11401	11401
855.51	631.1	11443.4	11443.4
855.61	631	11471.1	11471.1
855.71	630.9	11664	11664
855.81	630.8	11569.4	11569.4
855.91	630.7	11555.7	11555.7
856.01	630.6	11536.8	11536.8
856.11	630.5	11428.2	11428.2
856.21	630.4	11528.8	11528.8
856.31	630.3	11509.8	11509.8
856.41	630.2	11482.4	11482.4
856.51	630.1	11510.4	11510.4
856.61	630	11600.8	11600.8
856.71	629.9	11473.2	11473.2
856.81	629.8	11424.2	11424.2
856.91	629.7	11560.4	11560.4
857.01	629.6	11547.9	11547.9
857.11	629.5	11677.5	11677.5
857.21	629.4	11403.6	11403.6
857.31	629.3	11432.2	11432.2
857.41	629.2	11651.8	11651.8
857.51	629.1	11243.3	11243.3
857.61	629	11637.3	11637.3
857.71	628.9	11642	11642
857.81	628.8	11532.3	11532.3
857.91	628.7	11565.4	11565.4
858.01	628.6	11497.2	11497.2
858.11	628.5	11439.4	11439.4
858.21	628.4	11345.8	11345.8
858.31	628.3	11398	11398
858.41	628.2	11666.8	11666.8
858.51	628.1	11592.5	11592.5
858.61	628	11458.2	11458.2
858.71	627.9	11575.9	11575.9
858.81	627.8	11335.1	11335.1
858.91	627.7	11351.3	11351.3
859.01	627.6	11561.5	11561.5
859.11	627.5	11584.1	11584.1
859.21	627.4	11516	11516
859.31	627.3	11430.2	11430.2
859.41	627.2	11557.5	11557.5
859.51	627.1	11604.4	11604.4
859.61	627	11717.5	11717.5
859.71	626.9	11499	11499
859.81	626.8	11483.8	11483.8
859.91	626.7	11506.3	11506.3
860.01	626.6	11713.5	11713.5
860.11	626.5	11638.8	11638.8
860.21	626.4	11459.6	11459.6
860.31	626.3	11365	11365
860.41	626.2	11312.5	11312.5
860.51	626.1	11615.9	11615.9
860.61	626	11540.6	11540.6
860.71	625.9	11392.8	11392.8
860.81	625.8	11463.2	11463.2
860.91	625.7	11435.3	11435.3
861.01	625.6	11587.9	11587.9
861.11	625.5	11499	11499
861.21	625.4	11633.1	11633.1
861.31	625.3	11659.7	11659.7
861.41	625.2	11624.3	11624.3
861.51	625.1	11589.3	11589.3
861.61	625	11767.6	11767.6
861.71	624.9	11543.4	11543.4
861.81	624.8	11460	11460
861.91	624.7	11419.9	11419.9
862.01	624.6	11498.9	11498.9
862.11	624.5	11406	11406
862.21	624.4	11484.8	11484.8
862.31	624.3	11566.8	11566.8
862.41	624.2	11439.8	11439.8
862.51	624.1	11589.3	11589.3
862.61	624	11668.8	11668.8
862.71	623.9	11558.1	11558.1
862.81	623.8	11566.1	11566.1
862.91	623.7	11724.2	11724.2
863.01	623.6	11533.4	11533.4
863.11	623.5	11607.1	11607.1
863.21	623.4	11665.4	11665.4
863.31	623.3	11599.6	11599.6
863.41	623.2	11642.5	11642.5
863.51	623.1	11725.5	11725.5
863.61	623	11731.2	11731.2
863.71	622.9	11602.3	11602.3
863.81	622.8	11489.6	11489.6
863.91	622.7	11720.1	11720.1
864.01	622.6	11756.4	11756.4
864.11	622.5	11571.2	11571.2
864.21	622.4	11646.5	11646.5
864.31	622.3	11759.3	11759.3
864.41	622.2	11552.3	11552.3
864.51	622.1	11562.8	11562.8
864.61	622	11582.8	11582.8
864.71	621.9	11678.8	11678.8
864.81	621.8	11553.1	11553.1
864.91	621.7	11612.6	11612.6
865.01	621.6	11735.8	11735.8
865.11	621.5	11710.7	11710.7
865.21	621.4	11713.5	11713.5
865.31	621.3	11797.1	11797.1
865.41	621.2	11828.7	11828.7
865.51	621.1	11781.6	11781.6
865.61	621	11510.8	11510.8
865.71	620.9	11579.1	11579.1
865.81	620.8	11891.6	11891.6
865.91	620.7	11784.6	11784.6
866.01	620.6	11555	11555
866.11	620.5	11723.5	11723.5
866.21	620.4	11789.8	11789.8
866.31	620.3	11598.6	11598.6
866.41	620.2	11642.5	11642.5
866.51	620.1	11691.4	11691.4
866.61	620	11735.3	11735.3
866.71	619.9	11661.6	11661.6
866.81	619.8	11592.2	11592.2
866.91	619.7	11657.5	11657.5
867.01	619.6	11609.9	11609.9
867.11	619.5	11929.9	11929.9
867.21	619.4	11790.8	11790.8
867.31	619.3	11816.5	11816.5
867.41	619.2	11648.2	11648.2
867.51	619.1	11623.9	11623.9
867.61	619	11789	11789
867.71	618.9	11883	11883
867.81	618.8	11740.8	11740.8
867.91	618.7	11530.1	11530.1
868.01	618.6	11596	11596
868.11	618.5	11761.1	11761.1
868.21	618.4	11798.2	11798.2
868.31	618.3	11616.5	11616.5
868.41	618.2	11716.3	11716.3
868.51	618.1	11683.8	11683.8
868.61	618	11669.8	11669.8
868.71	617.9	11754.1	11754.1
868.81	617.8	11652.6	11652.6
868.91	617.7	11414.9	11414.9
869.01	617.6	11560.3	11560.3
869.11	617.5	11762.4	11762.4
869.21	617.4	11894.7	11894.7
869.31	617.3	11727.3	11727.3
869.41	617.2	11740.3	11740.3
869.51	617.1	11764	11764
869.61	617	11860.5	11860.5
869.71	616.9	11603.2	11603.2
869.81	616.8	11873.8	11873.8
869.91	616.7	11843.6	11843.6
870.01	616.6	11835.7	11835.7
870.11	616.5	11762.9	11762.9
870.21	616.4	11684.6	11684.6
870.31	616.3	11698.8	11698.8
870.41	616.2	11861.6	11861.6
870.51	616.1	11890.1	11890.1
870.61	616	11791.7	11791.7
870.71	615.9	11722.7	11722.7
870.81	615.8	11679	11679
870.91	615.7	11686.1	11686.1
871.01	615.6	11758.2	11758.2
871.11	615.5	11626.9	11626.9
871.21	615.4	11621.5	11621.5
871.31	615.3	11991.4	11991.4
871.41	615.2	11603.6	11603.6
871.51	615.1	11731.9	11731.9
871.61	615	11913	11913
871.71	614.9	11905.4	11905.4
871.81	614.8	11689.8	11689.8
871.91	614.7	11787.6	11787.6
872.01	614.6	12048.5	12048.5
872.11	614.5	11704.5	11704.5
872.21	614.4	11798.5	11798.5
872.31	614.3	11828.1	11828.1
872.41	614.2	11940	11940
872.51	614.1	11789	11789
872.61	614	11685.5	11685.5
872.71	613.9	11853.3	11853.3
872.81	613.8	11807.4	11807.4
872.91	613.7	12067.3	12067.3
873.01	613.6	11880.3	11880.3
873.11	613.5	11779.5	11779.5
873.21	613.4	11888.8	11888.8
873.31	613.3	11991.5	11991.5
873.41	613.2	12067.1	12067.1
873.51	613.1	12169.5	12169.5
873.61	613	12054.3	12054.3
873.71	612.9	12125	12125
873.81	612.8	11904.5	11904.5
873.91	612.7	11885.9	11885.9
874.01	612.6	11915.7	11915.7
874.11	612.5	12081.2	12081.2
874.21	612.4	11981.8	11981.8
874.31	612.3	12110.3	12110.3
874.41	612.2	12135.7	12135.7
874.51	612.1	12043.8	12043.8
874.61	612	12018.8	12018.8
874.71	611.9	12216.4	12216.4
874.81	611.8	12120.5	12120.5
874.91	611.7	12222.6	12222.6
875.01	611.6	12143.6	12143.6
875.11	611.5	12208.9	12208.9
875.21	611.4	11942.6	11942.6
875.31	611.3	12170.4	12170.4
875.41	611.2	12160.8	12160.8
875.51	611.1	12223.4	12223.4
875.61	611	12275.1	12275.1
875.71	610.9	12125	12125
875.81	610.8	12284.5	12284.5
875.91	610.7	12333.9	12333.9
876.01	610.6	12413.1	12413.1
876.11	610.5	12413	12413
876.21	610.4	12158.4	12158.4
876.31	610.3	12226.3	12226.3
876.41	610.2	12270.7	12270.7
876.51	610.1	12246.4	12246.4
876.61	610	12309.7	12309.7
876.71	609.9	12426.7	12426.7
876.81	609.8	12333.5	12333.5
876.91	609.7	12274.8	12274.8
877.01	609.6	12352.8	12352.8
877.11	609.5	12460.7	12460.7
877.21	609.4	12489.8	12489.8
877.31	609.3	12553.7	12553.7
877.41	609.2	12740.4	12740.4
877.51	609.1	12805.6	12805.6
877.61	609	12778.2	12778.2
877.71	608.9	12731	12731
877.81	608.8	12899.9	12899.9
877.91	608.7	12857.2	12857.2
878.01	608.6	12741	12741
878.11	608.5	12997.3	12997.3
878.21	608.4	12988.1	12988.1
878.31	608.3	12865.9	12865.9
878.41	608.2	13136.5	13136.5
878.51	608.1	12965.7	12965.7
878.61	608	13058.8	13058.8
878.71	607.9	13140.8	13140.8
878.81	607.8	13425.7	13425.7
878.91	607.7	13352.8	13352.8
879.01	607.6	13277.2	13277.2
879.11	607.5	13257.5	13257.5
879.21	607.4	13663	13663
879.31	607.3	13618.1	13618.1
879.41	607.2	13723.4	13723.4
879.51	607.1	13546.4	13546.4
879.61	607	13914.7	13914.7
879.71	606.9	14029.7	14029.7
879.81	606.8	13948.7	13948.7
879.91	606.7	14274.4	14274.4
880.01	606.6	14317.7	14317.7
880.11	606.5	14419.3	14419.3
880.21	606.4	14766.1	14766.1
880.31	606.3	15028.3	15028.3
880.41	606.2	15087.4	15087.4
880.51	606.1	15231.3	15231.3
880.61	606	15569.1	15569.1
880.71	605.9	15940.4	15940.4
880.81	605.8	16308.9	16308.9
880.91	605.7	16547.4	16547.4
881.01	605.6	16734.6	16734.6
881.11	605.5	17393.4	17393.4
881.21	605.4	17809.4	17809.4
881.31	605.3	18108.7	18108.7
881.41	605.2	18602.6	18602.6
881.51	605.1	19118.3	19118.3
881.61	605	19585.7	19585.7
881.71	604.9	19840.9	19840.9
881.81	604.8	20285.4	20285.4
881.91	604.7	20813.6	20813.6
882.01	604.6	21408.6	21408.6
882.11	604.5	21713.4	21713.4
882.21	604.4	22057.7	22057.7
882.31	604.3	22258.1	22258.1
882.41	604.2	22148.1	22148.1
882.51	604.1	22544	22544
882.61	604	22497.1	22497.1
882.71	603.9	22033.4	22033.4
882.81	603.8	21268	21268
882.91	603.7	21465.6	21465.6
883.01	603.6	21216.9	21216.9
883.11	603.5	20582.9	20582.9
883.21	603.4	20474.7	20474.7
883.31	603.3	19843.1	19843.1
883.41	603.2	19171	19171
883.51	603.1	18427	18427
883.61	603	17873.9	17873.9
883.71	602.9	17561.1	17561.1
883.81	602.8	17254.1	17254.1
883.91	602.7	16670.9	16670.9
884.01	602.6	16232.1	16232.1
884.11	602.5	15915.9	15915.9
884.21	602.4	15335.6	15335.6
884.31	602.3	15273	15273
884.41	602.2	15077.1	15077.1
884.51	602.1	14738.6	14738.6
884.61	602	14307.9	14307.9
884.71	601.9	14028	14028
884.81	601.8	14002.9	14002.9
884.91	601.7	13668.9	13668.9
885.01	601.6	13497.2	13497.2
885.11	601.5	13515.7	13515.7
885.21	601.4	13191.2	13191.2
885.31	601.3	13228.7	13228.7
885.41	601.2	13091.5	13091.5
885.51	601.1	12813	12813
885.61	601	12760.5	12760.5
885.71	600.9	12497.3	12497.3
885.81	600.8	12475.5	12475.5
885.91	600.7	12468.7	12468.7
886.01	600.6	12234.8	12234.8
886.11	600.5	12245.4	12245.4
886.21	600.4	12093.3	12093.3
886.31	600.3	12192.1	12192.1
886.41	600.2	12314.4	12314.4
886.51	600.1	12043.2	12043.2
886.61	600	11934.5	11934.5
886.71	599.9	11859.5	11859.5
886.81	599.8	11781.3	11781.3
886.91	599.7	11821	11821
887.01	599.6	11972.7	11972.7
887.11	599.5	11788.8	11788.8
887.21	599.4	11651.5	11651.5
887.31	599.3	11628.3	11628.3
887.41	599.2	11590.2	11590.2
887.51	599.1	11697.4	11697.4
887.61	599	11659.4	11659.4
887.71	598.9	11586.1	11586.1
887.81	598.8	11804.2	11804.2
887.91	598.7	11688.6	11688.6
888.01	598.6	11483.6	11483.6
888.11	598.5	11532.2	11532.2
888.21	598.4	11451.3	11451.3
888.31	598.3	11509.3	11509.3
888.41	598.2	11285.4	11285.4
888.51	598.1	11482	11482
888.61	598	11404.6	11404.6
888.71	597.9	11290.7	11290.7
888.81	597.8	11190.3	11190.3
888.91	597.7	11276.8	11276.8
889.01	597.6	11256.5	11256.5
889.11	597.5	11265.8	11265.8
889.21	597.4	11227.7	11227.7
889.31	597.3	11421.6	11421.6
889.41	597.2	11364.9	11364.9
889.51	597.1	11310.6	11310.6
889.61	597	11091.3	11091.3
889.71	596.9	11218.7	11218.7
889.81	596.8	11130.4	11130.4
889.91	596.7	11365	11365
890.01	596.6	11099.5	11099.5
890.11	596.5	11125.4	11125.4
890.21	596.4	11208.4	11208.4
890.31	596.3	11099.8	11099.8
890.41	596.2	11080.1	11080.1
890.51	596.1	10947.8	10947.8
890.61	596	11049.6	11049.6
890.71	595.9	11059.4	11059.4
890.81	595.8	11204.7	11204.7
890.91	595.7	11022.7	11022.7
891.01	595.6	11043.5	11043.5
891.11	595.5	11029.8	11029.8
891.21	595.4	11064.8	11064.8
891.31	595.3	11176.1	11176.1
891.41	595.2	11109	11109
891.51	595.1	11006.9	11006.9
891.61	595	11113	11113
891.71	594.9	11081.5	11081.5
891.81	594.8	10958.1	10958.1
891.91	594.7	11026.4	11026.4
892.01	594.6	11141.5	11141.5
892.11	594.5	10979.8	10979.8
892.21	594.4	11109.1	11109.1
892.31	594.3	11022.4	11022.4
892.41	594.2	10918.4	10918.4
892.51	594.1	10956.3	10956.3
892.61	594	10878.6	10878.6
892.71	593.9	11113.2	11113.2
892.81	593.8	11209.3	11209.3
892.91	593.7	11104	11104
893.01	593.6	11062.8	11062.8
893.11	593.5	10961.5	10961.5
893.21	593.4	10914.8	10914.8
893.31	593.3	11100.2	11100.2
893.41	593.2	11146.2	11146.2
893.51	593.1	11104.5	11104.5
893.61	593	10978.6	10978.6
893.71	592.9	11061	11061
893.81	592.8	11106.1	11106.1
893.91	592.7	11013.1	11013.1
894.01	592.6	10856.6	10856.6
894.11	592.5	11048.9	11048.9
894.21	592.4	10969	10969
894.31	592.3	11260.1	11260.1
894.41	592.2	11087.4	11087.4
894.51	592.1	10969.8	10969.8
894.61	592	11054.7	11054.7
894.71	591.9	11016.5	11016.5
894.81	591.8	11180.1	11180.1
894.91	591.7	11074.4	11074.4
895.01	591.6	11001	11001
895.11	591.5	10782.1	10782.1
895.21	591.4	10973	10973
895.31	591.3	10998.5	10998.5
895.41	591.2	11082.2	11082.2
895.51	591.1	10951.8	10951.8
895.61	591	11003.8	11003.8
895.71	590.9	10990.7	10990.7
895.81	590.8	11067.8	11067.8
895.91	590.7	11036.2	11036.2
896.01	590.6	10962.8	10962.8
896.11	590.5	11117	11117
896.21	590.4	10948.2	10948.2
896.31	590.3	11084.7	11084.7
896.41	590.2	10812.7	10812.7
896.51	590.1	10987.2	10987.2
896.61	590	11067	11067
896.71	589.9	10947.5	10947.5
896.81	589.8	10927.1	10927.1
896.91	589.7	10980.5	10980.5
897.01	589.6	11005.6	11005.6
897.11	589.5	11092.9	11092.9
897.21	589.4	10989.4	10989.4
897.31	589.3	11053.1	11053.1
897.41	589.2	11121.7	11121.7
897.51	589.1	10979.1	10979.1
897.61	589	11006.7	11006.7
897.71	588.9	11061.2	11061.2
897.81	588.8	11002.4	11002.4
897.91	588.7	11031.3	11031.3
898.01	588.6	10995	10995
898.11	588.5	10947.7	10947.7
898.21	588.4	11213.5	11213.5
898.31	588.3	10892.6	10892.6
898.41	588.2	10854.1	10854.1
898.51	588.1	11036.1	11036.1
898.61	588	10941	10941
898.71	587.9	10969.4	10969.4
898.81	587.8	11036.8	11036.8
898.91	587.7	11050.5	11050.5
899.01	587.6	10705.9	10705.9
899.11	587.5	10973.9	10973.9
899.21	587.4	10889.2	10889.2
899.31	587.3	10760	10760
899.41	587.2	10884.1	10884.1
899.51	587.1	10849.8	10849.8
899.61	587	10777.8	10777.8
899.71	586.9	10932.9	10932.9
899.81	586.8	10912.1	10912.1
899.91	586.7	10919.6	10919.6
900.01	586.6	10792.9	10792.9
900.11	586.5	10959	10959
900.21	586.4	11159.1	11159.1
900.31	586.3	10956.6	10956.6
900.41	586.2	10820.2	10820.2
900.51	586.1	10850.3	10850.3
900.61	586	10893.8	10893.8
900.71	585.9	10854	10854
900.81	585.8	11082.4	11082.4
900.91	585.7	11008.1	11008.1
901.01	585.6	11083	11083
901.11	585.5	10950.3	10950.3
901.21	585.4	11027.9	11027.9
901.31	585.3	11086.4	11086.4
901.41	585.2	11065.5	11065.5
901.51	585.1	11182.8	11182.8
901.61	585	11092.3	11092.3
901.71	584.9	11046.5	11046.5
901.81	584.8	10953.4	10953.4
901.91	584.7	10981.7	10981.7
902.01	584.6	11046.3	11046.3
902.11	584.5	11097.4	11097.4
902.21	584.4	11001.5	11001.5
902.31	584.3	11020.2	11020.2
902.41	584.2	11039	11039
902.51	584.1	10882	10882
902.61	584	10862.6	10862.6
902.71	583.9	11064.2	11064.2
902.81	583.8	10997.5	10997.5
902.91	583.7	10893.7	10893.7
903.01	583.6	11136.3	11136.3
903.11	583.5	11199.9	11199.9
903.21	583.4	11148.3	11148.3
903.31	583.3	11205.3	11205.3
903.41	583.2	11184.4	11184.4
903.51	583.1	11163.6	11163.6
903.61	583	11051.2	11051.2
903.71	582.9	11177.8	11177.8
903.81	582.8	11257.5	11257.5
903.91	582.7	11324.6	11324.6
904.01	582.6	11274.2	11274.2
904.11	582.5	11214.6	11214.6
904.21	582.4	11280.4	11280.4
904.31	582.3	11354.2	11354.2
904.41	582.2	11496.4	11496.4
904.51	582.1	11250.6	11250.6
904.61	582	11397	11397
904.71	581.9	11291.1	11291.1
904.81	581.8	11240.3	11240.3
904.91	581.7	11315.9	11315.9
905.01	581.6	11437.5	11437.5
905.11	581.5	11584.3	11584.3
905.21	581.4	11571.5	11571.5
905.31	581.3	11523.4	11523.4
905.41	581.2	11551.6	11551.6
905.51	581.1	11650.9	11650.9
905.61	581	11532.3	11532.3
905.71	580.9	11587.9	11587.9
905.81	580.8	11544.4	11544.4
905.91	580.7	11620.7	11620.7
906.01	580.6	11559.1	11559.1
906.11	580.5	11669	11669
906.21	580.4	11496.5	11496.5
906.31	580.3	11532	11532
906.41	580.2	11569.7	11569.7
906.51	580.1	11697	11697
906.61	580	11742.9	11742.9
906.71	579.9	11778.8	11778.8
906.81	579.8	11852.4	11852.4
906.91	579.7	11792.2	11792.2
907.01	579.6	11724	11724
907.11	579.5	11747.1	11747.1
907.21	579.4	11881.2	11881.2
907.31	579.3	11844.6	11844.6
907.41	579.2	11819.8	11819.8
907.51	579.1	12030.3	12030.3
907.61	579	12033.9	12033.9
907.71	578.9	11991.7	11991.7
907.81	578.8	12042.5	12042.5
907.91	578.7	12109	12109
908.01	578.6	12059.9	12059.9
908.11	578.5	12394.5	12394.5
908.21	578.4	12322.9	12322.9
908.31	578.3	12323	12323
908.41	578.2	12464.4	12464.4
908.51	578.1	12443.8	12443.8
908.61	578	12744.5	12744.5
908.71	577.9	12703.1	12703.1
908.81	577.8	12941.7	12941.7
908.91	577.7	12918.8	12918.8
909.01	577.6	12781.6	12781.6
909.11	577.5	12995.4	12995.4
909.21	577.4	13050.4	13050.4
909.31	577.3	13373.4	13373.4
909.41	577.2	13485.6	13485.6
909.51	577.1	13393.4	13393.4
909.61	577	13600.6	13600.6
909.71	576.9	13718.8	13718.8
909.81	576.8	13800.1	13800.1
909.91	576.7	13781.6	13781.6
910.01	576.6	13894.8	13894.8
910.11	576.5	14192	14192
910.21	576.4	14253.1	14253.1
910.31	576.3	14526.1	14526.1
910.41	576.2	14922.4	14922.4
910.51	576.1	14957.1	14957.1
910.61	576	14911.6	14911.6
910.71	575.9	15383.4	15383.4
910.81	575.8	15459.6	15459.6
910.91	575.7	15948.9	15948.9
911.01	575.6	16321.4	16321.4
911.11	575.5	16936.7	16936.7
911.21	575.4	17196.7	17196.7
911.31	575.3	17785.9	17785.9
911.41	575.2	18263	18263
911.51	575.1	18800.9	18800.9
911.61	575	19114	19114
911.71	574.9	19797.4	19797.4
911.81	574.8	20771.9	20771.9
911.91	574.7	21192.9	21192.9
912.01	574.6	21955.6	21955.6
912.11	574.5	22828.1	22828.1
912.21	574.4	23503.1	23503.1
912.31	574.3	24609.4	24609.4
912.41	574.2	25292.6	25292.6
912.51	574.1	25992	25992
912.61	574	27165.4	27165.4
912.71	573.9	27989	27989
912.81	573.8	28442.1	28442.1
912.91	573.7	29471.3	29471.3
913.01	573.6	29970.3	29970.3
913.11	573.5	30508.9	30508.9
913.21	573.4	30588.7	30588.7
913.31	573.3	30741.9	30741.9
913.41	573.2	30636.6	30636.6
913.51	573.1	30318.7	30318.7
913.61	573	29997.7	29997.7
913.71	572.9	29727.9	29727.9
913.81	572.8	28750.7	28750.7
913.91	572.7	28102	28102
914.01	572.6	26913.3	26913.3
914.11	572.5	26057.6	26057.6
914.21	572.4	25055.1	25055.1
914.31	572.3	23937.4	23937.4
914.41	572.2	23093.7	23093.7
914.51	572.1	22317.9	22317.9
914.61	572	21254.4	21254.4
914.71	571.9	20330.6	20330.6
914.81	571.8	19677.7	19677.7
914.91	571.7	18740.7	18740.7
915.01	571.6	17988.3	17988.3
915.11	571.5	17343.1	17343.1
915.21	571.4	16804	16804
915.31	571.3	16344.1	16344.1
915.41	571.2	15590.9	15590.9
915.51	571.1	15143.3	15143.3
915.61	571	15009.1	15009.1
915.71	570.9	14347.6	14347.6
915.81	570.8	14058.7	14058.7
915.91	570.7	13480	13480
916.01	570.6	13261.4	13261.4
916.11	570.5	12888.5	12888.5
916.21	570.4	12737.6	12737.6
916.31	570.3	12376.9	12376.9
916.41	570.2	12072.4	12072.4
916.51	570.1	11622.4	11622.4
916.61	570	11502.4	11502.4
916.71	569.9	11312	11312
916.81	569.8	11121.6	11121.6
916.91	569.7	11137.1	11137.1
917.01	569.6	10957.8	10957.8
917.11	569.5	10660.4	10660.4
917.21	569.4	10579.3	10579.3
917.31	569.3	10368.7	10368.7
917.41	569.2	10353.1	10353.1
917.51	569.1	10227.4	10227.4
917.61	569	10065.1	10065.1
917.71	568.9	10066	10066
917.81	568.8	9789.84	9789.84
917.91	568.7	9706.23	9706.23
918.01	568.6	9571	9571
918.11	568.5	9484.1	9484.1
918.21	568.4	9635.64	9635.64
918.31	568.3	9569.36	9569.36
918.41	568.2	9448.76	9448.76
918.51	568.1	9353.36	9353.36
918.61	568	9224.91	9224.91
918.71	567.9	9194.39	9194.39
918.81	567.8	9326.76	9326.76
918.91	567.7	9299.73	9299.73
919.01	567.6	9206.37	9206.37
919.11	567.5	9050.59	9050.59
919.21	567.4	9002	9002
919.31	567.3	8935.06	8935.06
919.41	567.2	8890	8890
919.51	567.1	8826.86	8826.86
919.61	567	8690.67	8690.67
919.71	566.9	8590.59	8590.59
919.81	566.8	8765.36	8765.36
919.91	566.7	8805.14	8805.14
920.01	566.6	8645.71	8645.71
920.11	566.5	8556.24	8556.24
920.21	566.4	8501.34	8501.34
920.31	566.3	8629.21	8629.21
920.41	566.2	8660.86	8660.86
920.51	566.1	8526.79	8526.79
920.61	566	8357.99	8357.99
920.71	565.9	8653.99	8653.99
920.81	565.8	8444.29	8444.29
920.91	565.7	8209.71	8209.71
921.01	565.6	8339.24	8339.24
921.11	565.5	8452.8	8452.8
921.21	565.4	8224.77	8224.77
921.31	565.3	8385.86	8385.86
921.41	565.2	8280.23	8280.23
921.51	565.1	8290.5	8290.5
921.61	565	8171.69	8171.69
921.71	564.9	8166.29	8166.29
921.81	564.8	8181.4	8181.4
921.91	564.7	8344.86	8344.86
922.01	564.6	8238.8	8238.8
922.11	564.5	8445.2	8445.2
922.21	564.4	8233.99	8233.99
922.31	564.3	8288.17	8288.17
922.41	564.2	8213.54	8213.54
922.51	564.1	8233.51	8233.51
922.61	564	8182.44	8182.44
922.71	563.9	8267.26	8267.26
922.81	563.8	8068.06	8068.06
922.91	563.7	8278.74	8278.74
923.01	563.6	8099.33	8099.33
923.11	563.5	8143.53	8143.53
923.21	563.4	8102.89	8102.89
923.31	563.3	8051.94	8051.94
923.41	563.2	7991.53	7991.53
923.51	563.1	8074.03	8074.03
923.61	563	8035.77	8035.77
923.71	562.9	8011.47	8011.47
923.81	562.8	7955.64	7955.64
923.91	562.7	8079.01	8079.01
924.01	562.6	8053.26	8053.26
924.11	562.5	8087.97	8087.97
924.21	562.4	8041.81	8041.81
924.31	562.3	7975.13	7975.13
924.41	562.2	7953.01	7953.01
924.51	562.1	7970.63	7970.63
924.61	562	7894.67	7894.67
924.71	561.9	7931.2	7931.2
924.81	561.8	7966.8	7966.8
924.91	561.7	7878.6	7878.6
925.01	561.6	7853.61	7853.61
925.11	561.5	7761.11	7761.11
925.21	561.4	7776.59	7776.59
925.31	561.3	7811.17	7811.17
925.41	561.2	7735.77	7735.77
925.51	561.1	7930.29	7930.29
925.61	561	7944.07	7944.07
925.71	560.9	7829.3	7829.3
925.81	560.8	7702.4	7702.4
925.91	560.7	7800.46	7800.46
926.01	560.6	7833.8	7833.8
926.11	560.5	7911.39	7911.39
926.21	560.4	7771.11	7771.11
926.31	560.3	7884.63	7884.63
926.41	560.2	7935.03	7935.03
926.51	560.1	7714.17	7714.17
926.61	560	7755.06	7755.06
926.71	559.9	7793.47	7793.47
926.81	559.8	7772.59	7772.59
926.91	559.7	7848.99	7848.99
927.01	559.6	7856.33	7856.33
927.11	559.5	7968.39	7968.39
927.21	559.4	7826.63	7826.63
927.31	559.3	7886.19	7886.19
927.41	559.2	7866.93	7866.93
927.51	559.1	7907.54	7907.54
927.61	559	7898.19	7898.19
927.71	558.9	8023.54	8023.54
927.81	558.8	7914.54	7914.54
927.91	558.7	7799.17	7799.17
928.01	558.6	7836.24	7836.24
928.11	558.5	7869.93	7869.93
928.21	558.4	7807.07	7807.07
928.31	558.3	7865.24	7865.24
928.41	558.2	7803.61	7803.61
928.51	558.1	7709.97	7709.97
928.61	558	7623.06	7623.06
928.71	557.9	7760.17	7760.17
928.81	557.8	7930.93	7930.93
928.91	557.7	7921.34	7921.34
929.01	557.6	7910.97	7910.97
929.11	557.5	7801.59	7801.59
929.21	557.4	7782.69	7782.69
929.31	557.3	7705.69	7705.69
929.41	557.2	7739.11	7739.11
929.51	557.1	7725.24	7725.24
929.61	557	7624.09	7624.09
929.71	556.9	7767.97	7767.97
929.81	556.8	7775.91	7775.91
929.91	556.7	7784.53	7784.53
930.01	556.6	7881.13	7881.13
930.11	556.5	7918.03	7918.03
930.21	556.4	7746.16	7746.16
930.31	556.3	7787.1	7787.1
930.41	556.2	7861.49	7861.49
930.51	556.1	7845	7845
930.61	556	7784.54	7784.54
930.71	555.9	7721.64	7721.64
930.81	555.8	7736.61	7736.61
930.91	555.7	7684.13	7684.13
931.01	555.6	7732.79	7732.79
931.11	555.5	7715.83	7715.83
931.21	555.4	7744.07	7744.07
931.31	555.3	7862.61	7862.61
931.41	555.2	7742.71	7742.71
931.51	555.1	7791.79	7791.79
931.61	555	7793.17	7793.17
931.71	554.9	7848.84	7848.84
931.81	554.8	7819.37	7819.37
931.91	554.7	7787.69	7787.69
932.01	554.6	7675.11	7675.11
932.11	554.5	7720.76	7720.76
932.21	554.4	7666.91	7666.91
932.31	554.3	7708.24	7708.24
932.41	554.2	7837.94	7837.94
932.51	554.1	7835.46	7835.46
932.61	554	7898.63	7898.63
932.71	553.9	7729.73	7729.73
932.81	553.8	7762.49	7762.49
932.91	553.7	7791.41	7791.41
933.01	553.6	7713.4	7713.4
933.11	553.5	7829.4	7829.4
933.21	553.4	7851.93	7851.93
933.31	553.3	7779.36	7779.36
933.41	553.2	7756.31	7756.31
933.51	553.1	7760.01	7760.01
933.61	553	7641.41	7641.41
933.71	552.9	7779.96	7779.96
933.81	552.8	7836.13	7836.13
933.91	552.7	7866.56	7866.56
934.01	552.6	7840.31	7840.31
934.11	552.5	7804.24	7804.24
934.21	552.4	7748.06	7748.06
934.31	552.3	7703.71	7703.71
934.41	552.2	7683.9	7683.9
934.51	552.1	7669.31	7669.31
934.61	552	7662.87	7662.87
934.71	551.9	7615.61	7615.61
934.81	551.8	7748.11	7748.11
934.91	551.7	7627.7	7627.7
935.01	551.6	7620.46	7620.46
935.11	551.5	7686.89	7686.89
935.21	551.4	7641.46	7641.46
935.31	551.3	7566.24	7566.24
935.41	551.2	7670.46	7670.46
935.51	551.1	7841.67	7841.67
935.61	551	7764.86	7764.86
935.71	550.9	7729.67	7729.67
935.81	550.8	7808.77	7808.77
935.91	550.7	7775.26	7775.26
936.01	550.6	7682.84	7682.84
936.11	550.5	7675.67	7675.67
936.21	550.4	7664.34	7664.34
936.31	550.3	7818.57	7818.57
936.41	550.2	7739.74	7739.74
936.51	550.1	7755.24	7755.24
936.61	550	7823.86	7823.86
936.71	549.9	7677.26	7677.26
936.81	549.8	7686.16	7686.16
936.91	549.7	7731.94	7731.94
937.01	549.6	7835.99	7835.99
937.11	549.5	7693.53	7693.53
937.21	549.4	7729.46	7729.46
937.31	549.3	7775.06	7775.06
937.41	549.2	7720.4	7720.4
937.51	549.1	7606.64	7606.64
937.61	549	7664.51	7664.51
937.71	548.9	7724.8	7724.8
937.81	548.8	7852.34	7852.34
937.91	548.7	7741.16	7741.16
938.01	548.6	7776.09	7776.09
938.11	548.5	7866.1	7866.1
938.21	548.4	7802.5	7802.5
938.31	548.3	7698.36	7698.36
938.41	548.2	7715.36	7715.36
938.51	548.1	7715.64	7715.64
938.61	548	7731.27	7731.27
938.71	547.9	7655.7	7655.7
938.81	547.8	7671.44	7671.44
938.91	547.7	7831.06	7831.06
939.01	547.6	7847.44	7847.44
939.11	547.5	7704.67	7704.67
939.21	547.4	7776.84	7776.84
939.31	547.3	7757.37	7757.37
939.41	547.2	7763.51	7763.51
939.51	547.1	7703.33	7703.33
939.61	547	7655.46	7655.46
939.71	546.9	7626.36	7626.36
939.81	546.8	7661.71	7661.71
939.91	546.7	7732.71	7732.71
940.01	546.6	7744.09	7744.09
940.11	546.5	7759.26	7759.26
940.21	546.4	7745.93	7745.93
940.31	546.3	7750.97	7750.97
940.41	546.2	7608.91	7608.91
940.51	546.1	7866.91	7866.91
940.61	546	7772.59	7772.59
940.71	545.9	7727	7727
940.81	545.8	7733.87	7733.87
940.91	545.7	7673.77	7673.77
941.01	545.6	7734.14	7734.14
941.11	545.5	7548.21	7548.21
941.21	545.4	7610.34	7610.34
941.31	545.3	7709.17	7709.17
941.41	545.2	7819.2	7819.2
941.51	545.1	7721.91	7721.91
941.61	545	7770.17	7770.17
941.71	544.9	7756.87	7756.87
941.81	544.8	7704.17	7704.17
941.91	544.7	7752.89	7752.89
942.01	544.6	7502.47	7502.47
942.11	544.5	7742.27	7742.27
942.21	544.4	7709	7709
942.31	544.3	7800.27	7800.27
942.41	544.2	7830.96	7830.96
942.51	544.1	7837.4	7837.4
942.61	544	7805.04	7805.04
942.71	543.9	7773.71	7773.71
942.81	543.8	7569.11	7569.11
942.91	543.7	7671.21	7671.21
943.01	543.6	7769.84	7769.84
943.11	543.5	7756.59	7756.59
943.21	543.4	7844.66	7844.66
943.31	543.3	7723.23	7723.23
943.41	543.2	7801.9	7801.9
943.51	543.1	7820.63	7820.63
943.61	543	7840.2	7840.2
943.71	542.9	7684.6	7684.6
943.81	542.8	7729.1	7729.1
943.91	542.7	7832.07	7832.07
944.01	542.6	7732.59	7732.59
944.11	542.5	7734.11	7734.11
944.21	542.4	7817.96	7817.96
944.31	542.3	7717.51	7717.51
944.41	542.2	7642.3	7642.3
944.51	542.1	7737.64	7737.64
944.61	542	7715.39	7715.39
944.71	541.9	7745.8	7745.8
944.81	541.8	7856.41	7856.41
944.91	541.7	8040.01	8040.01
945.01	541.6	7879.93	7879.93
945.11	541.5	7810.39	7810.39
945.21	541.4	7773.17	7773.17
945.31	541.3	7706.73	7706.73
945.41	541.2	7914.57	7914.57
945.51	541.1	7906.87	7906.87
945.61	541	7696.09	7696.09
945.71	540.9	7934.17	7934.17
945.81	540.8	7869.61	7869.61
945.91	540.7	7657.06	7657.06
946.01	540.6	7704.9	7704.9
946.11	540.5	7802.64	7802.64
946.21	540.4	7859.71	7859.71
946.31	540.3	7860.06	7860.06
946.41	540.2	7805.73	7805.73
946.51	540.1	7713.43	7713.43
946.61	540	7653.8	7653.8
946.71	539.9	7782.23	7782.23
946.81	539.8	7698.76	7698.76
946.91	539.7	7780.09	7780.09
947.01	539.6	7781.76	7781.76
947.11	539.5	7933.57	7933.57
947.21	539.4	7699.89	7699.89
947.31	539.3	7870.11	7870.11
947.41	539.2	7727.9	7727.9
947.51	539.1	7894.19	7894.19
947.61	539	7675.77	7675.77
947.71	538.9	7760.24	7760.24
947.81	538.8	7708.3	7708.3
947.91	538.7	7762.3	7762.3
948.01	538.6	7695.37	7695.37
948.11	538.5	7807.54	7807.54
948.21	538.4	7812.14	7812.14
948.31	538.3	7752.33	7752.33
948.41	538.2	7815.81	7815.81
948.51	538.1	7768.47	7768.47
948.61	538	7711.27	7711.27
948.71	537.9	7879.57	7879.57
948.81	537.8	7855.59	7855.59
948.91	537.7	7919.17	7919.17
949.01	537.6	7968.56	7968.56
949.11	537.5	7966.5	7966.5
949.21	537.4	7893	7893
949.31	537.3	7951.59	7951.59
949.41	537.2	7888.79	7888.79
949.51	537.1	7921.94	7921.94
949.61	537	7944.53	7944.53
949.71	536.9	7869.61	7869.61
949.81	536.8	7971.83	7971.83
949.91	536.7	7853.6	7853.6
950.01	536.6	7948.73	7948.73
950.11	536.5	7743.83	7743.83
950.21	536.4	7986.4	7986.4
950.31	536.3	7851.23	7851.23
950.41	536.2	7834.33	7834.33
950.51	536.1	7802.31	7802.31
950.61	536	7879.13	7879.13
950.71	535.9	7810.21	7810.21
950.81	535.8	7769.13	7769.13
950.91	535.7	7827.47	7827.47
951.01	535.6	7839.6	7839.6
951.11	535.5	7922.99	7922.99
951.21	535.4	7721.24	7721.24
951.31	535.3	7731.91	7731.91
951.41	535.2	7749.11	7749.11
951.51	535.1	7878.51	7878.51
951.61	535	7934.17	7934.17
951.71	534.9	7945.8	7945.8
951.81	534.8	7943.46	7943.46
951.91	534.7	7943.64	7943.64
952.01	534.6	8035.61	8035.61
952.11	534.5	7893.91	7893.91
952.21	534.4	7950.63	7950.63
952.31	534.3	8037.76	8037.76
952.41	534.2	8053.97	8053.97
952.51	534.1	8012.07	8012.07
952.61	534	8190.41	8190.41
952.71	533.9	7950.16	7950.16
952.81	533.8	7917.84	7917.84
952.91	533.7	8061.57	8061.57
953.01	533.6	8004.39	8004.39
953.11	533.5	8071.33	8071.33
953.21	533.4	8013.93	8013.93
953.31	533.3	8009.34	8009.34
953.41	533.2	8130.79	8130.79
953.51	533.1	7947.14	7947.14
953.61	533	8043.81	8043.81
953.71	532.9	8100.27	8100.27
953.81	532.8	8124.17	8124.17
953.91	532.7	8030.49	8030.49
954.01	532.6	8141.47	8141.47
954.11	532.5	8192.19	8192.19
954.21	532.4	8163.76	8163.76
954.31	532.3	8114.34	8114.34
954.41	532.2	8037.53	8037.53
954.51	532.1	8052.69	8052.69
954.61	532	8085.1	8085.1
954.71	531.9	8154.51	8154.51
954.81	531.8	8129.04	8129.04
954.91	531.7	7901.77	7901.77
955.01	531.6	7901.09	7901.09
955.11	531.5	8114.91	8114.91
955.21	531.4	8175.76	8175.76
955.31	531.3	8102.86	8102.86
955.41	531.2	8140.54	8140.54
955.51	531.1	8203.3	8203.3
955.61	531	8393.81	8393.81
955.71	530.9	8260.74	8260.74
955.81	530.8	8245	8245
955.91	530.7	8183.6	8183.6
956.01	530.6	8044.83	8044.83
956.11	530.5	8047.21	8047.21
956.21	530.4	8026.26	8026.26
956.31	530.3	8045.97	8045.97
956.41	530.2	7963.03	7963.03
956.51	530.1	7922.71	7922.71
956.61	530	7773.53	7773.53
956.71	529.9	7733.03	7733.03
956.81	529.8	7893.36	7893.36
956.91	529.7	7869.57	7869.57
957.01	529.6	7854.47	7854.47
957.11	529.5	7899.49	7899.49
957.21	529.4	7939.53	7939.53
957.31	529.3	7850.04	7850.04
957.41	529.2	7725.17	7725.17
957.51	529.1	7705.69	7705.69
957.61	529	7901.53	7901.53
957.71	528.9	7823.13	7823.13
957.81	528.8	7815.47	7815.47
957.91	528.7	7812.94	7812.94
958.01	528.6	7794.01	7794.01
958.11	528.5	7818.69	7818.69
958.21	528.4	7998.56	7998.56
958.31	528.3	7946.93	7946.93
958.41	528.2	7894.11	7894.11
958.51	528.1	7790.74	7790.74
958.61	528	7903.69	7903.69
958.71	527.9	7932.43	7932.43
958.81	527.8	7888.13	7888.13
958.91	527.7	7902.64	7902.64
959.01	527.6	7971.49	7971.49
959.11	527.5	8065.41	8065.41
959.21	527.4	7824.87	7824.87
959.31	527.3	7884.04	7884.04
959.41	527.2	7833.71	7833.71
959.51	527.1	7767.16	7767.16
959.61	527	7862.49	7862.49
959.71	526.9	8045.51	8045.51
959.81	526.8	8015.09	8015.09
959.91	526.7	7946.3	7946.3
960.01	526.6	7978.54	7978.54
960.11	526.5	7877.89	7877.89
960.21	526.4	7870.56	7870.56
960.31	526.3	7961.1	7961.1
960.41	526.2	7859.97	7859.97
960.51	526.1	7890.54	7890.54
960.61	526	7779.07	7779.07
960.71	525.9	7719.57	7719.57
960.81	525.8	7736.83	7736.83
960.91	525.7	7878.2	7878.2
961.01	525.6	7901.63	7901.63
961.11	525.5	7770.43	7770.43
961.21	525.4	7717.41	7717.41
961.31	525.3	7967.64	7967.64
961.41	525.2	7764.8	7764.8
961.51	525.1	7866.69	7866.69
961.61	525	7914.67	7914.67
961.71	524.9	7883.29	7883.29
961.81	524.8	7901.4	7901.4
961.91	524.7	7775.14	7775.14
962.01	524.6	7868.87	7868.87
962.11	524.5	7997.73	7997.73
962.21	524.4	7977.87	7977.87
962.31	524.3	7891.14	7891.14
962.41	524.2	8064.53	8064.53
962.51	524.1	8061.73	8061.73
962.61	524	7893.23	7893.23
962.71	523.9	7899.37	7899.37
962.81	523.8	8040.44	8040.44
962.91	523.7	7929.86	7929.86
963.01	523.6	7986.94	7986.94
963.11	523.5	7931.54	7931.54
963.21	523.4	7823.23	7823.23
963.31	523.3	7856.31	7856.31
963.41	523.2	7856.66	7856.66
963.51	523.1	7933.73	7933.73
963.61	523	8032.46	8032.46
963.71	522.9	7957.39	7957.39
963.81	522.8	7974.91	7974.91
963.91	522.7	7915.69	7915.69
964.01	522.6	7899.26	7899.26
964.11	522.5	8050.07	8050.07
964.21	522.4	8111.23	8111.23
964.31	522.3	7849.37	7849.37
964.41	522.2	7884.57	7884.57
964.51	522.1	7875.37	7875.37
964.61	522	7921.1	7921.1
964.71	521.9	8010.46	8010.46
964.81	521.8	8043.86	8043.86
964.91	521.7	8021.27	8021.27
965.01	521.6	7905.76	7905.76
965.11	521.5	8050.51	8050.51
965.21	521.4	8034.83	8034.83
965.31	521.3	7976.43	7976.43
965.41	521.2	8079.37	8079.37
965.51	521.1	7933.16	7933.16
965.61	521	8063.71	8063.71
965.71	520.9	8043.73	8043.73
965.81	520.8	7988.51	7988.51
965.91	520.7	7993.9	7993.9
966.01	520.6	7917.46	7917.46
966.11	520.5	7919.31	7919.31
966.21	520.4	7865.81	7865.81
966.31	520.3	8059.59	8059.59
966.41	520.2	7876.17	7876.17
966.51	520.1	8161.26	8161.26
966.61	520	7827.63	7827.63
966.71	519.9	8016.5	8016.5
966.81	519.8	7945.13	7945.13
966.91	519.7	8066.39	8066.39
967.01	519.6	8031.54	8031.54
967.11	519.5	8021.9	8021.9
967.21	519.4	8074.94	8074.94
967.31	519.3	8103.41	8103.41
967.41	519.2	8036.43	8036.43
967.51	519.1	8076.71	8076.71
967.61	519	7951.16	7951.16
967.71	518.9	7952	7952
967.81	518.8	7918.43	7918.43
967.91	518.7	7982.46	7982.46
968.01	518.6	8144.6	8144.6
968.11	518.5	8087.43	8087.43
968.21	518.4	7995.47	7995.47
968.31	518.3	8085.84	8085.84
968.41	518.2	8024.81	8024.81
968.51	518.1	7940.14	7940.14
968.61	518	7853.71	7853.71
968.71	517.9	7902	7902
968.81	517.8	7964.07	7964.07
968.91	517.7	8052.91	8052.91
969.01	517.6	8017.69	8017.69
969.11	517.5	8016.43	8016.43
969.21	517.4	8041.33	8041.33
969.31	517.3	7973.47	7973.47
969.41	517.2	8161.6	8161.6
969.51	517.1	7902.97	7902.97
969.61	517	7975.56	7975.56
969.71	516.9	7972.09	7972.09
969.81	516.8	8133.8	8133.8
969.91	516.7	7942.67	7942.67
970.01	516.6	8023	8023
970.11	516.5	7900.86	7900.86
970.21	516.4	7959.24	7959.24
970.31	516.3	7975.44	7975.44
970.41	516.2	8035.39	8035.39
970.51	516.1	8158.76	8158.76
970.61	516	8008.59	8008.59
970.71	515.9	8141.11	8141.11
970.81	515.8	8035.34	8035.34
970.91	515.7	7964.71	7964.71
971.01	515.6	7965.07	7965.07
971.11	515.5	7939.14	7939.14
971.21	515.4	8121.79	8121.79
971.31	515.3	8119.79	8119.79
971.41	515.2	8155.64	8155.64
971.51	515.1	7936.37	7936.37
971.61	515	7879.49	7879.49
971.71	514.9	7957.39	7957.39
971.81	514.8	7915.01	7915.01
971.91	514.7	7804.97	7804.97
972.01	514.6	7990.21	7990.21
972.11	514.5	7940.97	7940.97
972.21	514.4	7986.24	7986.24
972.31	514.3	8111.31	8111.31
972.41	514.2	7925.33	7925.33
972.51	514.1	8110.41	8110.41
972.61	514	8088.77	8088.77
972.71	513.9	8051.69	8051.69
972.81	513.8	8069.24	8069.24
972.91	513.7	8212.56	8212.56
973.01	513.6	8157.53	8157.53
973.11	513.5	8032.66	8032.66
973.21	513.4	7928.57	7928.57
973.31	513.3	8048.11	8048.11
973.41	513.2	8071.07	8071.07
973.51	513.1	8152.63	8152.63
973.61	513	8068.94	8068.94
973.71	512.9	7991.87	7991.87
973.81	512.8	8025.53	8025.53
973.91	512.7	8005.63	8005.63
974.01	512.6	8082.87	8082.87
974.11	512.5	8065.54	8065.54
974.21	512.4	8086.2	8086.2
974.31	512.3	8060.44	8060.44
974.41	512.2	8210.54	8210.54
974.51	512.1	8020.94	8020.94
974.61	512	8145.64	8145.64
974.71	511.9	8113.19	8113.19
974.81	511.8	8092.96	8092.96
974.91	511.7	7941.24	7941.24
975.01	511.6	7955.69	7955.69
975.11	511.5	7880.41	7880.41
975.21	511.4	8276.24	8276.24
975.31	511.3	8048.96	8048.96
975.41	511.2	8050.56	8050.56
975.51	511.1	7943.59	7943.59
975.61	511	7915.2	7915.2
975.71	510.9	7969.16	7969.16
975.81	510.8	8020.93	8020.93
975.91	510.7	8028.03	8028.03
976.01	510.6	8005.34	8005.34
976.11	510.5	8004.7	8004.7
976.21	510.4	8094.01	8094.01
976.31	510.3	7964.11	7964.11
976.41	510.2	7775.27	7775.27
976.51	510.1	8136.21	8136.21
976.61	510	7979.97	7979.97
976.71	509.9	8054.11	8054.11
976.81	509.8	8056.27	8056.27
976.91	509.7	8075.33	8075.33
977.01	509.6	7987.03	7987.03
977.11	509.5	8060.54	8060.54
977.21	509.4	8147.77	8147.77
977.31	509.3	8041.04	8041.04
977.41	509.2	8152.63	8152.63
977.51	509.1	8199.53	8199.53
977.61	509	8297.56	8297.56
977.71	508.9	7984.67	7984.67
977.81	508.8	7910.63	7910.63
977.91	508.7	8051.07	8051.07
978.01	508.6	8211.27	8211.27
978.11	508.5	8128.11	8128.11
978.21	508.4	8155.51	8155.51
978.31	508.3	8313.67	8313.67
978.41	508.2	8193.71	8193.71
978.51	508.1	8188.33	8188.33
978.61	508	8053.17	8053.17
978.71	507.9	8240.74	8240.74
978.81	507.8	8250.36	8250.36
978.91	507.7	8148.14	8148.14
979.01	507.6	8143.3	8143.3
979.11	507.5	8282.3	8282.3
979.21	507.4	8107.7	8107.7
979.31	507.3	8278.16	8278.16
979.41	507.2	8223.26	8223.26
979.51	507.1	8076.86	8076.86
979.61	507	8025.01	8025.01
979.71	506.9	8069.71	8069.71
979.81	506.8	8142.37	8142.37
979.91	506.7	8115	8115
980.01	506.6	8048.93	8048.93
980.11	506.5	8173.7	8173.7
980.21	506.4	8216.63	8216.63
980.31	506.3	8058.7	8058.7
980.41	506.2	8055.9	8055.9
980.51	506.1	8009.44	8009.44
980.61	506	7934.87	7934.87
980.71	505.9	8063.41	8063.41
980.81	505.8	8114.99	8114.99
980.91	505.7	8046.31	8046.31
981.01	505.6	8130.97	8130.97
981.11	505.5	8257.13	8257.13
981.21	505.4	8316.99	8316.99
981.31	505.3	8280.2	8280.2
981.41	505.2	8292.1	8292.1
981.51	505.1	8321.57	8321.57
981.61	505	8263.49	8263.49
981.71	504.9	8207.24	8207.24
981.81	504.8	8093.07	8093.07
981.91	504.7	8152.06	8152.06
982.01	504.6	8179.63	8179.63
982.11	504.5	7990.41	7990.41
982.21	504.4	8204.31	8204.31
982.31	504.3	8197.43	8197.43
982.41	504.2	8114.86	8114.86
982.51	504.1	8266.26	8266.26
982.61	504	8144.6	8144.6
982.71	503.9	8283.7	8283.7
982.81	503.8	8436.93	8436.93
982.91	503.7	8282.47	8282.47
983.01	503.6	8085.87	8085.87
983.11	503.5	8207.97	8207.97
983.21	503.4	8367.63	8367.63
983.31	503.3	8197.46	8197.46
983.41	503.2	8173.44	8173.44
983.51	503.1	8193.21	8193.21
983.61	503	8158.96	8158.96
983.71	502.9	8059.57	8059.57
983.81	502.8	8397.67	8397.67
983.91	502.7	8187.56	8187.56
984.01	502.6	8183.5	8183.5
984.11	502.5	8362.79	8362.79
984.21	502.4	8139.3	8139.3
984.31	502.3	8280.47	8280.47
984.41	502.2	8172.24	8172.24
984.51	502.1	8156.7	8156.7
984.61	502	8255.29	8255.29
984.71	501.9	8140.19	8140.19
984.81	501.8	8166.96	8166.96
984.91	501.7	8204.26	8204.26
985.01	501.6	8263.73	8263.73
985.11	501.5	8286.43	8286.43
985.21	501.4	8151.69	8151.69
985.31	501.3	8137.59	8137.59
985.41	501.2	8323.43	8323.43
985.51	501.1	8371.49	8371.49
985.61	501	8266.2	8266.2
985.71	500.9	8290.99	8290.99
985.81	500.8	8044.6	8044.6
985.91	500.7	8198.61	8198.61
986.01	500.6	8215.43	8215.43
986.11	500.5	8384.24	8384.24
986.21	500.4	8462.44	8462.44
986.31	500.3	8247.97	8247.97
986.41	500.2	8173.4	8173.4
986.51	500.1	8141.04	8141.04
986.61	500	8216.11	8216.11