C:\Users\Mark\ownCloud\Muelheim Group\Projects\Gas phase background\EX340_CEC356_Ag N2 LargeArea.vms
Ag4d
	Characteristic Energy eV	1486.61	Acquisition Time s	2.9
KE_Ag4d	BE_Ag4d	CPS_Ag4d
1346.61	140	975.251
1346.71	139.9	997.823
1346.81	139.8	999.003
1346.91	139.7	1023.67
1347.01	139.6	1020.53
1347.11	139.5	1000.43
1347.21	139.4	984.119
1347.31	139.3	995.697
1347.41	139.2	1006
1347.51	139.1	990.815
1347.61	139	970.188
1347.71	138.9	1012.43
1347.81	138.8	1021.61
1347.91	138.7	973.967
1348.01	138.6	958.808
1348.11	138.5	979.531
1348.21	138.4	1003.33
1348.31	138.3	1006.81
1348.41	138.2	1012.4
1348.51	138.1	1012.89
1348.61	138	1011.65
1348.71	137.9	1006.08
1348.81	137.8	995.637
1348.91	137.7	1003.77
1349.01	137.6	1020.66
1349.11	137.5	1003.25
1349.21	137.4	987.078
1349.31	137.3	1004.72
1349.41	137.2	1015.11
1349.51	137.1	1011.54
1349.61	137	1023.21
1349.71	136.9	1016.82
1349.81	136.8	974.531
1349.91	136.7	1003.02
1350.01	136.6	981.478
1350.11	136.5	1000.32
1350.21	136.4	1000.55
1350.31	136.3	996.657
1350.41	136.2	1006.27
1350.51	136.1	1007.13
1350.61	136	994.177
1350.71	135.9	981.046
1350.81	135.8	1028.19
1350.91	135.7	1012.57
1351.01	135.6	996.183
1351.11	135.5	994.352
1351.21	135.4	1002.05
1351.31	135.3	1008.36
1351.41	135.2	1007.56
1351.51	135.1	1020.69
1351.61	135	1002.79
1351.71	134.9	1004.37
1351.81	134.8	1012.26
1351.91	134.7	990.487
1352.01	134.6	1010.62
1352.11	134.5	1035.15
1352.21	134.4	1032.23
1352.31	134.3	1044.69
1352.41	134.2	1005.81
1352.51	134.1	1002.69
1352.61	134	999.71
1352.71	133.9	1008.99
1352.81	133.8	1003.62
1352.91	133.7	1050.72
1353.01	133.6	1022.56
1353.11	133.5	1014.35
1353.21	133.4	1044.6
1353.31	133.3	1041.4
1353.41	133.2	999.793
1353.51	133.1	1001.05
1353.61	133	998.396
1353.71	132.9	1007.22
1353.81	132.8	997.132
1353.91	132.7	1024.88
1354.01	132.6	1022.73
1354.11	132.5	1012.02
1354.21	132.4	1012.27
1354.31	132.3	1031.18
1354.41	132.2	1031.06
1354.51	132.1	1012.12
1354.61	132	1004.93
1354.71	131.9	1015.68
1354.81	131.8	1031.93
1354.91	131.7	1028.02
1355.01	131.6	1029.32
1355.11	131.5	1027.64
1355.21	131.4	1035.92
1355.31	131.3	1025.73
1355.41	131.2	1011.29
1355.51	131.1	985.96
1355.61	131	1007.49
1355.71	130.9	1018.78
1355.81	130.8	1009.97
1355.91	130.7	1012.48
1356.01	130.6	1004.62
1356.11	130.5	1027.51
1356.21	130.4	1005.14
1356.31	130.3	1039.97
1356.41	130.2	1020.13
1356.51	130.1	1038.47
1356.61	130	1023.24
1356.71	129.9	995.125
1356.81	129.8	996.041
1356.91	129.7	996.014
1357.01	129.6	1009.66
1357.11	129.5	1026.95
1357.21	129.4	1035.99
1357.31	129.3	1021.34
1357.41	129.2	999.928
1357.51	129.1	1028.59
1357.61	129	1055.54
1357.71	128.9	1040
1357.81	128.8	1023.83
1357.91	128.7	1020.52
1358.01	128.6	1023.9
1358.11	128.5	1044.69
1358.21	128.4	1024.82
1358.31	128.3	1018.17
1358.41	128.2	1038.22
1358.51	128.1	1034
1358.61	128	1038.67
1358.71	127.9	1013.84
1358.81	127.8	1016.7
1358.91	127.7	1022.18
1359.01	127.6	1024.83
1359.11	127.5	996.438
1359.21	127.4	1033.69
1359.31	127.3	1014.2
1359.41	127.2	998.898
1359.51	127.1	1031.52
1359.61	127	1061.62
1359.71	126.9	1024.12
1359.81	126.8	1012.29
1359.91	126.7	1031.44
1360.01	126.6	1018.96
1360.11	126.5	1015.58
1360.21	126.4	1010.08
1360.31	126.3	1046.68
1360.41	126.2	1039.54
1360.51	126.1	1000.8
1360.61	126	1030.74
1360.71	125.9	1059.19
1360.81	125.8	1027.72
1360.91	125.7	1019.93
1361.01	125.6	1015.53
1361.11	125.5	1015.32
1361.21	125.4	1020.6
1361.31	125.3	1006.54
1361.41	125.2	1014.26
1361.51	125.1	1008.36
1361.61	125	1037.41
1361.71	124.9	1028.9
1361.81	124.8	1045.39
1361.91	124.7	1046.4
1362.01	124.6	1040.25
1362.11	124.5	1001.51
1362.21	124.4	1041.28
1362.31	124.3	1038.45
1362.41	124.2	1025.13
1362.51	124.1	1012.29
1362.61	124	1010.01
1362.71	123.9	1033.34
1362.81	123.8	1025.81
1362.91	123.7	1058.99
1363.01	123.6	1050.44
1363.11	123.5	1061.44
1363.21	123.4	1024.4
1363.31	123.3	1043.17
1363.41	123.2	1054.53
1363.51	123.1	1034.71
1363.61	123	1033.86
1363.71	122.9	1025.49
1363.81	122.8	1041.9
1363.91	122.7	1036.36
1364.01	122.6	1011.54
1364.11	122.5	1014.95
1364.21	122.4	1006.23
1364.31	122.3	1018.03
1364.41	122.2	1035.88
1364.51	122.1	1064.47
1364.61	122	1066.44
1364.71	121.9	1035.19
1364.81	121.8	1013.27
1364.91	121.7	1048.14
1365.01	121.6	1039.94
1365.11	121.5	1033.82
1365.21	121.4	1047.65
1365.31	121.3	1051.81
1365.41	121.2	1043.5
1365.51	121.1	1056.49
1365.61	121	1033.48
1365.71	120.9	1059.47
1365.81	120.8	1038.87
1365.91	120.7	1037.86
1366.01	120.6	1042.99
1366.11	120.5	1046.44
1366.21	120.4	1046.82
1366.31	120.3	1033.52
1366.41	120.2	1035.7
1366.51	120.1	1030.17
1366.61	120	1032.7
1366.71	119.9	1044.12
1366.81	119.8	1035.96
1366.91	119.7	1025.3
1367.01	119.6	1021.14
1367.11	119.5	1052.92
1367.21	119.4	1048.66
1367.31	119.3	1059.55
1367.41	119.2	1063.2
1367.51	119.1	1073.48
1367.61	119	1054.74
1367.71	118.9	1030.15
1367.81	118.8	1030.99
1367.91	118.7	1047.08
1368.01	118.6	1031.47
1368.11	118.5	1076.06
1368.21	118.4	1023.7
1368.31	118.3	1026.18
1368.41	118.2	1054.65
1368.51	118.1	1077.07
1368.61	118	1088.45
1368.71	117.9	1045.27
1368.81	117.8	1062.18
1368.91	117.7	1030.35
1369.01	117.6	1021.61
1369.11	117.5	1042.9
1369.21	117.4	1058.11
1369.31	117.3	1087.51
1369.41	117.2	1026.07
1369.51	117.1	1050.96
1369.61	117	1059.66
1369.71	116.9	1056.79
1369.81	116.8	1043.77
1369.91	116.7	1054.79
1370.01	116.6	1041.72
1370.11	116.5	1049.59
1370.21	116.4	1028.36
1370.31	116.3	1027.33
1370.41	116.2	1046.2
1370.51	116.1	1055.04
1370.61	116	1071.46
1370.71	115.9	1089.95
1370.81	115.8	1056.33
1370.91	115.7	1046.85
1371.01	115.6	1067.28
1371.11	115.5	1041.34
1371.21	115.4	1049.38
1371.31	115.3	1063.54
1371.41	115.2	1039.01
1371.51	115.1	1029.55
1371.61	115	1032.15
1371.71	114.9	1065.84
1371.81	114.8	1037.56
1371.91	114.7	1059.57
1372.01	114.6	1051.32
1372.11	114.5	1047.95
1372.21	114.4	1018.83
1372.31	114.3	1070.3
1372.41	114.2	1076.99
1372.51	114.1	1016.02
1372.61	114	1067.72
1372.71	113.9	1053.56
1372.81	113.8	1047.49
1372.91	113.7	1063.92
1373.01	113.6	1058.51
1373.11	113.5	1051.77
1373.21	113.4	1062.23
1373.31	113.3	1091.73
1373.41	113.2	1055.97
1373.51	113.1	1046.52
1373.61	113	1058.43
1373.71	112.9	1057.34
1373.81	112.8	1097.26
1373.91	112.7	1065.62
1374.01	112.6	1048.4
1374.11	112.5	1072.04
1374.21	112.4	1044.26
1374.31	112.3	1060.32
1374.41	112.2	1087.18
1374.51	112.1	1077.08
1374.61	112	1060.95
1374.71	111.9	1066.82
1374.81	111.8	1072.87
1374.91	111.7	1078.89
1375.01	111.6	1036.7
1375.11	111.5	1056.21
1375.21	111.4	1078.2
1375.31	111.3	1065.04
1375.41	111.2	1066.32
1375.51	111.1	1070.95
1375.61	111	1073.79
1375.71	110.9	1067.29
1375.81	110.8	1053.11
1375.91	110.7	1043.7
1376.01	110.6	1062.47
1376.11	110.5	1047.96
1376.21	110.4	1062.34
1376.31	110.3	1062.47
1376.41	110.2	1054.14
1376.51	110.1	1064.67
1376.61	110	1062.04
1376.71	109.9	1060.14
1376.81	109.8	1048.97
1376.91	109.7	1079.71
1377.01	109.6	1054.54
1377.11	109.5	1059.13
1377.21	109.4	1088.94
1377.31	109.3	1051.4
1377.41	109.2	1076.7
1377.51	109.1	1034.17
1377.61	109	1040.65
1377.71	108.9	1052.87
1377.81	108.8	1042.92
1377.91	108.7	1048.69
1378.01	108.6	1048.54
1378.11	108.5	1055.4
1378.21	108.4	1054.17
1378.31	108.3	1039.21
1378.41	108.2	1054.01
1378.51	108.1	1063.14
1378.61	108	1076.79
1378.71	107.9	1059.71
1378.81	107.8	1049.52
1378.91	107.7	1046.87
1379.01	107.6	1065.87
1379.11	107.5	1061.25
1379.21	107.4	1061.97
1379.31	107.3	1041.81
1379.41	107.2	1038.92
1379.51	107.1	1009.07
1379.61	107	1023.66
1379.71	106.9	1016.32
1379.81	106.8	1050.63
1379.91	106.7	1055.06
1380.01	106.6	1053.2
1380.11	106.5	1039.72
1380.21	106.4	1032.11
1380.31	106.3	1032.21
1380.41	106.2	1078.56
1380.51	106.1	1060.11
1380.61	106	1016.38
1380.71	105.9	1033.54
1380.81	105.8	1064.93
1380.91	105.7	1046.48
1381.01	105.6	1051.51
1381.11	105.5	1011.84
1381.21	105.4	1055.48
1381.31	105.3	1048.21
1381.41	105.2	1045.85
1381.51	105.1	1026.54
1381.61	105	1039.64
1381.71	104.9	1059.45
1381.81	104.8	1042.08
1381.91	104.7	1039.21
1382.01	104.6	1043.71
1382.11	104.5	1047.88
1382.21	104.4	1022.95
1382.31	104.3	1035.19
1382.41	104.2	1044.85
1382.51	104.1	1045.79
1382.61	104	1037.81
1382.71	103.9	1062.37
1382.81	103.8	1049.93
1382.91	103.7	1046.07
1383.01	103.6	1051.57
1383.11	103.5	1057.45
1383.21	103.4	1049.68
1383.31	103.3	1052.88
1383.41	103.2	1066.39
1383.51	103.1	1070.79
1383.61	103	1041.19
1383.71	102.9	1068.95
1383.81	102.8	1062.7
1383.91	102.7	1073.52
1384.01	102.6	1039.35
1384.11	102.5	1083.18
1384.21	102.4	1076.38
1384.31	102.3	1055.51
1384.41	102.2	1068.91
1384.51	102.1	1098.75
1384.61	102	1073.61
1384.71	101.9	1059.37
1384.81	101.8	1089.57
1384.91	101.7	1101.7
1385.01	101.6	1103.73
1385.11	101.5	1093.78
1385.21	101.4	1084.62
1385.31	101.3	1074.88
1385.41	101.2	1106.77
1385.51	101.1	1095
1385.61	101	1093.6
1385.71	100.9	1100.11
1385.81	100.8	1106.08
1385.91	100.7	1136.31
1386.01	100.6	1092.55
1386.11	100.5	1132.21
1386.21	100.4	1117.36
1386.31	100.3	1104.05
1386.41	100.2	1128.02
1386.51	100.1	1138.97
1386.61	100	1135.48
1386.71	99.9	1142.19
1386.81	99.8	1145.72
1386.91	99.7	1134.16
1387.01	99.6	1162.11
1387.11	99.5	1159.14
1387.21	99.4	1161.57
1387.31	99.3	1137.88
1387.41	99.2	1174.35
1387.51	99.1	1207.58
1387.61	99	1210.25
1387.71	98.9	1174.11
1387.81	98.8	1186.09
1387.91	98.7	1225.86
1388.01	98.6	1221.65
1388.11	98.5	1222.75
1388.21	98.4	1260.49
1388.31	98.3	1255.19
1388.41	98.2	1255.77
1388.51	98.1	1223.45
1388.61	98	1232.39
1388.71	97.9	1261.34
1388.81	97.8	1251.44
1388.91	97.7	1266.56
1389.01	97.6	1293.48
1389.11	97.5	1295.18
1389.21	97.4	1322.61
1389.31	97.3	1289.47
1389.41	97.2	1287.93
1389.51	97.1	1299.75
1389.61	97	1316.24
1389.71	96.9	1298.49
1389.81	96.8	1269.6
1389.91	96.7	1284.3
1390.01	96.6	1284.27
1390.11	96.5	1268.12
1390.21	96.4	1267.88
1390.31	96.3	1284.2
1390.41	96.2	1230.84
1390.51	96.1	1221.61
1390.61	96	1197.92
1390.71	95.9	1205.27
1390.81	95.8	1199.06
1390.91	95.7	1212.04
1391.01	95.6	1192.49
1391.11	95.5	1181.76
1391.21	95.4	1188.14
1391.31	95.3	1184.7
1391.41	95.2	1189.09
1391.51	95.1	1169.7
1391.61	95	1159.69
1391.71	94.9	1154.94
1391.81	94.8	1128.47
1391.91	94.7	1128.7
1392.01	94.6	1112.16
1392.11	94.5	1135.64
1392.21	94.4	1102.74
1392.31	94.3	1094.23
1392.41	94.2	1125.36
1392.51	94.1	1085.54
1392.61	94	1079.1
1392.71	93.9	1049.67
1392.81	93.8	1089.76
1392.91	93.7	1075.97
1393.01	93.6	1062.51
1393.11	93.5	1052.83
1393.21	93.4	1034.3
1393.31	93.3	1030.09
1393.41	93.2	1012.86
1393.51	93.1	1074.68
1393.61	93	1045.96
1393.71	92.9	1029.72
1393.81	92.8	1012.23
1393.91	92.7	1048.39
1394.01	92.6	1047.07
1394.11	92.5	1038.19
1394.21	92.4	1025.13
1394.31	92.3	1045.29
1394.41	92.2	1042.07
1394.51	92.1	1009.71
1394.61	92	1036.22
1394.71	91.9	1022.41
1394.81	91.8	1051.72
1394.91	91.7	1023.89
1395.01	91.6	1043.25
1395.11	91.5	1052.14
1395.21	91.4	1002.28
1395.31	91.3	1016.64
1395.41	91.2	1019.52
1395.51	91.1	1012.51
1395.61	91	1038.07
1395.71	90.9	1019.35
1395.81	90.8	996.423
1395.91	90.7	1023.08
1396.01	90.6	1012.7
1396.11	90.5	1001.29
1396.21	90.4	998.733
1396.31	90.3	1030.85
1396.41	90.2	1007.74
1396.51	90.1	994.572
1396.61	90	989.185
1396.71	89.9	998.576
1396.81	89.8	1015.46
1396.91	89.7	1015.7
1397.01	89.6	984.184
1397.11	89.5	1012.49
1397.21	89.4	1009.36
1397.31	89.3	1012.11
1397.41	89.2	1043.3
1397.51	89.1	1040.06
1397.61	89	996.554
1397.71	88.9	1005.26
1397.81	88.8	1010.15
1397.91	88.7	991.471
1398.01	88.6	1013.04
1398.11	88.5	992.305
1398.21	88.4	1017.66
1398.31	88.3	1015.7
1398.41	88.2	1023.05
1398.51	88.1	1006.55
1398.61	88	1015.54
1398.71	87.9	1042.49
1398.81	87.8	1003.33
1398.91	87.7	1007.5
1399.01	87.6	1025.8
1399.11	87.5	1039.59
1399.21	87.4	993.097
1399.31	87.3	990.291
1399.41	87.2	1011.71
1399.51	87.1	1009.42
1399.61	87	1011.34
1399.71	86.9	992.317
1399.81	86.8	1003.84
1399.91	86.7	1009.29
1400.01	86.6	1018.54
1400.11	86.5	1011.75
1400.21	86.4	1028.69
1400.31	86.3	998.007
1400.41	86.2	1000.04
1400.51	86.1	983.496
1400.61	86	1001.42
1400.71	85.9	1022.98
1400.81	85.8	1005.63
1400.91	85.7	1011.31
1401.01	85.6	1004.99
1401.11	85.5	1018.86
1401.21	85.4	1019.44
1401.31	85.3	1045.69
1401.41	85.2	1020.34
1401.51	85.1	992.046
1401.61	85	1016.22
1401.71	84.9	1001.22
1401.81	84.8	997.98
1401.91	84.7	1007.27
1402.01	84.6	1023.61
1402.11	84.5	1049.27
1402.21	84.4	1006.89
1402.31	84.3	977.477
1402.41	84.2	1018.99
1402.51	84.1	999.777
1402.61	84	1000.69
1402.71	83.9	1002.86
1402.81	83.8	988.002
1402.91	83.7	1004.56
1403.01	83.6	986.817
1403.11	83.5	995.791
1403.21	83.4	1042.71
1403.31	83.3	1022.84
1403.41	83.2	997.144
1403.51	83.1	1007.31
1403.61	83	1000.63
1403.71	82.9	995.299
1403.81	82.8	1007.94
1403.91	82.7	1011.96
1404.01	82.6	1009.41
1404.11	82.5	998.455
1404.21	82.4	1006.89
1404.31	82.3	986.24
1404.41	82.2	981.847
1404.51	82.1	994.123
1404.61	82	1030.43
1404.71	81.9	1014.97
1404.81	81.8	1010.9
1404.91	81.7	1009.78
1405.01	81.6	1003.58
1405.11	81.5	1025.25
1405.21	81.4	996.057
1405.31	81.3	979.281
1405.41	81.2	972.406
1405.51	81.1	1009.84
1405.61	81	1008.77
1405.71	80.9	998.8
1405.81	80.8	1019.16
1405.91	80.7	1012.15
1406.01	80.6	1031.4
1406.11	80.5	1029.05
1406.21	80.4	1012.33
1406.31	80.3	1038.29
1406.41	80.2	1012.93
1406.51	80.1	990.837
1406.61	80	995.33
1406.71	79.9	1003.5
1406.81	79.8	1016.64
1406.91	79.7	1009.37
1407.01	79.6	992.779
1407.11	79.5	1000.13
1407.21	79.4	1010.26
1407.31	79.3	1009.18
1407.41	79.2	1000.48
1407.51	79.1	992.719
1407.61	79	1014.03
1407.71	78.9	997.723
1407.81	78.8	1011.21
1407.91	78.7	1028.35
1408.01	78.6	1031.67
1408.11	78.5	984.684
1408.21	78.4	972.648
1408.31	78.3	1000.6
1408.41	78.2	1014.25
1408.51	78.1	1021.28
1408.61	78	996.677
1408.71	77.9	1006.26
1408.81	77.8	1027.52
1408.91	77.7	1030.74
1409.01	77.6	1007.04
1409.11	77.5	987.461
1409.21	77.4	1003.71
1409.31	77.3	994.068
1409.41	77.2	991.944
1409.51	77.1	1001.01
1409.61	77	1028.55
1409.71	76.9	1012
1409.81	76.8	972.636
1409.91	76.7	989.004
1410.01	76.6	1014.23
1410.11	76.5	1026.29
1410.21	76.4	992.634
1410.31	76.3	977.594
1410.41	76.2	999.863
1410.51	76.1	1012.83
1410.61	76	1008.61
1410.71	75.9	1004.87
1410.81	75.8	1016.66
1410.91	75.7	983.995
1411.01	75.6	1000.65
1411.11	75.5	976.438
1411.21	75.4	954.967
1411.31	75.3	977.55
1411.41	75.2	997.508
1411.51	75.1	992.931
1411.61	75	989.563
1411.71	74.9	1026.98
1411.81	74.8	986.367
1411.91	74.7	980.647
1412.01	74.6	984.768
1412.11	74.5	985.572
1412.21	74.4	1008.18
1412.31	74.3	997.664
1412.41	74.2	990.07
1412.51	74.1	988.925
1412.61	74	989.97
1412.71	73.9	1002.15
1412.81	73.8	990.448
1412.91	73.7	989.454
1413.01	73.6	1012.38
1413.11	73.5	1010.52
1413.21	73.4	990.124
1413.31	73.3	978.222
1413.41	73.2	1004.5
1413.51	73.1	976.387
1413.61	73	996.982
1413.71	72.9	969.141
1413.81	72.8	983.725
1413.91	72.7	976.627
1414.01	72.6	965.479
1414.11	72.5	965.233
1414.21	72.4	986.621
1414.31	72.3	998.819
1414.41	72.2	988.593
1414.51	72.1	993.465
1414.61	72	998.573
1414.71	71.9	995.542
1414.81	71.8	993.2
1414.91	71.7	990.298
1415.01	71.6	995.83
1415.11	71.5	1017.18
1415.21	71.4	993.059
1415.31	71.3	972.437
1415.41	71.2	963.463
1415.51	71.1	980.161
1415.61	71	963.007
1415.71	70.9	986.77
1415.81	70.8	988.946
1415.91	70.7	977.819
1416.01	70.6	972.672
1416.11	70.5	970.494
1416.21	70.4	970.68
1416.31	70.3	980.169
1416.41	70.2	961.112
1416.51	70.1	987.108
1416.61	70	991.904
1416.71	69.9	979.293
1416.81	69.8	1007.64
1416.91	69.7	976.339
1417.01	69.6	977.387
1417.11	69.5	977.199
1417.21	69.4	995.069
1417.31	69.3	989.362
1417.41	69.2	988.191
1417.51	69.1	997.976
1417.61	69	968.845
1417.71	68.9	987.171
1417.81	68.8	995.478
1417.91	68.7	983.321
1418.01	68.6	996.542
1418.11	68.5	967.14
1418.21	68.4	1006.98
1418.31	68.3	986.183
1418.41	68.2	992.054
1418.51	68.1	988.715
1418.61	68	981.064
1418.71	67.9	1004.26
1418.81	67.8	1012.51
1418.91	67.7	985.248
1419.01	67.6	1005.21
1419.11	67.5	1014.32
1419.21	67.4	1011.37
1419.31	67.3	985.783
1419.41	67.2	1022.86
1419.51	67.1	1038.65
1419.61	67	1036.76
1419.71	66.9	1028.22
1419.81	66.8	1026.8
1419.91	66.7	1030.36
1420.01	66.6	1034.45
1420.11	66.5	1026.1
1420.21	66.4	1048.52
1420.31	66.3	1044.3
1420.41	66.2	1041.13
1420.51	66.1	1073.69
1420.61	66	1054.27
1420.71	65.9	1065.4
1420.81	65.8	1044.61
1420.91	65.7	1054.37
1421.01	65.6	1076.35
1421.11	65.5	1082.18
1421.21	65.4	1075.41
1421.31	65.3	1082.85
1421.41	65.2	1071.01
1421.51	65.1	1100.02
1421.61	65	1083.39
1421.71	64.9	1091.54
1421.81	64.8	1096.03
1421.91	64.7	1109.63
1422.01	64.6	1096.08
1422.11	64.5	1110.25
1422.21	64.4	1106.48
1422.31	64.3	1131.37
1422.41	64.2	1119.52
1422.51	64.1	1118.3
1422.61	64	1126.26
1422.71	63.9	1149.44
1422.81	63.8	1136.79
1422.91	63.7	1129.03
1423.01	63.6	1120.88
1423.11	63.5	1134.3
1423.21	63.4	1160.02
1423.31	63.3	1151.34
1423.41	63.2	1168.83
1423.51	63.1	1129.4
1423.61	63	1134.57
1423.71	62.9	1151.42
1423.81	62.8	1132.19
1423.91	62.7	1153.01
1424.01	62.6	1147.5
1424.11	62.5	1165.3
1424.21	62.4	1188.95
1424.31	62.3	1137.9
1424.41	62.2	1158.3
1424.51	62.1	1151.95
1424.61	62	1145.72
1424.71	61.9	1149.58
1424.81	61.8	1147.86
1424.91	61.7	1161.23
1425.01	61.6	1151.78
1425.11	61.5	1179.41
1425.21	61.4	1162.73
1425.31	61.3	1164.3
1425.41	61.2	1183.11
1425.51	61.1	1200.19
1425.61	61	1142.94
1425.71	60.9	1151.28
1425.81	60.8	1158.85
1425.91	60.7	1171.3
1426.01	60.6	1184.13
1426.11	60.5	1166.39
1426.21	60.4	1190.8
1426.31	60.3	1179.05
1426.41	60.2	1190.36
1426.51	60.1	1224.11
1426.61	60	1229.98
1426.71	59.9	1238.74
1426.81	59.8	1212.35
1426.91	59.7	1209.16
1427.01	59.6	1191.52
1427.11	59.5	1201.83
1427.21	59.4	1216.08
1427.31	59.3	1220.52
1427.41	59.2	1238.68
1427.51	59.1	1221.18
1427.61	59	1175.25
1427.71	58.9	1197.02
1427.81	58.8	1199.76
1427.91	58.7	1195.7
1428.01	58.6	1198.86
1428.11	58.5	1227.17
1428.21	58.4	1270.44
1428.31	58.3	1216.94
1428.41	58.2	1214.66
1428.51	58.1	1215.69
1428.61	58	1209.69
1428.71	57.9	1207.48
1428.81	57.8	1205.64
1428.91	57.7	1208.04
1429.01	57.6	1162.46
1429.11	57.5	1172.41
1429.21	57.4	1201.06
1429.31	57.3	1166.12
1429.41	57.2	1169.75
1429.51	57.1	1184.03
1429.61	57	1159.77
1429.71	56.9	1137.75
1429.81	56.8	1114.8
1429.91	56.7	1127.2
1430.01	56.6	1110.86
1430.11	56.5	1126.89
1430.21	56.4	1105.55
1430.31	56.3	1072.94
1430.41	56.2	1066.55
1430.51	56.1	1054.51
1430.61	56	1051.77
1430.71	55.9	1042.84
1430.81	55.8	1008.16
1430.91	55.7	1005.33
1431.01	55.6	987.521
1431.11	55.5	990.453
1431.21	55.4	981.802
1431.31	55.3	923.151
1431.41	55.2	916.293
1431.51	55.1	947.817
1431.61	55	911.037
1431.71	54.9	909.207
1431.81	54.8	910.35
1431.91	54.7	891.248
1432.01	54.6	866.94
1432.11	54.5	862.873
1432.21	54.4	816.401
1432.31	54.3	847.446
1432.41	54.2	859.235
1432.51	54.1	819.85
1432.61	54	807.361
1432.71	53.9	818.475
1432.81	53.8	825.678
1432.91	53.7	822.433
1433.01	53.6	770.542
1433.11	53.5	761.148
1433.21	53.4	740.18
1433.31	53.3	745.771
1433.41	53.2	749.173
1433.51	53.1	750.095
1433.61	53	727.646
1433.71	52.9	695.239
1433.81	52.8	729.835
1433.91	52.7	720.204
1434.01	52.6	724.492
1434.11	52.5	698.033
1434.21	52.4	692.717
1434.31	52.3	696.858
1434.41	52.2	665.255
1434.51	52.1	666.165
1434.61	52	682.168
1434.71	51.9	655.462
1434.81	51.8	661.761
1434.91	51.7	627.993
1435.01	51.6	629.758
1435.11	51.5	622.944
1435.21	51.4	639.879
1435.31	51.3	645.956
1435.41	51.2	635.364
1435.51	51.1	631.254
1435.61	51	614.821
1435.71	50.9	604.558
1435.81	50.8	627.393
1435.91	50.7	603.01
1436.01	50.6	595.983
1436.11	50.5	598.767
1436.21	50.4	604.814
1436.31	50.3	574.546
1436.41	50.2	586.488
1436.51	50.1	574.694
1436.61	50	563.269
1436.71	49.9	570.083
1436.81	49.8	581.571
1436.91	49.7	585.942
1437.01	49.6	582.606
1437.11	49.5	550.958
1437.21	49.4	592.168
1437.31	49.3	569.45
1437.41	49.2	570.896
1437.51	49.1	547.816
1437.61	49	540.604
1437.71	48.9	547.293
1437.81	48.8	559.632
1437.91	48.7	548.919
1438.01	48.6	552.636
1438.11	48.5	545.035
1438.21	48.4	532.797
1438.31	48.3	547.657
1438.41	48.2	532.746
1438.51	48.1	540.602
1438.61	48	545.606
1438.71	47.9	512.876
1438.81	47.8	533.173
1438.91	47.7	523.727
1439.01	47.6	531.481
1439.11	47.5	529.503
1439.21	47.4	526.929
1439.31	47.3	529.331
1439.41	47.2	511.215
1439.51	47.1	525.694
1439.61	47	517.055
1439.71	46.9	511.604
1439.81	46.8	500.424
1439.91	46.7	526.35
1440.01	46.6	517.458
1440.11	46.5	513.529
1440.21	46.4	506.957
1440.31	46.3	508.675
1440.41	46.2	517.4
1440.51	46.1	506.473
1440.61	46	514.138
1440.71	45.9	488.901
1440.81	45.8	500.732
1440.91	45.7	503.305
1441.01	45.6	487.126
1441.11	45.5	484.41
1441.21	45.4	509.188
1441.31	45.3	508.198
1441.41	45.2	517.245
1441.51	45.1	532.217
1441.61	45	527.242
1441.71	44.9	519.825
1441.81	44.8	494.279
1441.91	44.7	499.256
1442.01	44.6	509.735
1442.11	44.5	500.904
1442.21	44.4	493.58
1442.31	44.3	497.117
1442.41	44.2	490.981
1442.51	44.1	506.149
1442.61	44	513.894
1442.71	43.9	509.918
1442.81	43.8	490.923
1442.91	43.7	502.091
1443.01	43.6	501.501
1443.11	43.5	504.948
1443.21	43.4	511.575
1443.31	43.3	508.279
1443.41	43.2	506.46
1443.51	43.1	503.369
1443.61	43	512.428
1443.71	42.9	529.02
1443.81	42.8	507.568
1443.91	42.7	499.042
1444.01	42.6	507.459
1444.11	42.5	494.822
1444.21	42.4	487.7
1444.31	42.3	502.854
1444.41	42.2	490.361
1444.51	42.1	487.655
1444.61	42	499.007
1444.71	41.9	476.173
1444.81	41.8	490.698
1444.91	41.7	481.557
1445.01	41.6	486.749
1445.11	41.5	492.315
1445.21	41.4	487.815
1445.31	41.3	505.647
1445.41	41.2	491.219
1445.51	41.1	499.42
1445.61	41	504.27
1445.71	40.9	487.899
1445.81	40.8	497.037
1445.91	40.7	501.629
1446.01	40.6	513.028
1446.11	40.5	497.666
1446.21	40.4	487.644
1446.31	40.3	503.208
1446.41	40.2	495.227
1446.51	40.1	489.598
1446.61	40	514.33
1446.71	39.9	501.945
1446.81	39.8	487.628
1446.91	39.7	479.088
1447.01	39.6	488.319
1447.11	39.5	497.57
1447.21	39.4	500.995
1447.31	39.3	514.667
1447.41	39.2	525.417
1447.51	39.1	505.069
1447.61	39	511.377
1447.71	38.9	495.859
1447.81	38.8	490.994
1447.91	38.7	492.612
1448.01	38.6	510.878
1448.11	38.5	514.547
1448.21	38.4	504.694
1448.31	38.3	515.51
1448.41	38.2	500.822
1448.51	38.1	511.53
1448.61	38	494.302
1448.71	37.9	495.035
1448.81	37.8	495.871
1448.91	37.7	526.883
1449.01	37.6	528.845
1449.11	37.5	524.7
1449.21	37.4	522.622
1449.31	37.3	524.581
1449.41	37.2	520.102
1449.51	37.1	511.154
1449.61	37	538.446
1449.71	36.9	519.898
1449.81	36.8	518.983
1449.91	36.7	496.361
1450.01	36.6	510.349
1450.11	36.5	493.373
1450.21	36.4	508.665
1450.31	36.3	517.642
1450.41	36.2	516.135
1450.51	36.1	510.987
1450.61	36	530.191
1450.71	35.9	505.922
1450.81	35.8	510.401
1450.91	35.7	516.884
1451.01	35.6	531.532
1451.11	35.5	507.09
1451.21	35.4	530.777
1451.31	35.3	516.797
1451.41	35.2	534.354
1451.51	35.1	531.238
1451.61	35	522.087
1451.71	34.9	567.513
1451.81	34.8	538.03
1451.91	34.7	539.767
1452.01	34.6	517.548
1452.11	34.5	509.924
1452.21	34.4	510.756
1452.31	34.3	550.135
1452.41	34.2	540.28
1452.51	34.1	554.692
1452.61	34	555.011
1452.71	33.9	540.125
1452.81	33.8	538.152
1452.91	33.7	559.833
1453.01	33.6	562.166
1453.11	33.5	562.074
1453.21	33.4	564.329
1453.31	33.3	562.387
1453.41	33.2	575.591
1453.51	33.1	561.15
1453.61	33	560.588
1453.71	32.9	559.847
1453.81	32.8	573.279
1453.91	32.7	559.164
1454.01	32.6	565.388
1454.11	32.5	525.057
1454.21	32.4	549.627
1454.31	32.3	540.869
1454.41	32.2	535.165
1454.51	32.1	536.818
1454.61	32	537.909
1454.71	31.9	534.195
1454.81	31.8	539.004
1454.91	31.7	543.158
1455.01	31.6	543.019
1455.11	31.5	544.224
1455.21	31.4	529.188
1455.31	31.3	510.206
1455.41	31.2	522.271
1455.51	31.1	523.191
1455.61	31	540.889
1455.71	30.9	529.864
1455.81	30.8	503.987
1455.91	30.7	519.352
1456.01	30.6	527.905
1456.11	30.5	526.759
1456.21	30.4	533.345
1456.31	30.3	523.314
1456.41	30.2	504.261
1456.51	30.1	513.242
1456.61	30	505.165
1456.71	29.9	496.546
1456.81	29.8	514.189
1456.91	29.7	528.268
1457.01	29.6	515.626
1457.11	29.5	515.503
1457.21	29.4	520.387
1457.31	29.3	507.167
1457.41	29.2	505.608
1457.51	29.1	510.215
1457.61	29	512.387
1457.71	28.9	510.349
1457.81	28.8	517.25
1457.91	28.7	494.467
1458.01	28.6	505.26
1458.11	28.5	528.227
1458.21	28.4	516.857
1458.31	28.3	519.911
1458.41	28.2	520.111
1458.51	28.1	518.587
1458.61	28	522.773
1458.71	27.9	499.143
1458.81	27.8	497.188
1458.91	27.7	505.323
1459.01	27.6	527.993
1459.11	27.5	508.804
1459.21	27.4	517.807
1459.31	27.3	504.144
1459.41	27.2	495.016
1459.51	27.1	489.958
1459.61	27	482.44
1459.71	26.9	486.288
1459.81	26.8	506.712
1459.91	26.7	496.108
1460.01	26.6	511.318
1460.11	26.5	498.621
1460.21	26.4	500.488
1460.31	26.3	502.903
1460.41	26.2	502.246
1460.51	26.1	503.617
1460.61	26	515.233
1460.71	25.9	527.461
1460.81	25.8	503.936
1460.91	25.7	495.907
1461.01	25.6	516.107
1461.11	25.5	514.194
1461.21	25.4	517.172
1461.31	25.3	503.145
1461.41	25.2	519.09
1461.51	25.1	523.551
1461.61	25	518.014
1461.71	24.9	508.807
1461.81	24.8	510.63
1461.91	24.7	505.995
1462.01	24.6	504.126
1462.11	24.5	529.405
1462.21	24.4	544.251
1462.31	24.3	523.717
1462.41	24.2	527.015
1462.51	24.1	535.388
1462.61	24	526.841
1462.71	23.9	532.173
1462.81	23.8	529.625
1462.91	23.7	548.983
1463.01	23.6	530.855
1463.11	23.5	538.68
1463.21	23.4	531.139
1463.31	23.3	522.91
1463.41	23.2	540.625
1463.51	23.1	529.485
1463.61	23	540.376
1463.71	22.9	539.302
1463.81	22.8	564.402
1463.91	22.7	540.884
1464.01	22.6	531.583
1464.11	22.5	554.369
1464.21	22.4	539.912
1464.31	22.3	544.936
1464.41	22.2	531.517
1464.51	22.1	555.043
1464.61	22	549.76
1464.71	21.9	537.766
1464.81	21.8	555.868
1464.91	21.7	563.392
1465.01	21.6	539.177
1465.11	21.5	545.253
1465.21	21.4	541.577
1465.31	21.3	565.056
1465.41	21.2	564.377
1465.51	21.1	567.846
1465.61	21	595.822
1465.71	20.9	597.631
1465.81	20.8	593.824
1465.91	20.7	603.892
1466.01	20.6	589.397
1466.11	20.5	587.297
1466.21	20.4	574.643
1466.31	20.3	587.595
1466.41	20.2	595.393
1466.51	20.1	615.955
1466.61	20	614.894
1466.71	19.9	625.245
1466.81	19.8	607.865
1466.91	19.7	629.586
1467.01	19.6	612.521
1467.11	19.5	607.455
1467.21	19.4	603.618
1467.31	19.3	589.807
1467.41	19.2	596.047
1467.51	19.1	610.07
1467.61	19	593.988
1467.71	18.9	590.393
1467.81	18.8	600.419
1467.91	18.7	595.5
1468.01	18.6	590.971
1468.11	18.5	612.332
1468.21	18.4	580.977
1468.31	18.3	569.884
1468.41	18.2	559.04
1468.51	18.1	548.013
1468.61	18	548.837
1468.71	17.9	553.404
1468.81	17.8	527.188
1468.91	17.7	510.983
1469.01	17.6	488.417
1469.11	17.5	479.465
1469.21	17.4	496.999
1469.31	17.3	481.772
1469.41	17.2	461.517
1469.51	17.1	451.478
1469.61	17	430.72
1469.71	16.9	413.857
1469.81	16.8	385.749
1469.91	16.7	380.904
1470.01	16.6	355.443
1470.11	16.5	341.602
1470.21	16.4	338.45
1470.31	16.3	339.131
1470.41	16.2	315.72
1470.51	16.1	320.438
1470.61	16	342.685
1470.71	15.9	324.137
1470.81	15.8	308.221
1470.91	15.7	317.325
1471.01	15.6	325.238
1471.11	15.5	324.654
1471.21	15.4	351.027
1471.31	15.3	360.993
1471.41	15.2	379.09
1471.51	15.1	407.599
1471.61	15	423.105
1471.71	14.9	465.44
1471.81	14.8	492.162
1471.91	14.7	507.589
1472.01	14.6	496.215
1472.11	14.5	448.037
1472.21	14.4	395.199
1472.31	14.3	342.491
1472.41	14.2	336.799
1472.51	14.1	313.552
1472.61	14	316.666
1472.71	13.9	330.931
1472.81	13.8	322.132
1472.91	13.7	318.726
1473.01	13.6	332.281
1473.11	13.5	320.593
1473.21	13.4	323.074
1473.31	13.3	337.022
1473.41	13.2	323.051
1473.51	13.1	319.819
1473.61	13	309.103
1473.71	12.9	313.571
1473.81	12.8	300.804
1473.91	12.7	291.826
1474.01	12.6	303.108
1474.11	12.5	298.393
1474.21	12.4	307.098
1474.31	12.3	298.654
1474.41	12.2	291.827
1474.51	12.1	287.505
1474.61	12	301.686
1474.71	11.9	305.442
1474.81	11.8	305.373
1474.91	11.7	306.993
1475.01	11.6	319.403
1475.11	11.5	330.542
1475.21	11.4	315.919
1475.31	11.3	307.211
1475.41	11.2	317.4
1475.51	11.1	292.136
1475.61	11	287.458
1475.71	10.9	281.651
1475.81	10.8	282.286
1475.91	10.7	296.725
1476.01	10.6	297.764
1476.11	10.5	300.68
1476.21	10.4	306.348
1476.31	10.3	319.061
1476.41	10.2	317.1
1476.51	10.1	295.926
1476.61	10	314.923
1476.71	9.9	309.706
1476.81	9.8	324.57
1476.91	9.7	312.211
1477.01	9.6	324.554
1477.11	9.5	328.634
1477.21	9.4	320.598
1477.31	9.3	339.52
1477.41	9.2	339.419
1477.51	9.1	338.011
1477.61	9	333.964
1477.71	8.9	347.908
1477.81	8.8	358.599
1477.91	8.7	372.852
1478.01	8.6	358.07
1478.11	8.5	382.941
1478.21	8.4	406.008
1478.31	8.3	426.707
1478.41	8.2	447.932
1478.51	8.1	485.32
1478.61	8	521.602
1478.71	7.9	587.213
1478.81	7.8	666.479
1478.91	7.7	759.707
1479.01	7.6	868.085
1479.11	7.5	1038.78
1479.21	7.4	1209.25
1479.31	7.3	1348.18
1479.41	7.2	1544.96
1479.51	7.1	1734.09
1479.61	7	1834.52
1479.71	6.9	1910.86
1479.81	6.8	1956.24
1479.91	6.7	2000.57
1480.01	6.6	2037.21
1480.11	6.5	2046.82
1480.21	6.4	2078.78
1480.31	6.3	2104.18
1480.41	6.2	2100.84
1480.51	6.1	2073.79
1480.61	6	2045.33
1480.71	5.9	2062.2
1480.81	5.8	2105.17
1480.91	5.7	2176.32
1481.01	5.6	2231.95
1481.11	5.5	2322.87
1481.21	5.4	2373.41
1481.31	5.3	2392.85
1481.41	5.2	2426.17
1481.51	5.1	2469.7
1481.61	5	2571.05
1481.71	4.9	2537.95
1481.81	4.8	2484.08
1481.91	4.7	2437.28
1482.01	4.6	2409.04
1482.11	4.5	2347.03
1482.21	4.4	2276.12
1482.31	4.3	2149.86
1482.41	4.2	1963.23
1482.51	4.1	1801.74
1482.61	4	1459.76
1482.71	3.9	1114.92
1482.81	3.8	759.235
1482.91	3.7	513.862
1483.01	3.6	339.927
1483.11	3.5	250.392
1483.21	3.4	208.814
1483.31	3.3	194.445
1483.41	3.2	174.562
1483.51	3.1	172.677
1483.61	3	158.231
1483.71	2.9	156.674
1483.81	2.8	153.273
1483.91	2.7	152.509
1484.01	2.6	158.987
1484.11	2.5	154.827
1484.21	2.4	153.121
1484.31	2.3	146.071
1484.41	2.2	144.902
1484.51	2.1	145.315
1484.61	2	138.918
1484.71	1.9	124.49
1484.81	1.8	129.343
1484.91	1.7	129.719
1485.01	1.6	112.406
1485.11	1.5	120.945
1485.21	1.4	117.984
1485.31	1.3	111.974
1485.41	1.2	110.623
1485.51	1.1	117.149
1485.61	1	109.593
1485.71	0.9	106.672
1485.81	0.8	106.35
1485.91	0.7	97.8
1486.01	0.6	102.378
1486.11	0.5	96.6585
1486.21	0.4	91.6691
1486.31	0.3	82.394
1486.41	0.2	77.9793
1486.51	0.1	62.3243
1486.61	0	43.7879
1486.71	-0.1	30.6564
1486.81	-0.2	16.4134
1486.91	-0.3	10.9129
1487.01	-0.4	8.01667
1487.11	-0.5	5.38372
1487.21	-0.6	6.09405
1487.31	-0.7	9.37533
1487.41	-0.8	6.02724
1487.51	-0.9	6.83012
1487.61	-1	6.22985
1487.71	-1.1	7.92289
1487.81	-1.2	5.96144
1487.91	-1.3	4.5737
1488.01	-1.4	4.59809
1488.11	-1.5	5.68873
1488.21	-1.6	5.51525
1488.31	-1.7	8.77951
1488.41	-1.8	5.04186
1488.51	-1.9	4.29813
1488.61	-2	4.21869