C:\Users\Mark\ownCloud\Muelheim Group\Projects\Gas phase background\EX340_CEC356_Ag N2 LargeArea.vms
AgMNN
	Characteristic Energy eV	1486.61	Acquisition Time s	2.9
KE_AgMNN	BE_AgMNN	CPS_AgMNN
266.61	1220	1155.34
266.71	1219.9	1144.43
266.81	1219.8	1157.71
266.91	1219.7	1151.51
267.01	1219.6	1175.96
267.11	1219.5	1197.37
267.21	1219.4	1149.46
267.31	1219.3	1159.16
267.41	1219.2	1181.35
267.51	1219.1	1151.47
267.61	1219	1160.06
267.71	1218.9	1145.88
267.81	1218.8	1147.71
267.91	1218.7	1157.22
268.01	1218.6	1144.58
268.11	1218.5	1131.69
268.21	1218.4	1146.28
268.31	1218.3	1137.66
268.41	1218.2	1133.26
268.51	1218.1	1162.91
268.61	1218	1167.34
268.71	1217.9	1151.11
268.81	1217.8	1179.56
268.91	1217.7	1166.03
269.01	1217.6	1171.33
269.11	1217.5	1196.72
269.21	1217.4	1173.08
269.31	1217.3	1167.52
269.41	1217.2	1161.3
269.51	1217.1	1163.59
269.61	1217	1168.06
269.71	1216.9	1147.5
269.81	1216.8	1149.08
269.91	1216.7	1155.86
270.01	1216.6	1140.58
270.11	1216.5	1161.95
270.21	1216.4	1192.73
270.31	1216.3	1163.04
270.41	1216.2	1150.16
270.51	1216.1	1163.69
270.61	1216	1137.18
270.71	1215.9	1163.79
270.81	1215.8	1180.18
270.91	1215.7	1190.88
271.01	1215.6	1180.22
271.11	1215.5	1167.06
271.21	1215.4	1174.49
271.31	1215.3	1167.55
271.41	1215.2	1132.3
271.51	1215.1	1177.09
271.61	1215	1143.78
271.71	1214.9	1159.76
271.81	1214.8	1161.48
271.91	1214.7	1139.06
272.01	1214.6	1148.01
272.11	1214.5	1187.64
272.21	1214.4	1159.05
272.31	1214.3	1166.97
272.41	1214.2	1152.18
272.51	1214.1	1193.94
272.61	1214	1182.26
272.71	1213.9	1166.04
272.81	1213.8	1173.41
272.91	1213.7	1189.02
273.01	1213.6	1162.42
273.11	1213.5	1144.9
273.21	1213.4	1174.29
273.31	1213.3	1157.38
273.41	1213.2	1175.26
273.51	1213.1	1197.63
273.61	1213	1163.46
273.71	1212.9	1156.8
273.81	1212.8	1142.16
273.91	1212.7	1164.79
274.01	1212.6	1195.52
274.11	1212.5	1155.74
274.21	1212.4	1138.09
274.31	1212.3	1157.02
274.41	1212.2	1142.77
274.51	1212.1	1190.38
274.61	1212	1203.66
274.71	1211.9	1127.68
274.81	1211.8	1169.9
274.91	1211.7	1149.49
275.01	1211.6	1157.94
275.11	1211.5	1149.19
275.21	1211.4	1155.31
275.31	1211.3	1157.15
275.41	1211.2	1157.99
275.51	1211.1	1168.24
275.61	1211	1155.9
275.71	1210.9	1198.14
275.81	1210.8	1199.05
275.91	1210.7	1186.68
276.01	1210.6	1194.84
276.11	1210.5	1235.45
276.21	1210.4	1193.19
276.31	1210.3	1166.64
276.41	1210.2	1175.1
276.51	1210.1	1168.35
276.61	1210	1188.75
276.71	1209.9	1187.39
276.81	1209.8	1195.58
276.91	1209.7	1202.5
277.01	1209.6	1195.96
277.11	1209.5	1150.74
277.21	1209.4	1170.65
277.31	1209.3	1197.36
277.41	1209.2	1203.8
277.51	1209.1	1186.49
277.61	1209	1206.04
277.71	1208.9	1179.98
277.81	1208.8	1172.7
277.91	1208.7	1190.26
278.01	1208.6	1202.35
278.11	1208.5	1168.9
278.21	1208.4	1162.31
278.31	1208.3	1175.17
278.41	1208.2	1166.99
278.51	1208.1	1190
278.61	1208	1202.19
278.71	1207.9	1210.54
278.81	1207.8	1193.33
278.91	1207.7	1203.61
279.01	1207.6	1213.17
279.11	1207.5	1202.22
279.21	1207.4	1170.96
279.31	1207.3	1196.97
279.41	1207.2	1235.65
279.51	1207.1	1235.9
279.61	1207	1202.18
279.71	1206.9	1206.38
279.81	1206.8	1201.3
279.91	1206.7	1192.03
280.01	1206.6	1184.3
280.11	1206.5	1187.55
280.21	1206.4	1196.04
280.31	1206.3	1238.82
280.41	1206.2	1222.64
280.51	1206.1	1204.24
280.61	1206	1217.09
280.71	1205.9	1201.01
280.81	1205.8	1199.41
280.91	1205.7	1193.32
281.01	1205.6	1196.09
281.11	1205.5	1209.07
281.21	1205.4	1213.16
281.31	1205.3	1182.07
281.41	1205.2	1213.31
281.51	1205.1	1220.08
281.61	1205	1222.52
281.71	1204.9	1229.73
281.81	1204.8	1228.3
281.91	1204.7	1224.04
282.01	1204.6	1188.19
282.11	1204.5	1208.58
282.21	1204.4	1211.98
282.31	1204.3	1211.19
282.41	1204.2	1228.36
282.51	1204.1	1216.71
282.61	1204	1213.32
282.71	1203.9	1229.79
282.81	1203.8	1245.1
282.91	1203.7	1232.75
283.01	1203.6	1197.14
283.11	1203.5	1236.82
283.21	1203.4	1213.93
283.31	1203.3	1194.96
283.41	1203.2	1188.19
283.51	1203.1	1195.71
283.61	1203	1214.92
283.71	1202.9	1244.89
283.81	1202.8	1222.97
283.91	1202.7	1219.45
284.01	1202.6	1211.33
284.11	1202.5	1228.92
284.21	1202.4	1259.48
284.31	1202.3	1210.83
284.41	1202.2	1217.85
284.51	1202.1	1234.44
284.61	1202	1237.09
284.71	1201.9	1239.84
284.81	1201.8	1199.44
284.91	1201.7	1219.32
285.01	1201.6	1226.55
285.11	1201.5	1207.91
285.21	1201.4	1243.81
285.31	1201.3	1244.65
285.41	1201.2	1199.39
285.51	1201.1	1222.74
285.61	1201	1213.75
285.71	1200.9	1227.74
285.81	1200.8	1227.22
285.91	1200.7	1210.58
286.01	1200.6	1224.8
286.11	1200.5	1237.51
286.21	1200.4	1214.53
286.31	1200.3	1221.59
286.41	1200.2	1263
286.51	1200.1	1231.68
286.61	1200	1243.1
286.71	1199.9	1222.01
286.81	1199.8	1237.2
286.91	1199.7	1247.67
287.01	1199.6	1234.56
287.11	1199.5	1213.43
287.21	1199.4	1213.55
287.31	1199.3	1222.77
287.41	1199.2	1226.75
287.51	1199.1	1244.87
287.61	1199	1237.01
287.71	1198.9	1254.26
287.81	1198.8	1272.45
287.91	1198.7	1264.17
288.01	1198.6	1271.21
288.11	1198.5	1236.28
288.21	1198.4	1208.55
288.31	1198.3	1218.35
288.41	1198.2	1259.53
288.51	1198.1	1265.85
288.61	1198	1267.89
288.71	1197.9	1268.85
288.81	1197.8	1251.94
288.91	1197.7	1219.99
289.01	1197.6	1254.62
289.11	1197.5	1222.71
289.21	1197.4	1251.67
289.31	1197.3	1249.88
289.41	1197.2	1261.75
289.51	1197.1	1267.8
289.61	1197	1235.89
289.71	1196.9	1226.55
289.81	1196.8	1226.05
289.91	1196.7	1195.31
290.01	1196.6	1218.71
290.11	1196.5	1258.66
290.21	1196.4	1244.56
290.31	1196.3	1242.45
290.41	1196.2	1265.08
290.51	1196.1	1245.96
290.61	1196	1218.96
290.71	1195.9	1246.17
290.81	1195.8	1225.59
290.91	1195.7	1217.6
291.01	1195.6	1243.47
291.11	1195.5	1235.09
291.21	1195.4	1240.66
291.31	1195.3	1268.93
291.41	1195.2	1260.43
291.51	1195.1	1230.77
291.61	1195	1218.78
291.71	1194.9	1262.26
291.81	1194.8	1263.22
291.91	1194.7	1265.74
292.01	1194.6	1240.42
292.11	1194.5	1224.14
292.21	1194.4	1245.09
292.31	1194.3	1235.08
292.41	1194.2	1245.44
292.51	1194.1	1280.81
292.61	1194	1245.04
292.71	1193.9	1245.24
292.81	1193.8	1248.38
292.91	1193.7	1242.21
293.01	1193.6	1271.41
293.11	1193.5	1240.01
293.21	1193.4	1237.64
293.31	1193.3	1234.4
293.41	1193.2	1241.08
293.51	1193.1	1268.98
293.61	1193	1272.52
293.71	1192.9	1243.23
293.81	1192.8	1262.67
293.91	1192.7	1270.17
294.01	1192.6	1262.64
294.11	1192.5	1275.42
294.21	1192.4	1258.04
294.31	1192.3	1283.12
294.41	1192.2	1264.08
294.51	1192.1	1252.42
294.61	1192	1232.23
294.71	1191.9	1256.87
294.81	1191.8	1263.76
294.91	1191.7	1255.78
295.01	1191.6	1266.25
295.11	1191.5	1242.3
295.21	1191.4	1246.79
295.31	1191.3	1263.98
295.41	1191.2	1232.03
295.51	1191.1	1224.93
295.61	1191	1220.09
295.71	1190.9	1241.49
295.81	1190.8	1277.22
295.91	1190.7	1240.09
296.01	1190.6	1269.65
296.11	1190.5	1249.72
296.21	1190.4	1265.81
296.31	1190.3	1215.14
296.41	1190.2	1231.69
296.51	1190.1	1237.52
296.61	1190	1230.51
296.71	1189.9	1267.77
296.81	1189.8	1268.33
296.91	1189.7	1269.02
297.01	1189.6	1230.07
297.11	1189.5	1250.73
297.21	1189.4	1258.1
297.31	1189.3	1287.18
297.41	1189.2	1314.44
297.51	1189.1	1267.5
297.61	1189	1293.56
297.71	1188.9	1288.56
297.81	1188.8	1260.33
297.91	1188.7	1244.11
298.01	1188.6	1273.73
298.11	1188.5	1267.32
298.21	1188.4	1253.08
298.31	1188.3	1282.77
298.41	1188.2	1265.07
298.51	1188.1	1242.33
298.61	1188	1254.04
298.71	1187.9	1264.96
298.81	1187.8	1284.85
298.91	1187.7	1294.51
299.01	1187.6	1278.73
299.11	1187.5	1266.59
299.21	1187.4	1263.5
299.31	1187.3	1265.6
299.41	1187.2	1278.95
299.51	1187.1	1239.26
299.61	1187	1238.9
299.71	1186.9	1252.96
299.81	1186.8	1232.61
299.91	1186.7	1254.95
300.01	1186.6	1262.67
300.11	1186.5	1272.26
300.21	1186.4	1269.07
300.31	1186.3	1273.24
300.41	1186.2	1256.17
300.51	1186.1	1267.41
300.61	1186	1279.25
300.71	1185.9	1276.82
300.81	1185.8	1296.84
300.91	1185.7	1282.72
301.01	1185.6	1277.66
301.11	1185.5	1266.7
301.21	1185.4	1255.79
301.31	1185.3	1304.01
301.41	1185.2	1299.64
301.51	1185.1	1266.4
301.61	1185	1254.22
301.71	1184.9	1298.99
301.81	1184.8	1301.75
301.91	1184.7	1296.2
302.01	1184.6	1250.78
302.11	1184.5	1286.3
302.21	1184.4	1277.52
302.31	1184.3	1264.08
302.41	1184.2	1281.05
302.51	1184.1	1299.51
302.61	1184	1252.62
302.71	1183.9	1264.6
302.81	1183.8	1252.04
302.91	1183.7	1235.45
303.01	1183.6	1255.18
303.11	1183.5	1255.36
303.21	1183.4	1295.34
303.31	1183.3	1270.41
303.41	1183.2	1265.73
303.51	1183.1	1276.27
303.61	1183	1284.21
303.71	1182.9	1281.76
303.81	1182.8	1285.96
303.91	1182.7	1277.03
304.01	1182.6	1295.35
304.11	1182.5	1291.59
304.21	1182.4	1287.64
304.31	1182.3	1302.33
304.41	1182.2	1297.78
304.51	1182.1	1259.71
304.61	1182	1262.66
304.71	1181.9	1259.35
304.81	1181.8	1273.88
304.91	1181.7	1281.35
305.01	1181.6	1260.57
305.11	1181.5	1319.28
305.21	1181.4	1271.88
305.31	1181.3	1258.97
305.41	1181.2	1298.33
305.51	1181.1	1281.21
305.61	1181	1289.03
305.71	1180.9	1274.84
305.81	1180.8	1280.58
305.91	1180.7	1254.36
306.01	1180.6	1250.56
306.11	1180.5	1283.44
306.21	1180.4	1283.25
306.31	1180.3	1241.35
306.41	1180.2	1276.27
306.51	1180.1	1261.1
306.61	1180	1264.44
306.71	1179.9	1266.92
306.81	1179.8	1290.04
306.91	1179.7	1274.51
307.01	1179.6	1262.78
307.11	1179.5	1256.42
307.21	1179.4	1281.72
307.31	1179.3	1236.89
307.41	1179.2	1281.41
307.51	1179.1	1276
307.61	1179	1257.5
307.71	1178.9	1266.01
307.81	1178.8	1261.96
307.91	1178.7	1255.45
308.01	1178.6	1227.2
308.11	1178.5	1267.96
308.21	1178.4	1286.83
308.31	1178.3	1279.24
308.41	1178.2	1280.18
308.51	1178.1	1266.73
308.61	1178	1263.52
308.71	1177.9	1269.11
308.81	1177.8	1280.17
308.91	1177.7	1280.58
309.01	1177.6	1277.25
309.11	1177.5	1260.82
309.21	1177.4	1256.97
309.31	1177.3	1230.09
309.41	1177.2	1250.92
309.51	1177.1	1229.54
309.61	1177	1255.66
309.71	1176.9	1287.1
309.81	1176.8	1304.41
309.91	1176.7	1250.34
310.01	1176.6	1246.2
310.11	1176.5	1237.95
310.21	1176.4	1232.97
310.31	1176.3	1267.33
310.41	1176.2	1276.44
310.51	1176.1	1297.13
310.61	1176	1254.94
310.71	1175.9	1269.08
310.81	1175.8	1265.65
310.91	1175.7	1266.21
311.01	1175.6	1236.53
311.11	1175.5	1243.86
311.21	1175.4	1268.67
311.31	1175.3	1296.11
311.41	1175.2	1275.55
311.51	1175.1	1249.3
311.61	1175	1279.68
311.71	1174.9	1292.9
311.81	1174.8	1258.9
311.91	1174.7	1293.16
312.01	1174.6	1273.2
312.11	1174.5	1264.28
312.21	1174.4	1268.77
312.31	1174.3	1245.28
312.41	1174.2	1299.02
312.51	1174.1	1264.36
312.61	1174	1269.88
312.71	1173.9	1254.32
312.81	1173.8	1285.91
312.91	1173.7	1295.01
313.01	1173.6	1258.05
313.11	1173.5	1265.45
313.21	1173.4	1283.81
313.31	1173.3	1301.44
313.41	1173.2	1284.47
313.51	1173.1	1265.98
313.61	1173	1276.22
313.71	1172.9	1304.62
313.81	1172.8	1273.32
313.91	1172.7	1252.02
314.01	1172.6	1303.07
314.11	1172.5	1269.18
314.21	1172.4	1285.56
314.31	1172.3	1291.8
314.41	1172.2	1274.52
314.51	1172.1	1279.74
314.61	1172	1286.38
314.71	1171.9	1260.45
314.81	1171.8	1264.29
314.91	1171.7	1255.52
315.01	1171.6	1261.38
315.11	1171.5	1260.75
315.21	1171.4	1322.98
315.31	1171.3	1260.31
315.41	1171.2	1271.72
315.51	1171.1	1276.61
315.61	1171	1277.86
315.71	1170.9	1280.32
315.81	1170.8	1265.84
315.91	1170.7	1309.51
316.01	1170.6	1295.37
316.11	1170.5	1312.93
316.21	1170.4	1292.29
316.31	1170.3	1264.86
316.41	1170.2	1276.57
316.51	1170.1	1266.45
316.61	1170	1285.89
316.71	1169.9	1282.63
316.81	1169.8	1270.91
316.91	1169.7	1249.66
317.01	1169.6	1269.32
317.11	1169.5	1275.31
317.21	1169.4	1304.25
317.31	1169.3	1265.6
317.41	1169.2	1313.88
317.51	1169.1	1285.08
317.61	1169	1290.28
317.71	1168.9	1310.77
317.81	1168.8	1297.83
317.91	1168.7	1309.47
318.01	1168.6	1304.31
318.11	1168.5	1289.51
318.21	1168.4	1308.75
318.31	1168.3	1313.9
318.41	1168.2	1306.47
318.51	1168.1	1325.31
318.61	1168	1266.51
318.71	1167.9	1283.97
318.81	1167.8	1284.29
318.91	1167.7	1277.3
319.01	1167.6	1324.48
319.11	1167.5	1294.75
319.21	1167.4	1295.73
319.31	1167.3	1287.79
319.41	1167.2	1291.95
319.51	1167.1	1323.05
319.61	1167	1324.83
319.71	1166.9	1294.64
319.81	1166.8	1308.46
319.91	1166.7	1302.47
320.01	1166.6	1280.13
320.11	1166.5	1335.18
320.21	1166.4	1331.54
320.31	1166.3	1299.94
320.41	1166.2	1273.72
320.51	1166.1	1315.4
320.61	1166	1309.22
320.71	1165.9	1307.24
320.81	1165.8	1298.47
320.91	1165.7	1309.21
321.01	1165.6	1325.9
321.11	1165.5	1305.79
321.21	1165.4	1290.7
321.31	1165.3	1296.16
321.41	1165.2	1331.03
321.51	1165.1	1315.5
321.61	1165	1314.44
321.71	1164.9	1308.7
321.81	1164.8	1300.39
321.91	1164.7	1321.84
322.01	1164.6	1333.13
322.11	1164.5	1309.84
322.21	1164.4	1283.79
322.31	1164.3	1292
322.41	1164.2	1292.87
322.51	1164.1	1319.07
322.61	1164	1314.32
322.71	1163.9	1337.55
322.81	1163.8	1332.73
322.91	1163.7	1318.9
323.01	1163.6	1322.72
323.11	1163.5	1328.19
323.21	1163.4	1288.25
323.31	1163.3	1303.46
323.41	1163.2	1304.26
323.51	1163.1	1301.27
323.61	1163	1353.01
323.71	1162.9	1329.8
323.81	1162.8	1304.58
323.91	1162.7	1344.81
324.01	1162.6	1342.8
324.11	1162.5	1332.8
324.21	1162.4	1335.9
324.31	1162.3	1299.41
324.41	1162.2	1295.83
324.51	1162.1	1354.68
324.61	1162	1369.89
324.71	1161.9	1329.32
324.81	1161.8	1324.01
324.91	1161.7	1329.9
325.01	1161.6	1292.35
325.11	1161.5	1328.27
325.21	1161.4	1313.29
325.31	1161.3	1323.9
325.41	1161.2	1306.42
325.51	1161.1	1337.99
325.61	1161	1324.19
325.71	1160.9	1321.03
325.81	1160.8	1339.9
325.91	1160.7	1338.2
326.01	1160.6	1353.11
326.11	1160.5	1340.31
326.21	1160.4	1343.33
326.31	1160.3	1360.31
326.41	1160.2	1363.99
326.51	1160.1	1349.19
326.61	1160	1357.24
326.71	1159.9	1346.58
326.81	1159.8	1330.23
326.91	1159.7	1342.03
327.01	1159.6	1375.13
327.11	1159.5	1339.68
327.21	1159.4	1338.38
327.31	1159.3	1317.11
327.41	1159.2	1341.65
327.51	1159.1	1330.33
327.61	1159	1331.84
327.71	1158.9	1329.4
327.81	1158.8	1339.78
327.91	1158.7	1328.56
328.01	1158.6	1338.14
328.11	1158.5	1327.44
328.21	1158.4	1347.63
328.31	1158.3	1350.02
328.41	1158.2	1336.21
328.51	1158.1	1349.64
328.61	1158	1366.6
328.71	1157.9	1362.21
328.81	1157.8	1363.33
328.91	1157.7	1341.09
329.01	1157.6	1353.23
329.11	1157.5	1325.79
329.21	1157.4	1352.6
329.31	1157.3	1371.46
329.41	1157.2	1356.08
329.51	1157.1	1346.13
329.61	1157	1377.43
329.71	1156.9	1348.77
329.81	1156.8	1358.07
329.91	1156.7	1359.31
330.01	1156.6	1357.74
330.11	1156.5	1377.66
330.21	1156.4	1349.28
330.31	1156.3	1351.76
330.41	1156.2	1332.53
330.51	1156.1	1342.54
330.61	1156	1323.71
330.71	1155.9	1334.03
330.81	1155.8	1379.51
330.91	1155.7	1360.56
331.01	1155.6	1371.8
331.11	1155.5	1380.88
331.21	1155.4	1353.13
331.31	1155.3	1354.95
331.41	1155.2	1373.16
331.51	1155.1	1372.23
331.61	1155	1349.01
331.71	1154.9	1358.21
331.81	1154.8	1375.63
331.91	1154.7	1337.36
332.01	1154.6	1364.93
332.11	1154.5	1347.59
332.21	1154.4	1382
332.31	1154.3	1380.46
332.41	1154.2	1398.42
332.51	1154.1	1354.64
332.61	1154	1353.85
332.71	1153.9	1371.2
332.81	1153.8	1345.1
332.91	1153.7	1353.37
333.01	1153.6	1372.76
333.11	1153.5	1331.63
333.21	1153.4	1367.15
333.31	1153.3	1333.13
333.41	1153.2	1350.71
333.51	1153.1	1341.89
333.61	1153	1393.3
333.71	1152.9	1355.23
333.81	1152.8	1340.28
333.91	1152.7	1379.43
334.01	1152.6	1388.54
334.11	1152.5	1361.8
334.21	1152.4	1380.69
334.31	1152.3	1361.8
334.41	1152.2	1363.3
334.51	1152.1	1365.5
334.61	1152	1401.35
334.71	1151.9	1358.92
334.81	1151.8	1375.65
334.91	1151.7	1402
335.01	1151.6	1394.55
335.11	1151.5	1357.63
335.21	1151.4	1380.43
335.31	1151.3	1396.43
335.41	1151.2	1362.45
335.51	1151.1	1381.63
335.61	1151	1366.62
335.71	1150.9	1390.11
335.81	1150.8	1395.25
335.91	1150.7	1373.71
336.01	1150.6	1406.63
336.11	1150.5	1393
336.21	1150.4	1400.36
336.31	1150.3	1379.66
336.41	1150.2	1407.02
336.51	1150.1	1425.83
336.61	1150	1406.51
336.71	1149.9	1384.14
336.81	1149.8	1384.9
336.91	1149.7	1403.38
337.01	1149.6	1387.08
337.11	1149.5	1357.76
337.21	1149.4	1399.54
337.31	1149.3	1428.95
337.41	1149.2	1423.09
337.51	1149.1	1400.83
337.61	1149	1417.52
337.71	1148.9	1385.84
337.81	1148.8	1406.27
337.91	1148.7	1413.49
338.01	1148.6	1424.18
338.11	1148.5	1433.39
338.21	1148.4	1424.02
338.31	1148.3	1435.32
338.41	1148.2	1433.44
338.51	1148.1	1435.61
338.61	1148	1428.63
338.71	1147.9	1429.24
338.81	1147.8	1423.33
338.91	1147.7	1420.1
339.01	1147.6	1411.38
339.11	1147.5	1393.46
339.21	1147.4	1413.55
339.31	1147.3	1396.51
339.41	1147.2	1390.18
339.51	1147.1	1432.81
339.61	1147	1420.92
339.71	1146.9	1394.35
339.81	1146.8	1341.96
339.91	1146.7	1356.68
340.01	1146.6	1391.69
340.11	1146.5	1402.61
340.21	1146.4	1384.85
340.31	1146.3	1382.09
340.41	1146.2	1378.95
340.51	1146.1	1370.98
340.61	1146	1383.03
340.71	1145.9	1417.37
340.81	1145.8	1388.59
340.91	1145.7	1361.15
341.01	1145.6	1406.74
341.11	1145.5	1410.74
341.21	1145.4	1378.83
341.31	1145.3	1408.84
341.41	1145.2	1386.69
341.51	1145.1	1324.37
341.61	1145	1354.4
341.71	1144.9	1359.15
341.81	1144.8	1365.81
341.91	1144.7	1399.64
342.01	1144.6	1367.96
342.11	1144.5	1366.61
342.21	1144.4	1370.51
342.31	1144.3	1352.8
342.41	1144.2	1363.89
342.51	1144.1	1364.25
342.61	1144	1353.57
342.71	1143.9	1352.11
342.81	1143.8	1387.22
342.91	1143.7	1357.71
343.01	1143.6	1402.37
343.11	1143.5	1389.43
343.21	1143.4	1393.03
343.31	1143.3	1366.82
343.41	1143.2	1342.36
343.51	1143.1	1385.08
343.61	1143	1388.82
343.71	1142.9	1403.27
343.81	1142.8	1329.96
343.91	1142.7	1370.19
344.01	1142.6	1409.6
344.11	1142.5	1329.82
344.21	1142.4	1387.35
344.31	1142.3	1375.55
344.41	1142.2	1396.02
344.51	1142.1	1393.64
344.61	1142	1375.23
344.71	1141.9	1396.04
344.81	1141.8	1375.39
344.91	1141.7	1357.7
345.01	1141.6	1356.51
345.11	1141.5	1388.68
345.21	1141.4	1385.39
345.31	1141.3	1342.88
345.41	1141.2	1383.31
345.51	1141.1	1339.8
345.61	1141	1362.19
345.71	1140.9	1375.96
345.81	1140.8	1361.17
345.91	1140.7	1342
346.01	1140.6	1372.66
346.11	1140.5	1340.98
346.21	1140.4	1336.32
346.31	1140.3	1358.36
346.41	1140.2	1350.48
346.51	1140.1	1339.46
346.61	1140	1356.37
346.71	1139.9	1388.32
346.81	1139.8	1361.94
346.91	1139.7	1366.79
347.01	1139.6	1362.21
347.11	1139.5	1353.3
347.21	1139.4	1365.1
347.31	1139.3	1362.51
347.41	1139.2	1347.26
347.51	1139.1	1331.54
347.61	1139	1340.25
347.71	1138.9	1339.51
347.81	1138.8	1355.64
347.91	1138.7	1341.8
348.01	1138.6	1342.1
348.11	1138.5	1335.76
348.21	1138.4	1350.33
348.31	1138.3	1384.58
348.41	1138.2	1347.62
348.51	1138.1	1370.07
348.61	1138	1376.38
348.71	1137.9	1360.32
348.81	1137.8	1382.38
348.91	1137.7	1395.17
349.01	1137.6	1368.78
349.11	1137.5	1343.17
349.21	1137.4	1349.83
349.31	1137.3	1358.74
349.41	1137.2	1351.18
349.51	1137.1	1334.3
349.61	1137	1359.39
349.71	1136.9	1367.44
349.81	1136.8	1368.11
349.91	1136.7	1391.13
350.01	1136.6	1405.76
350.11	1136.5	1393.76
350.21	1136.4	1412.85
350.31	1136.3	1391.18
350.41	1136.2	1439.51
350.51	1136.1	1400.04
350.61	1136	1424
350.71	1135.9	1450.81
350.81	1135.8	1423.68
350.91	1135.7	1449.8
351.01	1135.6	1479.84
351.11	1135.5	1526.03
351.21	1135.4	1558.12
351.31	1135.3	1588.32
351.41	1135.2	1609.55
351.51	1135.1	1654.95
351.61	1135	1643.06
351.71	1134.9	1671.18
351.81	1134.8	1658.31
351.91	1134.7	1638.6
352.01	1134.6	1641.86
352.11	1134.5	1583.51
352.21	1134.4	1606.3
352.31	1134.3	1630.94
352.41	1134.2	1601.47
352.51	1134.1	1587.88
352.61	1134	1567.39
352.71	1133.9	1560.33
352.81	1133.8	1553.73
352.91	1133.7	1537.52
353.01	1133.6	1545.54
353.11	1133.5	1535.38
353.21	1133.4	1567.02
353.31	1133.3	1550.15
353.41	1133.2	1536.48
353.51	1133.1	1500.89
353.61	1133	1509.23
353.71	1132.9	1513.68
353.81	1132.8	1507.82
353.91	1132.7	1472.52
354.01	1132.6	1479.39
354.11	1132.5	1406.33
354.21	1132.4	1434.63
354.31	1132.3	1413.05
354.41	1132.2	1427.72
354.51	1132.1	1433.3
354.61	1132	1442.72
354.71	1131.9	1416.31
354.81	1131.8	1436.5
354.91	1131.7	1393.67
355.01	1131.6	1389.13
355.11	1131.5	1403.69
355.21	1131.4	1377.74
355.31	1131.3	1405.41
355.41	1131.2	1381.11
355.51	1131.1	1364.31
355.61	1131	1342.13
355.71	1130.9	1363
355.81	1130.8	1362.44
355.91	1130.7	1362.33
356.01	1130.6	1372.13
356.11	1130.5	1350.31
356.21	1130.4	1327.72
356.31	1130.3	1340.96
356.41	1130.2	1385.33
356.51	1130.1	1397.19
356.61	1130	1357.7
356.71	1129.9	1387.89
356.81	1129.8	1359.76
356.91	1129.7	1384.65
357.01	1129.6	1412.26
357.11	1129.5	1412.68
357.21	1129.4	1438.12
357.31	1129.3	1455.63
357.41	1129.2	1477.79
357.51	1129.1	1517.99
357.61	1129	1513.56
357.71	1128.9	1517.64
357.81	1128.8	1528.67
357.91	1128.7	1538.31
358.01	1128.6	1539.61
358.11	1128.5	1488.94
358.21	1128.4	1424.08
358.31	1128.3	1431.24
358.41	1128.2	1408.95
358.51	1128.1	1395.42
358.61	1128	1382.17
358.71	1127.9	1346.07
358.81	1127.8	1337.42
358.91	1127.7	1332.09
359.01	1127.6	1308.27
359.11	1127.5	1305.09
359.21	1127.4	1308.71
359.31	1127.3	1322.95
359.41	1127.2	1279.23
359.51	1127.1	1272.71
359.61	1127	1261.17
359.71	1126.9	1252.88
359.81	1126.8	1236.17
359.91	1126.7	1240.58
360.01	1126.6	1202.86
360.11	1126.5	1221.41
360.21	1126.4	1206.41
360.31	1126.3	1199.29
360.41	1126.2	1203.77
360.51	1126.1	1184.2
360.61	1126	1195.94
360.71	1125.9	1230.49
360.81	1125.8	1209.63
360.91	1125.7	1240.22
361.01	1125.6	1219.8
361.11	1125.5	1215.78
361.21	1125.4	1216.01
361.31	1125.3	1197.02
361.41	1125.2	1210.22
361.51	1125.1	1216.02
361.61	1125	1188.11
361.71	1124.9	1223.73
361.81	1124.8	1233.1
361.91	1124.7	1232.39
362.01	1124.6	1212.51
362.11	1124.5	1182.93
362.21	1124.4	1199.09
362.31	1124.3	1214.83
362.41	1124.2	1212.79
362.51	1124.1	1221.29
362.61	1124	1218.1
362.71	1123.9	1249.11
362.81	1123.8	1230.42
362.91	1123.7	1222.72
363.01	1123.6	1242.17
363.11	1123.5	1242.96
363.21	1123.4	1237.73
363.31	1123.3	1240.66
363.41	1123.2	1201.52
363.51	1123.1	1207.91
363.61	1123	1223.49
363.71	1122.9	1226.24
363.81	1122.8	1220.91
363.91	1122.7	1247.59
364.01	1122.6	1259.9
364.11	1122.5	1260.42
364.21	1122.4	1275.58
364.31	1122.3	1275.41
364.41	1122.2	1296.4
364.51	1122.1	1278.83
364.61	1122	1305.53
364.71	1121.9	1258.03
364.81	1121.8	1225.56
364.91	1121.7	1251.36
365.01	1121.6	1266.88
365.11	1121.5	1219.67
365.21	1121.4	1216.12
365.31	1121.3	1226.28
365.41	1121.2	1244.8
365.51	1121.1	1245.91
365.61	1121	1247.37
365.71	1120.9	1254.37
365.81	1120.8	1265.23
365.91	1120.7	1279.55
366.01	1120.6	1298.01
366.11	1120.5	1299.49
366.21	1120.4	1275.6
366.31	1120.3	1292.57
366.41	1120.2	1291.73
366.51	1120.1	1322.86
366.61	1120	1321.43
366.71	1119.9	1289.99
366.81	1119.8	1281.65
366.91	1119.7	1300.87
367.01	1119.6	1333.22
367.11	1119.5	1331.14
367.21	1119.4	1309.18
367.31	1119.3	1300.03
367.41	1119.2	1276.65
367.51	1119.1	1291.23
367.61	1119	1289.63
367.71	1118.9	1299.24
367.81	1118.8	1300.87
367.91	1118.7	1296.45
368.01	1118.6	1282.72
368.11	1118.5	1301.65
368.21	1118.4	1304.82
368.31	1118.3	1288.08
368.41	1118.2	1282.81
368.51	1118.1	1309.55
368.61	1118	1296.15
368.71	1117.9	1252.84
368.81	1117.8	1240.67
368.91	1117.7	1245.68
369.01	1117.6	1230.51
369.11	1117.5	1223.52
369.21	1117.4	1209.25
369.31	1117.3	1172.65
369.41	1117.2	1208.55
369.51	1117.1	1204.12
369.61	1117	1206.59
369.71	1116.9	1176.99
369.81	1116.8	1157.3
369.91	1116.7	1166.83
370.01	1116.6	1169.1
370.11	1116.5	1183.15
370.21	1116.4	1181.52
370.31	1116.3	1195
370.41	1116.2	1161.72
370.51	1116.1	1205.12
370.61	1116	1215.18
370.71	1115.9	1228.13
370.81	1115.8	1220.23
370.91	1115.7	1210.86
371.01	1115.6	1240.25
371.11	1115.5	1217.03
371.21	1115.4	1167.87
371.31	1115.3	1170.97
371.41	1115.2	1177.38
371.51	1115.1	1188.95
371.61	1115	1180.11
371.71	1114.9	1192.42
371.81	1114.8	1156.56
371.91	1114.7	1155.62
372.01	1114.6	1160.42
372.11	1114.5	1171.96
372.21	1114.4	1140.95
372.31	1114.3	1153.47
372.41	1114.2	1161.07
372.51	1114.1	1152.82
372.61	1114	1157.43
372.71	1113.9	1150.19
372.81	1113.8	1160.21
372.91	1113.7	1151.19
373.01	1113.6	1145.73
373.11	1113.5	1142.95
373.21	1113.4	1169.03
373.31	1113.3	1167.9
373.41	1113.2	1162.84
373.51	1113.1	1172.91
373.61	1113	1195.02
373.71	1112.9	1195.09
373.81	1112.8	1183.39
373.91	1112.7	1185.67
374.01	1112.6	1152.66
374.11	1112.5	1172.19
374.21	1112.4	1163.92
374.31	1112.3	1169.04
374.41	1112.2	1156.9
374.51	1112.1	1162.6
374.61	1112	1166.74
374.71	1111.9	1169.92
374.81	1111.8	1175.14
374.91	1111.7	1182.99
375.01	1111.6	1161.58
375.11	1111.5	1171.24
375.21	1111.4	1163.64
375.31	1111.3	1180.99
375.41	1111.2	1151.51
375.51	1111.1	1189.67
375.61	1111	1176.39
375.71	1110.9	1197.53
375.81	1110.8	1177.21
375.91	1110.7	1176.91
376.01	1110.6	1189.42
376.11	1110.5	1164.81
376.21	1110.4	1154.02
376.31	1110.3	1165
376.41	1110.2	1175.15
376.51	1110.1	1160.3
376.61	1110	1164.37
376.71	1109.9	1210.31
376.81	1109.8	1169.99
376.91	1109.7	1169.51
377.01	1109.6	1168.45
377.11	1109.5	1138.15
377.21	1109.4	1156.97
377.31	1109.3	1193.05
377.41	1109.2	1176.1
377.51	1109.1	1169.58
377.61	1109	1193.2
377.71	1108.9	1200.05
377.81	1108.8	1195.4
377.91	1108.7	1179.69
378.01	1108.6	1198.84
378.11	1108.5	1188.11
378.21	1108.4	1180.72
378.31	1108.3	1188.9
378.41	1108.2	1177.75
378.51	1108.1	1191.31
378.61	1108	1177.36
378.71	1107.9	1176.36
378.81	1107.8	1168.82
378.91	1107.7	1153.35
379.01	1107.6	1182.78
379.11	1107.5	1187.45
379.21	1107.4	1146.42
379.31	1107.3	1179.07
379.41	1107.2	1198.96
379.51	1107.1	1189.75
379.61	1107	1214.69
379.71	1106.9	1213.7
379.81	1106.8	1210.16
379.91	1106.7	1221.2
380.01	1106.6	1223.1
380.11	1106.5	1220.66
380.21	1106.4	1193.96
380.31	1106.3	1172.65
380.41	1106.2	1178.18
380.51	1106.1	1202.43
380.61	1106	1197.93
380.71	1105.9	1201.97
380.81	1105.8	1217.98
380.91	1105.7	1207.59
381.01	1105.6	1210.34
381.11	1105.5	1173.45
381.21	1105.4	1160.15
381.31	1105.3	1197.44
381.41	1105.2	1185.5
381.51	1105.1	1194.68
381.61	1105	1204.85
381.71	1104.9	1199.04
381.81	1104.8	1182.07
381.91	1104.7	1185.42
382.01	1104.6	1223.63
382.11	1104.5	1210.83
382.21	1104.4	1220.68
382.31	1104.3	1189.06
382.41	1104.2	1186.8
382.51	1104.1	1183.84
382.61	1104	1201.33
382.71	1103.9	1216.41
382.81	1103.8	1207.26
382.91	1103.7	1208.44
383.01	1103.6	1213.31
383.11	1103.5	1185.69
383.21	1103.4	1199.86
383.31	1103.3	1231.62
383.41	1103.2	1208.7
383.51	1103.1	1209.04
383.61	1103	1219.16
383.71	1102.9	1206.93
383.81	1102.8	1206.41
383.91	1102.7	1206.75
384.01	1102.6	1185.31
384.11	1102.5	1177.21
384.21	1102.4	1184.45
384.31	1102.3	1219.55
384.41	1102.2	1214.5
384.51	1102.1	1219.57
384.61	1102	1192.97
384.71	1101.9	1190.91
384.81	1101.8	1220.1
384.91	1101.7	1221.02
385.01	1101.6	1219.75
385.11	1101.5	1230.68
385.21	1101.4	1217.69
385.31	1101.3	1192.23
385.41	1101.2	1224.34
385.51	1101.1	1221.84
385.61	1101	1267.6
385.71	1100.9	1204.42
385.81	1100.8	1212.5
385.91	1100.7	1233.24
386.01	1100.6	1202.76
386.11	1100.5	1198.72
386.21	1100.4	1236.55
386.31	1100.3	1235.04
386.41	1100.2	1222.44
386.51	1100.1	1217.33
386.61	1100	1194.93