C:\Users\Mark\ownCloud\Muelheim Group\Projects\Gas phase background\EX340_CEC356_Ag N2 LargeArea.vms
AgMNN
	Characteristic Energy eV	1486.61	Acquisition Time s	1
KE_AgMNN	BE_AgMNN	CPS_AgMNN	Background_AgMNN
266.61	1220	12888.9	12888.9
266.71	1219.9	13081.9	13081.9
266.81	1219.8	12999.2	12999.2
266.91	1219.7	12923	12923
267.01	1219.6	12977.4	12977.4
267.11	1219.5	12985.2	12985.2
267.21	1219.4	13000.1	13000.1
267.31	1219.3	12967	12967
267.41	1219.2	13036.5	13036.5
267.51	1219.1	12866.2	12866.2
267.61	1219	12939	12939
267.71	1218.9	12942.2	12942.2
267.81	1218.8	12971.3	12971.3
267.91	1218.7	12914.5	12914.5
268.01	1218.6	12754.8	12754.8
268.11	1218.5	12753.9	12753.9
268.21	1218.4	12763.5	12763.5
268.31	1218.3	12647.9	12647.9
268.41	1218.2	12864.5	12864.5
268.51	1218.1	12693.4	12693.4
268.61	1218	12682.8	12682.8
268.71	1217.9	12625.4	12625.4
268.81	1217.8	12676.3	12676.3
268.91	1217.7	12756.4	12756.4
269.01	1217.6	12558.9	12558.9
269.11	1217.5	12438.3	12438.3
269.21	1217.4	12390.9	12390.9
269.31	1217.3	12536.1	12536.1
269.41	1217.2	12502.5	12502.5
269.51	1217.1	12639.3	12639.3
269.61	1217	12573	12573
269.71	1216.9	12421.6	12421.6
269.81	1216.8	12345.5	12345.5
269.91	1216.7	12331.2	12331.2
270.01	1216.6	12354.6	12354.6
270.11	1216.5	12487.7	12487.7
270.21	1216.4	12476.6	12476.6
270.31	1216.3	12447.5	12447.5
270.41	1216.2	12354.4	12354.4
270.51	1216.1	12415.7	12415.7
270.61	1216	12298.9	12298.9
270.71	1215.9	12594.7	12594.7
270.81	1215.8	12390.3	12390.3
270.91	1215.7	12418.2	12418.2
271.01	1215.6	12477.1	12477.1
271.11	1215.5	12367.2	12367.2
271.21	1215.4	12472.9	12472.9
271.31	1215.3	12430.3	12430.3
271.41	1215.2	12447.7	12447.7
271.51	1215.1	12303.4	12303.4
271.61	1215	12315.5	12315.5
271.71	1214.9	12346.4	12346.4
271.81	1214.8	12384.5	12384.5
271.91	1214.7	12296.7	12296.7
272.01	1214.6	12361.5	12361.5
272.11	1214.5	12353.4	12353.4
272.21	1214.4	12298.8	12298.8
272.31	1214.3	12326	12326
272.41	1214.2	12317.9	12317.9
272.51	1214.1	12179.2	12179.2
272.61	1214	12142.2	12142.2
272.71	1213.9	12357.8	12357.8
272.81	1213.8	12408.9	12408.9
272.91	1213.7	12251.4	12251.4
273.01	1213.6	12262.5	12262.5
273.11	1213.5	12319.7	12319.7
273.21	1213.4	12367.5	12367.5
273.31	1213.3	12409.1	12409.1
273.41	1213.2	12325.6	12325.6
273.51	1213.1	12331.8	12331.8
273.61	1213	12315.5	12315.5
273.71	1212.9	12417.7	12417.7
273.81	1212.8	12279.6	12279.6
273.91	1212.7	12155.3	12155.3
274.01	1212.6	12207.3	12207.3
274.11	1212.5	12299.7	12299.7
274.21	1212.4	12262.1	12262.1
274.31	1212.3	12365.8	12365.8
274.41	1212.2	12278.8	12278.8
274.51	1212.1	12297.3	12297.3
274.61	1212	12378.9	12378.9
274.71	1211.9	12251.3	12251.3
274.81	1211.8	12203.8	12203.8
274.91	1211.7	12253.8	12253.8
275.01	1211.6	12077.6	12077.6
275.11	1211.5	12259.8	12259.8
275.21	1211.4	12343	12343
275.31	1211.3	12369.4	12369.4
275.41	1211.2	12454.3	12454.3
275.51	1211.1	12360.6	12360.6
275.61	1211	12334	12334
275.71	1210.9	12226.2	12226.2
275.81	1210.8	12478.5	12478.5
275.91	1210.7	12355.4	12355.4
276.01	1210.6	12222.4	12222.4
276.11	1210.5	12398.9	12398.9
276.21	1210.4	12477	12477
276.31	1210.3	12412.7	12412.7
276.41	1210.2	12254.2	12254.2
276.51	1210.1	12403.2	12403.2
276.61	1210	12319.9	12319.9
276.71	1209.9	12396.2	12396.2
276.81	1209.8	12527.1	12527.1
276.91	1209.7	12434.5	12434.5
277.01	1209.6	12451	12451
277.11	1209.5	12432.4	12432.4
277.21	1209.4	12510.8	12510.8
277.31	1209.3	12545.1	12545.1
277.41	1209.2	12577.6	12577.6
277.51	1209.1	12407.9	12407.9
277.61	1209	12497.4	12497.4
277.71	1208.9	12533.2	12533.2
277.81	1208.8	12556.4	12556.4
277.91	1208.7	12514.5	12514.5
278.01	1208.6	12485.8	12485.8
278.11	1208.5	12402.9	12402.9
278.21	1208.4	12640	12640
278.31	1208.3	12478.6	12478.6
278.41	1208.2	12311.8	12311.8
278.51	1208.1	12363	12363
278.61	1208	12455.3	12455.3
278.71	1207.9	12417.5	12417.5
278.81	1207.8	12453	12453
278.91	1207.7	12536.7	12536.7
279.01	1207.6	12487.9	12487.9
279.11	1207.5	12531.8	12531.8
279.21	1207.4	12696.5	12696.5
279.31	1207.3	12713.5	12713.5
279.41	1207.2	12753.1	12753.1
279.51	1207.1	12686.8	12686.8
279.61	1207	12646.5	12646.5
279.71	1206.9	12719.1	12719.1
279.81	1206.8	12683.8	12683.8
279.91	1206.7	12744.7	12744.7
280.01	1206.6	12751.5	12751.5
280.11	1206.5	12674.4	12674.4
280.21	1206.4	12721.1	12721.1
280.31	1206.3	12618.6	12618.6
280.41	1206.2	12389.5	12389.5
280.51	1206.1	12765.7	12765.7
280.61	1206	12766.1	12766.1
280.71	1205.9	12743.8	12743.8
280.81	1205.8	12692.5	12692.5
280.91	1205.7	12704.3	12704.3
281.01	1205.6	12656.2	12656.2
281.11	1205.5	12778.8	12778.8
281.21	1205.4	12802.4	12802.4
281.31	1205.3	12744.2	12744.2
281.41	1205.2	12723.6	12723.6
281.51	1205.1	12706.3	12706.3
281.61	1205	12666.4	12666.4
281.71	1204.9	12801.3	12801.3
281.81	1204.8	12673.1	12673.1
281.91	1204.7	12988.9	12988.9
282.01	1204.6	13089.2	13089.2
282.11	1204.5	12970.4	12970.4
282.21	1204.4	12949.9	12949.9
282.31	1204.3	12952.6	12952.6
282.41	1204.2	13003	13003
282.51	1204.1	13055.8	13055.8
282.61	1204	13031.2	13031.2
282.71	1203.9	13056.1	13056.1
282.81	1203.8	13075.4	13075.4
282.91	1203.7	13200.9	13200.9
283.01	1203.6	13189.1	13189.1
283.11	1203.5	13141.4	13141.4
283.21	1203.4	13040.9	13040.9
283.31	1203.3	12955.5	12955.5
283.41	1203.2	12961.3	12961.3
283.51	1203.1	12953.3	12953.3
283.61	1203	13204.8	13204.8
283.71	1202.9	13156.9	13156.9
283.81	1202.8	13188.2	13188.2
283.91	1202.7	13341.3	13341.3
284.01	1202.6	13221.7	13221.7
284.11	1202.5	13108.9	13108.9
284.21	1202.4	13256.6	13256.6
284.31	1202.3	13373.5	13373.5
284.41	1202.2	13229.6	13229.6
284.51	1202.1	13211.6	13211.6
284.61	1202	13210.5	13210.5
284.71	1201.9	13099.5	13099.5
284.81	1201.8	13314.6	13314.6
284.91	1201.7	13504.3	13504.3
285.01	1201.6	13315.2	13315.2
285.11	1201.5	13305.4	13305.4
285.21	1201.4	13346.6	13346.6
285.31	1201.3	13383.4	13383.4
285.41	1201.2	13393.7	13393.7
285.51	1201.1	13406	13406
285.61	1201	13474.8	13474.8
285.71	1200.9	13486	13486
285.81	1200.8	13372.3	13372.3
285.91	1200.7	13573.3	13573.3
286.01	1200.6	13566.1	13566.1
286.11	1200.5	13465.9	13465.9
286.21	1200.4	13440.7	13440.7
286.31	1200.3	13490.3	13490.3
286.41	1200.2	13511.7	13511.7
286.51	1200.1	13534.5	13534.5
286.61	1200	13539.3	13539.3
286.71	1199.9	13787.4	13787.4
286.81	1199.8	13680.5	13680.5
286.91	1199.7	13703.7	13703.7
287.01	1199.6	13599	13599
287.11	1199.5	13578.6	13578.6
287.21	1199.4	13860.6	13860.6
287.31	1199.3	13626.5	13626.5
287.41	1199.2	13794.2	13794.2
287.51	1199.1	13826.8	13826.8
287.61	1199	13751.7	13751.7
287.71	1198.9	13774.6	13774.6
287.81	1198.8	13774.6	13774.6
287.91	1198.7	13822.3	13822.3
288.01	1198.6	13938.3	13938.3
288.11	1198.5	13883.5	13883.5
288.21	1198.4	13870.2	13870.2
288.31	1198.3	13962.2	13962.2
288.41	1198.2	13762.3	13762.3
288.51	1198.1	13940.7	13940.7
288.61	1198	13903.6	13903.6
288.71	1197.9	13935.3	13935.3
288.81	1197.8	13994.8	13994.8
288.91	1197.7	14091.7	14091.7
289.01	1197.6	13959.2	13959.2
289.11	1197.5	13786.4	13786.4
289.21	1197.4	14037.3	14037.3
289.31	1197.3	14053.5	14053.5
289.41	1197.2	14019.9	14019.9
289.51	1197.1	14107.9	14107.9
289.61	1197	14135.1	14135.1
289.71	1196.9	14081.4	14081.4
289.81	1196.8	14200.8	14200.8
289.91	1196.7	14292.1	14292.1
290.01	1196.6	14140.5	14140.5
290.11	1196.5	14317.8	14317.8
290.21	1196.4	14304.2	14304.2
290.31	1196.3	14261.3	14261.3
290.41	1196.2	14132	14132
290.51	1196.1	14093.7	14093.7
290.61	1196	14392.3	14392.3
290.71	1195.9	14192.8	14192.8
290.81	1195.8	14241.8	14241.8
290.91	1195.7	14194.9	14194.9
291.01	1195.6	14192.1	14192.1
291.11	1195.5	14207.9	14207.9
291.21	1195.4	14289.6	14289.6
291.31	1195.3	14196.3	14196.3
291.41	1195.2	14247.4	14247.4
291.51	1195.1	14174.5	14174.5
291.61	1195	14483.1	14483.1
291.71	1194.9	14276.9	14276.9
291.81	1194.8	14251	14251
291.91	1194.7	14329.2	14329.2
292.01	1194.6	14315.8	14315.8
292.11	1194.5	14271.8	14271.8
292.21	1194.4	14273.1	14273.1
292.31	1194.3	14332.8	14332.8
292.41	1194.2	14313.8	14313.8
292.51	1194.1	14198.6	14198.6
292.61	1194	14373.8	14373.8
292.71	1193.9	14435.1	14435.1
292.81	1193.8	14193.3	14193.3
292.91	1193.7	14313.7	14313.7
293.01	1193.6	14399.2	14399.2
293.11	1193.5	14375.4	14375.4
293.21	1193.4	14371.3	14371.3
293.31	1193.3	14258.2	14258.2
293.41	1193.2	14438.8	14438.8
293.51	1193.1	14310.4	14310.4
293.61	1193	14421.2	14421.2
293.71	1192.9	14389.6	14389.6
293.81	1192.8	14442	14442
293.91	1192.7	14256.2	14256.2
294.01	1192.6	14335.1	14335.1
294.11	1192.5	14320.4	14320.4
294.21	1192.4	14327.2	14327.2
294.31	1192.3	14517.8	14517.8
294.41	1192.2	14390.9	14390.9
294.51	1192.1	14378.6	14378.6
294.61	1192	14320.9	14320.9
294.71	1191.9	14257.8	14257.8
294.81	1191.8	14439.9	14439.9
294.91	1191.7	14363.3	14363.3
295.01	1191.6	14500.6	14500.6
295.11	1191.5	14384.1	14384.1
295.21	1191.4	14435	14435
295.31	1191.3	14398.7	14398.7
295.41	1191.2	14227.8	14227.8
295.51	1191.1	14405	14405
295.61	1191	14420.7	14420.7
295.71	1190.9	14342.6	14342.6
295.81	1190.8	14301.2	14301.2
295.91	1190.7	14365.5	14365.5
296.01	1190.6	14338.3	14338.3
296.11	1190.5	14240	14240
296.21	1190.4	14377	14377
296.31	1190.3	14255.4	14255.4
296.41	1190.2	14320.8	14320.8
296.51	1190.1	14140.4	14140.4
296.61	1190	14151.7	14151.7
296.71	1189.9	14247.2	14247.2
296.81	1189.8	14125.3	14125.3
296.91	1189.7	14164.9	14164.9
297.01	1189.6	14068.5	14068.5
297.11	1189.5	13921.8	13921.8
297.21	1189.4	14140.1	14140.1
297.31	1189.3	14203	14203
297.41	1189.2	14240	14240
297.51	1189.1	14210	14210
297.61	1189	14146.9	14146.9
297.71	1188.9	14137.6	14137.6
297.81	1188.8	14226.4	14226.4
297.91	1188.7	14016.7	14016.7
298.01	1188.6	14197.1	14197.1
298.11	1188.5	14115.9	14115.9
298.21	1188.4	14081.8	14081.8
298.31	1188.3	13922.4	13922.4
298.41	1188.2	14184	14184
298.51	1188.1	14104.7	14104.7
298.61	1188	14017.3	14017.3
298.71	1187.9	13979.7	13979.7
298.81	1187.8	13976.9	13976.9
298.91	1187.7	14076.8	14076.8
299.01	1187.6	13901.2	13901.2
299.11	1187.5	14072.6	14072.6
299.21	1187.4	14032.9	14032.9
299.31	1187.3	14011.5	14011.5
299.41	1187.2	14001.1	14001.1
299.51	1187.1	13950	13950
299.61	1187	14035.3	14035.3
299.71	1186.9	13962.2	13962.2
299.81	1186.8	13980.7	13980.7
299.91	1186.7	13916.8	13916.8
300.01	1186.6	13903.8	13903.8
300.11	1186.5	13864.8	13864.8
300.21	1186.4	13813.8	13813.8
300.31	1186.3	13858.8	13858.8
300.41	1186.2	13789.9	13789.9
300.51	1186.1	13826.4	13826.4
300.61	1186	13844.3	13844.3
300.71	1185.9	13800.1	13800.1
300.81	1185.8	13814.7	13814.7
300.91	1185.7	13814.2	13814.2
301.01	1185.6	13751.1	13751.1
301.11	1185.5	13672.6	13672.6
301.21	1185.4	13640.8	13640.8
301.31	1185.3	13585.9	13585.9
301.41	1185.2	13541	13541
301.51	1185.1	13604.4	13604.4
301.61	1185	13590.7	13590.7
301.71	1184.9	13596	13596
301.81	1184.8	13532.1	13532.1
301.91	1184.7	13344.5	13344.5
302.01	1184.6	13382.9	13382.9
302.11	1184.5	13436.5	13436.5
302.21	1184.4	13438	13438
302.31	1184.3	13408.6	13408.6
302.41	1184.2	13242.3	13242.3
302.51	1184.1	13095.5	13095.5
302.61	1184	13127	13127
302.71	1183.9	13191.8	13191.8
302.81	1183.8	13203.4	13203.4
302.91	1183.7	13040.2	13040.2
303.01	1183.6	12897.4	12897.4
303.11	1183.5	13130.5	13130.5
303.21	1183.4	12932.2	12932.2
303.31	1183.3	12846.5	12846.5
303.41	1183.2	12842	12842
303.51	1183.1	12904.5	12904.5
303.61	1183	12829.7	12829.7
303.71	1182.9	12679	12679
303.81	1182.8	12650	12650
303.91	1182.7	12867.6	12867.6
304.01	1182.6	12715.1	12715.1
304.11	1182.5	12526.7	12526.7
304.21	1182.4	12520.7	12520.7
304.31	1182.3	12556.5	12556.5
304.41	1182.2	12563	12563
304.51	1182.1	12458.3	12458.3
304.61	1182	12330.5	12330.5
304.71	1181.9	12222.3	12222.3
304.81	1181.8	12324.3	12324.3
304.91	1181.7	12278.9	12278.9
305.01	1181.6	12111.3	12111.3
305.11	1181.5	12137.7	12137.7
305.21	1181.4	12251.1	12251.1
305.31	1181.3	12174.7	12174.7
305.41	1181.2	12196.6	12196.6
305.51	1181.1	12159.3	12159.3
305.61	1181	12017.1	12017.1
305.71	1180.9	11950.8	11950.8
305.81	1180.8	11877.9	11877.9
305.91	1180.7	11987.8	11987.8
306.01	1180.6	11880.6	11880.6
306.11	1180.5	11746.8	11746.8
306.21	1180.4	11943.1	11943.1
306.31	1180.3	11738.1	11738.1
306.41	1180.2	11915.9	11915.9
306.51	1180.1	11589.1	11589.1
306.61	1180	11664.3	11664.3
306.71	1179.9	11679.3	11679.3
306.81	1179.8	11585.2	11585.2
306.91	1179.7	11487.4	11487.4
307.01	1179.6	11573.2	11573.2
307.11	1179.5	11484.5	11484.5
307.21	1179.4	11295.1	11295.1
307.31	1179.3	11361.8	11361.8
307.41	1179.2	11290.1	11290.1
307.51	1179.1	11358.4	11358.4
307.61	1179	11281	11281
307.71	1178.9	11237.2	11237.2
307.81	1178.8	11239.6	11239.6
307.91	1178.7	11250.8	11250.8
308.01	1178.6	11132.9	11132.9
308.11	1178.5	11084	11084
308.21	1178.4	10966.9	10966.9
308.31	1178.3	11004.3	11004.3
308.41	1178.2	11032.4	11032.4
308.51	1178.1	10888	10888
308.61	1178	10754.3	10754.3
308.71	1177.9	10858.7	10858.7
308.81	1177.8	10875.9	10875.9
308.91	1177.7	10736.2	10736.2
309.01	1177.6	10840	10840
309.11	1177.5	10849.3	10849.3
309.21	1177.4	10864.4	10864.4
309.31	1177.3	10712.8	10712.8
309.41	1177.2	10786.5	10786.5
309.51	1177.1	10640.6	10640.6
309.61	1177	10559.1	10559.1
309.71	1176.9	10545.5	10545.5
309.81	1176.8	10534.4	10534.4
309.91	1176.7	10568.5	10568.5
310.01	1176.6	10595.1	10595.1
310.11	1176.5	10478.2	10478.2
310.21	1176.4	10454	10454
310.31	1176.3	10326.7	10326.7
310.41	1176.2	10348.7	10348.7
310.51	1176.1	10462.6	10462.6
310.61	1176	10314.7	10314.7
310.71	1175.9	10325.4	10325.4
310.81	1175.8	10323.4	10323.4
310.91	1175.7	10304.1	10304.1
311.01	1175.6	10277.4	10277.4
311.11	1175.5	10230.9	10230.9
311.21	1175.4	10192.1	10192.1
311.31	1175.3	10226.3	10226.3
311.41	1175.2	10351.8	10351.8
311.51	1175.1	10310.8	10310.8
311.61	1175	10155	10155
311.71	1174.9	10249	10249
311.81	1174.8	10206.5	10206.5
311.91	1174.7	10266	10266
312.01	1174.6	10240.5	10240.5
312.11	1174.5	10044.3	10044.3
312.21	1174.4	10078.7	10078.7
312.31	1174.3	9986.15	9986.15
312.41	1174.2	9992.82	9992.82
312.51	1174.1	10075.6	10075.6
312.61	1174	9948.75	9948.75
312.71	1173.9	9986.55	9986.55
312.81	1173.8	10026	10026
312.91	1173.7	9950.84	9950.84
313.01	1173.6	10010.8	10010.8
313.11	1173.5	9833.26	9833.26
313.21	1173.4	9808.92	9808.92
313.31	1173.3	9986.64	9986.64
313.41	1173.2	9760.52	9760.52
313.51	1173.1	9856.51	9856.51
313.61	1173	9970.67	9970.67
313.71	1172.9	9985.76	9985.76
313.81	1172.8	9839.17	9839.17
313.91	1172.7	9821.77	9821.77
314.01	1172.6	9878.33	9878.33
314.11	1172.5	9850.88	9850.88
314.21	1172.4	9824.45	9824.45
314.31	1172.3	9826.47	9826.47
314.41	1172.2	9754.97	9754.97
314.51	1172.1	9783.87	9783.87
314.61	1172	9864.54	9864.54
314.71	1171.9	9729.35	9729.35
314.81	1171.8	9705.7	9705.7
314.91	1171.7	9791.56	9791.56
315.01	1171.6	9692.57	9692.57
315.11	1171.5	9631.5	9631.5
315.21	1171.4	9840.03	9840.03
315.31	1171.3	9840.6	9840.6
315.41	1171.2	9854.24	9854.24
315.51	1171.1	9745.11	9745.11
315.61	1171	9797.3	9797.3
315.71	1170.9	9785.65	9785.65
315.81	1170.8	9861.96	9861.96
315.91	1170.7	9696.36	9696.36
316.01	1170.6	9740.35	9740.35
316.11	1170.5	9686.65	9686.65
316.21	1170.4	9722.93	9722.93
316.31	1170.3	9784.23	9784.23
316.41	1170.2	9906.79	9906.79
316.51	1170.1	9698.34	9698.34
316.61	1170	9712.33	9712.33
316.71	1169.9	9736.59	9736.59
316.81	1169.8	9708.72	9708.72
316.91	1169.7	9560.3	9560.3
317.01	1169.6	9553.32	9553.32
317.11	1169.5	9680.72	9680.72
317.21	1169.4	9726.17	9726.17
317.31	1169.3	9680.06	9680.06
317.41	1169.2	9695.57	9695.57
317.51	1169.1	9816.76	9816.76
317.61	1169	9851.47	9851.47
317.71	1168.9	9702.27	9702.27
317.81	1168.8	9654.22	9654.22
317.91	1168.7	9691.09	9691.09
318.01	1168.6	9587.6	9587.6
318.11	1168.5	9731.65	9731.65
318.21	1168.4	9688.75	9688.75
318.31	1168.3	9684.67	9684.67
318.41	1168.2	9865.57	9865.57
318.51	1168.1	9792.83	9792.83
318.61	1168	9784.95	9784.95
318.71	1167.9	9735.13	9735.13
318.81	1167.8	9714.17	9714.17
318.91	1167.7	9613.75	9613.75
319.01	1167.6	9683.77	9683.77
319.11	1167.5	9784.06	9784.06
319.21	1167.4	9772.21	9772.21
319.31	1167.3	9686.67	9686.67
319.41	1167.2	9751.64	9751.64
319.51	1167.1	9810.72	9810.72
319.61	1167	9791.75	9791.75
319.71	1166.9	9780.87	9780.87
319.81	1166.8	9687.76	9687.76
319.91	1166.7	9646.88	9646.88
320.01	1166.6	9662.42	9662.42
320.11	1166.5	9707.69	9707.69
320.21	1166.4	9616.93	9616.93
320.31	1166.3	9683.51	9683.51
320.41	1166.2	9681.87	9681.87
320.51	1166.1	9758.62	9758.62
320.61	1166	9631.82	9631.82
320.71	1165.9	9622.92	9622.92
320.81	1165.8	9748.53	9748.53
320.91	1165.7	9844.39	9844.39
321.01	1165.6	9768.27	9768.27
321.11	1165.5	9755.41	9755.41
321.21	1165.4	9656.68	9656.68
321.31	1165.3	9745.57	9745.57
321.41	1165.2	9840.03	9840.03
321.51	1165.1	9741.28	9741.28
321.61	1165	9769.33	9769.33
321.71	1164.9	9787.98	9787.98
321.81	1164.8	9860.62	9860.62
321.91	1164.7	9653.06	9653.06
322.01	1164.6	9726.83	9726.83
322.11	1164.5	9824.39	9824.39
322.21	1164.4	9769.07	9769.07
322.31	1164.3	9746.18	9746.18
322.41	1164.2	9884.36	9884.36
322.51	1164.1	9714.87	9714.87
322.61	1164	9693.59	9693.59
322.71	1163.9	9805.1	9805.1
322.81	1163.8	9859.81	9859.81
322.91	1163.7	9776.57	9776.57
323.01	1163.6	9868.18	9868.18
323.11	1163.5	9773.32	9773.32
323.21	1163.4	9696.19	9696.19
323.31	1163.3	9779.04	9779.04
323.41	1163.2	9765.11	9765.11
323.51	1163.1	9754.44	9754.44
323.61	1163	9885.34	9885.34
323.71	1162.9	9737.75	9737.75
323.81	1162.8	9748.85	9748.85
323.91	1162.7	9840.08	9840.08
324.01	1162.6	9788.69	9788.69
324.11	1162.5	9864.23	9864.23
324.21	1162.4	9962.73	9962.73
324.31	1162.3	9971.38	9971.38
324.41	1162.2	9830.48	9830.48
324.51	1162.1	9907.3	9907.3
324.61	1162	9950.83	9950.83
324.71	1161.9	9837.5	9837.5
324.81	1161.8	9935.47	9935.47
324.91	1161.7	9875.41	9875.41
325.01	1161.6	9913.59	9913.59
325.11	1161.5	9936	9936
325.21	1161.4	9946.61	9946.61
325.31	1161.3	9801.05	9801.05
325.41	1161.2	9980.39	9980.39
325.51	1161.1	9976.3	9976.3
325.61	1161	9951.09	9951.09
325.71	1160.9	9971.25	9971.25
325.81	1160.8	9931.14	9931.14
325.91	1160.7	9873.15	9873.15
326.01	1160.6	9879.71	9879.71
326.11	1160.5	10046.9	10046.9
326.21	1160.4	9939.25	9939.25
326.31	1160.3	9907.25	9907.25
326.41	1160.2	9835.66	9835.66
326.51	1160.1	9934.68	9934.68
326.61	1160	9937.76	9937.76
326.71	1159.9	9883.16	9883.16
326.81	1159.8	9893.74	9893.74
326.91	1159.7	10009.9	10009.9
327.01	1159.6	9903.65	9903.65
327.11	1159.5	9904.86	9904.86
327.21	1159.4	9979.14	9979.14
327.31	1159.3	10065.4	10065.4
327.41	1159.2	9961.03	9961.03
327.51	1159.1	10072.3	10072.3
327.61	1159	10150.7	10150.7
327.71	1158.9	10075	10075
327.81	1158.8	10011.9	10011.9
327.91	1158.7	10122.9	10122.9
328.01	1158.6	10105.1	10105.1
328.11	1158.5	10059.9	10059.9
328.21	1158.4	10087.6	10087.6
328.31	1158.3	9944.59	9944.59
328.41	1158.2	10047.5	10047.5
328.51	1158.1	10156	10156
328.61	1158	10094.6	10094.6
328.71	1157.9	10060.3	10060.3
328.81	1157.8	10025.5	10025.5
328.91	1157.7	10160.3	10160.3
329.01	1157.6	10012.9	10012.9
329.11	1157.5	10174.7	10174.7
329.21	1157.4	10154.3	10154.3
329.31	1157.3	10135	10135
329.41	1157.2	10045.3	10045.3
329.51	1157.1	10071.8	10071.8
329.61	1157	10177	10177
329.71	1156.9	10056	10056
329.81	1156.8	10133.8	10133.8
329.91	1156.7	10249.6	10249.6
330.01	1156.6	10311.2	10311.2
330.11	1156.5	10102.5	10102.5
330.21	1156.4	10189.9	10189.9
330.31	1156.3	10129.1	10129.1
330.41	1156.2	10170.2	10170.2
330.51	1156.1	10299.1	10299.1
330.61	1156	10151.7	10151.7
330.71	1155.9	10172.7	10172.7
330.81	1155.8	10089	10089
330.91	1155.7	10100.5	10100.5
331.01	1155.6	10176.6	10176.6
331.11	1155.5	10131.1	10131.1
331.21	1155.4	9890.81	9890.81
331.31	1155.3	10051.1	10051.1
331.41	1155.2	10367.3	10367.3
331.51	1155.1	10219.1	10219.1
331.61	1155	10206.9	10206.9
331.71	1154.9	10222.2	10222.2
331.81	1154.8	10141.5	10141.5
331.91	1154.7	10058.5	10058.5
332.01	1154.6	10079.1	10079.1
332.11	1154.5	10171.2	10171.2
332.21	1154.4	10187.4	10187.4
332.31	1154.3	10238	10238
332.41	1154.2	10315.4	10315.4
332.51	1154.1	10067.3	10067.3
332.61	1154	10215.9	10215.9
332.71	1153.9	10197.9	10197.9
332.81	1153.8	10281.7	10281.7
332.91	1153.7	10418	10418
333.01	1153.6	10300.8	10300.8
333.11	1153.5	10296.7	10296.7
333.21	1153.4	10249.6	10249.6
333.31	1153.3	10315	10315
333.41	1153.2	10393.1	10393.1
333.51	1153.1	10473.3	10473.3
333.61	1153	10401.7	10401.7
333.71	1152.9	10409.5	10409.5
333.81	1152.8	10363.7	10363.7
333.91	1152.7	10347.8	10347.8
334.01	1152.6	10426.2	10426.2
334.11	1152.5	10397.3	10397.3
334.21	1152.4	10214.1	10214.1
334.31	1152.3	10277.1	10277.1
334.41	1152.2	10318.9	10318.9
334.51	1152.1	10399.2	10399.2
334.61	1152	10307.8	10307.8
334.71	1151.9	10395.8	10395.8
334.81	1151.8	10558.9	10558.9
334.91	1151.7	10430.5	10430.5
335.01	1151.6	10399.7	10399.7
335.11	1151.5	10402.4	10402.4
335.21	1151.4	10354	10354
335.31	1151.3	10308.8	10308.8
335.41	1151.2	10373.2	10373.2
335.51	1151.1	10361.1	10361.1
335.61	1151	10549.2	10549.2
335.71	1150.9	10384.5	10384.5
335.81	1150.8	10329.2	10329.2
335.91	1150.7	10495.2	10495.2
336.01	1150.6	10381.8	10381.8
336.11	1150.5	10388.1	10388.1
336.21	1150.4	10470.3	10470.3
336.31	1150.3	10455.6	10455.6
336.41	1150.2	10403.5	10403.5
336.51	1150.1	10481.9	10481.9
336.61	1150	10397.8	10397.8
336.71	1149.9	10495.5	10495.5
336.81	1149.8	10475.4	10475.4
336.91	1149.7	10493.3	10493.3
337.01	1149.6	10475.7	10475.7
337.11	1149.5	10523.7	10523.7
337.21	1149.4	10553.9	10553.9
337.31	1149.3	10561.8	10561.8
337.41	1149.2	10459.9	10459.9
337.51	1149.1	10457.1	10457.1
337.61	1149	10568.3	10568.3
337.71	1148.9	10486.3	10486.3
337.81	1148.8	10499.5	10499.5
337.91	1148.7	10545.8	10545.8
338.01	1148.6	10519.6	10519.6
338.11	1148.5	10596.7	10596.7
338.21	1148.4	10645	10645
338.31	1148.3	10620.2	10620.2
338.41	1148.2	10639.7	10639.7
338.51	1148.1	10586.2	10586.2
338.61	1148	10497.9	10497.9
338.71	1147.9	10712.4	10712.4
338.81	1147.8	10725.4	10725.4
338.91	1147.7	10679.5	10679.5
339.01	1147.6	10645	10645
339.11	1147.5	10587.7	10587.7
339.21	1147.4	10601.6	10601.6
339.31	1147.3	10652.8	10652.8
339.41	1147.2	10735	10735
339.51	1147.1	10584.8	10584.8
339.61	1147	10738.5	10738.5
339.71	1146.9	10663.1	10663.1
339.81	1146.8	10758.3	10758.3
339.91	1146.7	10797.8	10797.8
340.01	1146.6	10841.2	10841.2
340.11	1146.5	10710.3	10710.3
340.21	1146.4	10732.5	10732.5
340.31	1146.3	10633.6	10633.6
340.41	1146.2	10862.9	10862.9
340.51	1146.1	10788.9	10788.9
340.61	1146	10781.4	10781.4
340.71	1145.9	10782.6	10782.6
340.81	1145.8	10882.4	10882.4
340.91	1145.7	10932.4	10932.4
341.01	1145.6	10801	10801
341.11	1145.5	10994.5	10994.5
341.21	1145.4	11030.3	11030.3
341.31	1145.3	10775.8	10775.8
341.41	1145.2	10924.8	10924.8
341.51	1145.1	11043	11043
341.61	1145	11022.6	11022.6
341.71	1144.9	10945.9	10945.9
341.81	1144.8	11069.7	11069.7
341.91	1144.7	11034.7	11034.7
342.01	1144.6	11068.8	11068.8
342.11	1144.5	11081	11081
342.21	1144.4	11114.6	11114.6
342.31	1144.3	11052.8	11052.8
342.41	1144.2	11148.7	11148.7
342.51	1144.1	11259.1	11259.1
342.61	1144	11177.9	11177.9
342.71	1143.9	11156.1	11156.1
342.81	1143.8	11154.3	11154.3
342.91	1143.7	11365	11365
343.01	1143.6	11385.7	11385.7
343.11	1143.5	11336	11336
343.21	1143.4	11249.5	11249.5
343.31	1143.3	11278.4	11278.4
343.41	1143.2	11475.7	11475.7
343.51	1143.1	11498.9	11498.9
343.61	1143	11734	11734
343.71	1142.9	11550.2	11550.2
343.81	1142.8	11641.5	11641.5
343.91	1142.7	11568.4	11568.4
344.01	1142.6	11563	11563
344.11	1142.5	11578.6	11578.6
344.21	1142.4	11614.4	11614.4
344.31	1142.3	11574	11574
344.41	1142.2	11674.9	11674.9
344.51	1142.1	11867.6	11867.6
344.61	1142	11812.2	11812.2
344.71	1141.9	11925.1	11925.1
344.81	1141.8	12040.5	12040.5
344.91	1141.7	11916.3	11916.3
345.01	1141.6	11822.3	11822.3
345.11	1141.5	12106.2	12106.2
345.21	1141.4	11964.1	11964.1
345.31	1141.3	12196.5	12196.5
345.41	1141.2	12138.2	12138.2
345.51	1141.1	12127.3	12127.3
345.61	1141	12163.6	12163.6
345.71	1140.9	12213.6	12213.6
345.81	1140.8	12180.6	12180.6
345.91	1140.7	12236.4	12236.4
346.01	1140.6	12399.7	12399.7
346.11	1140.5	12440.4	12440.4
346.21	1140.4	12558.2	12558.2
346.31	1140.3	12479.2	12479.2
346.41	1140.2	12579.5	12579.5
346.51	1140.1	12619.2	12619.2
346.61	1140	12646	12646
346.71	1139.9	12630.6	12630.6
346.81	1139.8	12711.1	12711.1
346.91	1139.7	12858.5	12858.5
347.01	1139.6	12918	12918
347.11	1139.5	12880.6	12880.6
347.21	1139.4	13075.3	13075.3
347.31	1139.3	13052.1	13052.1
347.41	1139.2	13260.9	13260.9
347.51	1139.1	13359.1	13359.1
347.61	1139	13469.5	13469.5
347.71	1138.9	13633.5	13633.5
347.81	1138.8	13601.3	13601.3
347.91	1138.7	13909.4	13909.4
348.01	1138.6	14011.2	14011.2
348.11	1138.5	14268.4	14268.4
348.21	1138.4	14414.2	14414.2
348.31	1138.3	14539.2	14539.2
348.41	1138.2	14651.4	14651.4
348.51	1138.1	14864.1	14864.1
348.61	1138	14896.5	14896.5
348.71	1137.9	15005.8	15005.8
348.81	1137.8	14895.3	14895.3
348.91	1137.7	14931	14931
349.01	1137.6	14976.1	14976.1
349.11	1137.5	14905.4	14905.4
349.21	1137.4	14839.2	14839.2
349.31	1137.3	14833.1	14833.1
349.41	1137.2	14629	14629
349.51	1137.1	14737.9	14737.9
349.61	1137	14841.5	14841.5
349.71	1136.9	14889.5	14889.5
349.81	1136.8	15152.5	15152.5
349.91	1136.7	15121.4	15121.4
350.01	1136.6	15143.3	15143.3
350.11	1136.5	15351.5	15351.5
350.21	1136.4	15711.2	15711.2
350.31	1136.3	15617.9	15617.9
350.41	1136.2	15744.2	15744.2
350.51	1136.1	15980.2	15980.2
350.61	1136	16234.6	16234.6
350.71	1135.9	16295.5	16295.5
350.81	1135.8	16769.6	16769.6
350.91	1135.7	17429.5	17429.5
351.01	1135.6	18288.6	18288.6
351.11	1135.5	18974.6	18974.6
351.21	1135.4	20090.5	20090.5
351.31	1135.3	21194.5	21194.5
351.41	1135.2	22349.9	22349.9
351.51	1135.1	23501.8	23501.8
351.61	1135	24124.9	24124.9
351.71	1134.9	24382.8	24382.8
351.81	1134.8	24763	24763
351.91	1134.7	24540.1	24540.1
352.01	1134.6	24296.2	24296.2
352.11	1134.5	23577.9	23577.9
352.21	1134.4	22944.2	22944.2
352.31	1134.3	22570	22570
352.41	1134.2	22203.5	22203.5
352.51	1134.1	21918.5	21918.5
352.61	1134	21684.1	21684.1
352.71	1133.9	21489.3	21489.3
352.81	1133.8	21082.3	21082.3
352.91	1133.7	20870.4	20870.4
353.01	1133.6	20783.6	20783.6
353.11	1133.5	20620.9	20620.9
353.21	1133.4	20570.9	20570.9
353.31	1133.3	20562.5	20562.5
353.41	1133.2	20278.9	20278.9
353.51	1133.1	20178.5	20178.5
353.61	1133	19758.8	19758.8
353.71	1132.9	19533.3	19533.3
353.81	1132.8	19152.2	19152.2
353.91	1132.7	18620.2	18620.2
354.01	1132.6	18124.1	18124.1
354.11	1132.5	17492.3	17492.3
354.21	1132.4	17260.8	17260.8
354.31	1132.3	17226.6	17226.6
354.41	1132.2	16728.3	16728.3
354.51	1132.1	16476.2	16476.2
354.61	1132	16281.2	16281.2
354.71	1131.9	16176.1	16176.1
354.81	1131.8	15938.6	15938.6
354.91	1131.7	15640.7	15640.7
355.01	1131.6	15421	15421
355.11	1131.5	14956	14956
355.21	1131.4	14887.6	14887.6
355.31	1131.3	14608.9	14608.9
355.41	1131.2	14544	14544
355.51	1131.1	14361	14361
355.61	1131	14351.2	14351.2
355.71	1130.9	14127.6	14127.6
355.81	1130.8	14041.3	14041.3
355.91	1130.7	13960	13960
356.01	1130.6	13905.4	13905.4
356.11	1130.5	13925.9	13925.9
356.21	1130.4	14048.5	14048.5
356.31	1130.3	13905.6	13905.6
356.41	1130.2	13726.5	13726.5
356.51	1130.1	13712.3	13712.3
356.61	1130	14001.1	14001.1
356.71	1129.9	14352.8	14352.8
356.81	1129.8	14365.3	14365.3
356.91	1129.7	14747.2	14747.2
357.01	1129.6	15220	15220
357.11	1129.5	15794.1	15794.1
357.21	1129.4	16699.9	16699.9
357.31	1129.3	17751.3	17751.3
357.41	1129.2	18582.7	18582.7
357.51	1129.1	19890.7	19890.7
357.61	1129	20614.5	20614.5
357.71	1128.9	20991.8	20991.8
357.81	1128.8	21027.4	21027.4
357.91	1128.7	20956.8	20956.8
358.01	1128.6	20023.9	20023.9
358.11	1128.5	19491.7	19491.7
358.21	1128.4	18422.4	18422.4
358.31	1128.3	17544.4	17544.4
358.41	1128.2	16360.9	16360.9
358.51	1128.1	15606.3	15606.3
358.61	1128	14967.9	14967.9
358.71	1127.9	14381.2	14381.2
358.81	1127.8	14204.2	14204.2
358.91	1127.7	13779.4	13779.4
359.01	1127.6	13573.5	13573.5
359.11	1127.5	13441.2	13441.2
359.21	1127.4	13181.7	13181.7
359.31	1127.3	12832.9	12832.9
359.41	1127.2	12384	12384
359.51	1127.1	12032.8	12032.8
359.61	1127	11355.1	11355.1
359.71	1126.9	11116.8	11116.8
359.81	1126.8	10539.7	10539.7
359.91	1126.7	10186.2	10186.2
360.01	1126.6	10030.5	10030.5
360.11	1126.5	9827.48	9827.48
360.21	1126.4	9519.8	9519.8
360.31	1126.3	9394.31	9394.31
360.41	1126.2	9395.51	9395.51
360.51	1126.1	9277.38	9277.38
360.61	1126	9082.79	9082.79
360.71	1125.9	9041.04	9041.04
360.81	1125.8	9012.44	9012.44
360.91	1125.7	9037.53	9037.53
361.01	1125.6	8999.56	8999.56
361.11	1125.5	8898.76	8898.76
361.21	1125.4	8819.53	8819.53
361.31	1125.3	8903.71	8903.71
361.41	1125.2	8804.68	8804.68
361.51	1125.1	8691.57	8691.57
361.61	1125	8798.66	8798.66
361.71	1124.9	8831.44	8831.44
361.81	1124.8	8712.41	8712.41
361.91	1124.7	8586.74	8586.74
362.01	1124.6	8550.29	8550.29
362.11	1124.5	8522.28	8522.28
362.21	1124.4	8429.62	8429.62
362.31	1124.3	8457.95	8457.95
362.41	1124.2	8452.61	8452.61
362.51	1124.1	8472.93	8472.93
362.61	1124	8288.57	8288.57
362.71	1123.9	8362	8362
362.81	1123.8	8249.77	8249.77
362.91	1123.7	8306.39	8306.39
363.01	1123.6	8321.48	8321.48
363.11	1123.5	8183.37	8183.37
363.21	1123.4	8079.88	8079.88
363.31	1123.3	8173.6	8173.6
363.41	1123.2	8045.25	8045.25
363.51	1123.1	7995.59	7995.59
363.61	1123	7994.26	7994.26
363.71	1122.9	7950.62	7950.62
363.81	1122.8	7830.01	7830.01
363.91	1122.7	7810.88	7810.88
364.01	1122.6	7815.37	7815.37
364.11	1122.5	7787.05	7787.05
364.21	1122.4	7840.9	7840.9
364.31	1122.3	7771.8	7771.8
364.41	1122.2	7710.2	7710.2
364.51	1122.1	7636.75	7636.75
364.61	1122	7671.47	7671.47
364.71	1121.9	7646.17	7646.17
364.81	1121.8	7587.67	7587.67
364.91	1121.7	7595.07	7595.07
365.01	1121.6	7587.72	7587.72
365.11	1121.5	7359.04	7359.04
365.21	1121.4	7421.85	7421.85
365.31	1121.3	7441.65	7441.65
365.41	1121.2	7439.57	7439.57
365.51	1121.1	7451.2	7451.2
365.61	1121	7393.74	7393.74
365.71	1120.9	7375.64	7375.64
365.81	1120.8	7237.73	7237.73
365.91	1120.7	7236.97	7236.97
366.01	1120.6	7286.52	7286.52
366.11	1120.5	7261.05	7261.05
366.21	1120.4	7233.92	7233.92
366.31	1120.3	7112.64	7112.64
366.41	1120.2	7018.07	7018.07
366.51	1120.1	7010.67	7010.67
366.61	1120	7127.28	7127.28
366.71	1119.9	7121.95	7121.95
366.81	1119.8	7211.93	7211.93
366.91	1119.7	7167.53	7167.53
367.01	1119.6	7088.8	7088.8
367.11	1119.5	7249.93	7249.93
367.21	1119.4	6982.81	6982.81
367.31	1119.3	6981.92	6981.92
367.41	1119.2	7032.13	7032.13
367.51	1119.1	7097.12	7097.12
367.61	1119	7018.54	7018.54
367.71	1118.9	6880.21	6880.21
367.81	1118.8	6925.89	6925.89
367.91	1118.7	7206.65	7206.65
368.01	1118.6	7125.13	7125.13
368.11	1118.5	7047.99	7047.99
368.21	1118.4	7020.2	7020.2
368.31	1118.3	6947.93	6947.93
368.41	1118.2	6982.76	6982.76
368.51	1118.1	7075.9	7075.9
368.61	1118	7003.82	7003.82
368.71	1117.9	7013.44	7013.44
368.81	1117.8	6964.36	6964.36
368.91	1117.7	7003.81	7003.81
369.01	1117.6	6971.48	6971.48
369.11	1117.5	6892.04	6892.04
369.21	1117.4	7029.37	7029.37
369.31	1117.3	6797.22	6797.22
369.41	1117.2	6899.06	6899.06
369.51	1117.1	6862.03	6862.03
369.61	1117	6919.9	6919.9
369.71	1116.9	6919.06	6919.06
369.81	1116.8	6891.14	6891.14
369.91	1116.7	6922.94	6922.94
370.01	1116.6	6853.61	6853.61
370.11	1116.5	6751.08	6751.08
370.21	1116.4	6623.14	6623.14
370.31	1116.3	6938.26	6938.26
370.41	1116.2	6906.02	6906.02
370.51	1116.1	6913.36	6913.36
370.61	1116	6935.51	6935.51
370.71	1115.9	6854.55	6854.55
370.81	1115.8	6798.19	6798.19
370.91	1115.7	6774.87	6774.87
371.01	1115.6	6869.7	6869.7
371.11	1115.5	6802.46	6802.46
371.21	1115.4	6887.47	6887.47
371.31	1115.3	6802.1	6802.1
371.41	1115.2	6725.87	6725.87
371.51	1115.1	6723.9	6723.9
371.61	1115	6706.05	6706.05
371.71	1114.9	6720.87	6720.87
371.81	1114.8	6829.67	6829.67
371.91	1114.7	6808.91	6808.91
372.01	1114.6	6727	6727
372.11	1114.5	6788.64	6788.64
372.21	1114.4	6674.88	6674.88
372.31	1114.3	6638.68	6638.68
372.41	1114.2	6678.72	6678.72
372.51	1114.1	6715.89	6715.89
372.61	1114	6753.03	6753.03
372.71	1113.9	6733.19	6733.19
372.81	1113.8	6721.67	6721.67
372.91	1113.7	6752.21	6752.21
373.01	1113.6	6696.27	6696.27
373.11	1113.5	6754.85	6754.85
373.21	1113.4	6804.71	6804.71
373.31	1113.3	6736.66	6736.66
373.41	1113.2	6612.1	6612.1
373.51	1113.1	6685.02	6685.02
373.61	1113	6616.21	6616.21
373.71	1112.9	6553.83	6553.83
373.81	1112.8	6564.45	6564.45
373.91	1112.7	6661.99	6661.99
374.01	1112.6	6684.23	6684.23
374.11	1112.5	6682.74	6682.74
374.21	1112.4	6572.28	6572.28
374.31	1112.3	6625.9	6625.9
374.41	1112.2	6662.4	6662.4
374.51	1112.1	6717.3	6717.3
374.61	1112	6688.64	6688.64
374.71	1111.9	6699.05	6699.05
374.81	1111.8	6711.88	6711.88
374.91	1111.7	6677.54	6677.54
375.01	1111.6	6539.21	6539.21
375.11	1111.5	6616.37	6616.37
375.21	1111.4	6848.61	6848.61
375.31	1111.3	6697.02	6697.02
375.41	1111.2	6630.56	6630.56
375.51	1111.1	6657.81	6657.81
375.61	1111	6718.15	6718.15
375.71	1110.9	6633.03	6633.03
375.81	1110.8	6679.85	6679.85
375.91	1110.7	6644.5	6644.5
376.01	1110.6	6684.1	6684.1
376.11	1110.5	6572.88	6572.88
376.21	1110.4	6611.41	6611.41
376.31	1110.3	6738.91	6738.91
376.41	1110.2	6750.61	6750.61
376.51	1110.1	6751.15	6751.15
376.61	1110	6767.03	6767.03
376.71	1109.9	6745.32	6745.32
376.81	1109.8	6578.31	6578.31
376.91	1109.7	6631.49	6631.49
377.01	1109.6	6637.2	6637.2
377.11	1109.5	6670.11	6670.11
377.21	1109.4	6644.67	6644.67
377.31	1109.3	6566.84	6566.84
377.41	1109.2	6557.37	6557.37
377.51	1109.1	6548.9	6548.9
377.61	1109	6726.59	6726.59
377.71	1108.9	6665.02	6665.02
377.81	1108.8	6564.22	6564.22
377.91	1108.7	6517.87	6517.87
378.01	1108.6	6670.03	6670.03
378.11	1108.5	6623.23	6623.23
378.21	1108.4	6512.66	6512.66
378.31	1108.3	6607.03	6607.03
378.41	1108.2	6541.31	6541.31
378.51	1108.1	6619.11	6619.11
378.61	1108	6602.54	6602.54
378.71	1107.9	6770.62	6770.62
378.81	1107.8	6702.04	6702.04
378.91	1107.7	6524.59	6524.59
379.01	1107.6	6666.44	6666.44
379.11	1107.5	6544.46	6544.46
379.21	1107.4	6468.01	6468.01
379.31	1107.3	6562.29	6562.29
379.41	1107.2	6672.35	6672.35
379.51	1107.1	6610.49	6610.49
379.61	1107	6626.63	6626.63
379.71	1106.9	6655.16	6655.16
379.81	1106.8	6663.31	6663.31
379.91	1106.7	6616.36	6616.36
380.01	1106.6	6624.66	6624.66
380.11	1106.5	6694.11	6694.11
380.21	1106.4	6586.7	6586.7
380.31	1106.3	6620.57	6620.57
380.41	1106.2	6626.95	6626.95
380.51	1106.1	6602.02	6602.02
380.61	1106	6520.88	6520.88
380.71	1105.9	6625.14	6625.14
380.81	1105.8	6710.67	6710.67
380.91	1105.7	6487.26	6487.26
381.01	1105.6	6604.77	6604.77
381.11	1105.5	6651.93	6651.93
381.21	1105.4	6639.46	6639.46
381.31	1105.3	6553.05	6553.05
381.41	1105.2	6607.65	6607.65
381.51	1105.1	6528	6528
381.61	1105	6620.69	6620.69
381.71	1104.9	6714.85	6714.85
381.81	1104.8	6698.78	6698.78
381.91	1104.7	6712.73	6712.73
382.01	1104.6	6646.02	6646.02
382.11	1104.5	6570.09	6570.09
382.21	1104.4	6551.93	6551.93
382.31	1104.3	6594.83	6594.83
382.41	1104.2	6480.83	6480.83
382.51	1104.1	6531.63	6531.63
382.61	1104	6590.69	6590.69
382.71	1103.9	6723.49	6723.49
382.81	1103.8	6723.35	6723.35
382.91	1103.7	6668.62	6668.62
383.01	1103.6	6515.67	6515.67
383.11	1103.5	6637.63	6637.63
383.21	1103.4	6591.01	6591.01
383.31	1103.3	6638.78	6638.78
383.41	1103.2	6475.95	6475.95
383.51	1103.1	6516.02	6516.02
383.61	1103	6611.62	6611.62
383.71	1102.9	6582.71	6582.71
383.81	1102.8	6561.92	6561.92
383.91	1102.7	6527.96	6527.96
384.01	1102.6	6548.39	6548.39
384.11	1102.5	6509.85	6509.85
384.21	1102.4	6705.59	6705.59
384.31	1102.3	6703.24	6703.24
384.41	1102.2	6739.67	6739.67
384.51	1102.1	6734.22	6734.22
384.61	1102	6727.08	6727.08
384.71	1101.9	6679.57	6679.57
384.81	1101.8	6602.07	6602.07
384.91	1101.7	6663.01	6663.01
385.01	1101.6	6682.55	6682.55
385.11	1101.5	6706.29	6706.29
385.21	1101.4	6613.49	6613.49
385.31	1101.3	6767.23	6767.23
385.41	1101.2	6695.2	6695.2
385.51	1101.1	6698.7	6698.7
385.61	1101	6718.49	6718.49
385.71	1100.9	6687.79	6687.79
385.81	1100.8	6675.22	6675.22
385.91	1100.7	6592.27	6592.27
386.01	1100.6	6588.25	6588.25
386.11	1100.5	6687.2	6687.2
386.21	1100.4	6734.77	6734.77
386.31	1100.3	6734.65	6734.65
386.41	1100.2	6676.72	6676.72
386.51	1100.1	6573.82	6573.82
386.61	1100	6639.09	6639.09