c:\users\mark\owncloud\muelheim group\projects\gas phase background\ex340_cec356_au n2 largearea.vms
Survey
	Characteristic Energy eV	1486.61	Acquisition Time s	1
KE_Survey	BE_Survey	CPS_Survey
286.61	1200	12331
287.11	1199.5	12299.7
287.61	1199	12620.7
288.11	1198.5	12512.7
288.61	1198	12312
289.11	1197.5	12324.4
289.61	1197	12247.9
290.11	1196.5	12373.9
290.61	1196	12324
291.11	1195.5	12383.8
291.61	1195	12518.8
292.11	1194.5	12453.2
292.61	1194	12549.8
293.11	1193.5	12482
293.61	1193	12392.7
294.11	1192.5	12431.8
294.61	1192	12025.5
295.11	1191.5	12152.3
295.61	1191	12262.1
296.11	1190.5	12165.3
296.61	1190	12421.9
297.11	1189.5	12422.3
297.61	1189	12287.2
298.11	1188.5	12280.8
298.61	1188	12175.8
299.11	1187.5	12277.7
299.61	1187	12397.8
300.11	1186.5	12349.3
300.61	1186	12320.2
301.11	1185.5	12321.3
301.61	1185	12369.1
302.11	1184.5	12352.7
302.61	1184	12479.5
303.11	1183.5	12293.1
303.61	1183	12413.5
304.11	1182.5	12387.4
304.61	1182	12241.1
305.11	1181.5	12388.5
305.61	1181	12266.1
306.11	1180.5	12135.7
306.61	1180	12472.1
307.11	1179.5	12135
307.61	1179	12164.7
308.11	1178.5	12156.3
308.61	1178	12386
309.11	1177.5	12322.4
309.61	1177	12159.8
310.11	1176.5	12092.5
310.61	1176	12254.4
311.11	1175.5	12411.4
311.61	1175	12347.4
312.11	1174.5	12433
312.61	1174	12318.1
313.11	1173.5	12088.5
313.61	1173	12225
314.11	1172.5	12227.1
314.61	1172	12287
315.11	1171.5	12276.9
315.61	1171	12311.5
316.11	1170.5	12272.1
316.61	1170	12327.9
317.11	1169.5	12218.4
317.61	1169	12270.1
318.11	1168.5	12176.8
318.61	1168	12211.9
319.11	1167.5	12188.4
319.61	1167	12501.1
320.11	1166.5	12318.9
320.61	1166	12299
321.11	1165.5	12292.9
321.61	1165	12168.5
322.11	1164.5	12401
322.61	1164	12406.7
323.11	1163.5	12378.4
323.61	1163	12273.7
324.11	1162.5	12404.5
324.61	1162	12520.1
325.11	1161.5	12456.7
325.61	1161	12353.7
326.11	1160.5	12331.1
326.61	1160	12025.2
327.11	1159.5	12260.3
327.61	1159	12217.2
328.11	1158.5	12247
328.61	1158	12272.1
329.11	1157.5	12323.3
329.61	1157	12293.5
330.11	1156.5	12159
330.61	1156	12272.3
331.11	1155.5	12233.8
331.61	1155	12238.3
332.11	1154.5	12225.6
332.61	1154	12156
333.11	1153.5	12287
333.61	1153	12226.8
334.11	1152.5	12204.7
334.61	1152	12219.9
335.11	1151.5	12225.3
335.61	1151	12378.1
336.11	1150.5	12290.9
336.61	1150	12314.7
337.11	1149.5	12435.4
337.61	1149	12411.4
338.11	1148.5	12255.3
338.61	1148	12272.2
339.11	1147.5	12209.1
339.61	1147	12215.7
340.11	1146.5	12279
340.61	1146	12132.2
341.11	1145.5	12294.2
341.61	1145	12376.4
342.11	1144.5	12299.8
342.61	1144	12218.8
343.11	1143.5	12057.1
343.61	1143	12175.1
344.11	1142.5	12223.1
344.61	1142	12087.9
345.11	1141.5	12108.7
345.61	1141	12236.1
346.11	1140.5	12228.2
346.61	1140	12235.7
347.11	1139.5	12056.2
347.61	1139	11993.2
348.11	1138.5	12162
348.61	1138	12259.9
349.11	1137.5	12144.9
349.61	1137	12315.3
350.11	1136.5	12310.4
350.61	1136	12362.5
351.11	1135.5	12313.1
351.61	1135	12111.3
352.11	1134.5	11998.3
352.61	1134	12114.1
353.11	1133.5	12336.2
353.61	1133	12284.7
354.11	1132.5	12194.5
354.61	1132	12226.3
355.11	1131.5	12192.7
355.61	1131	12352.1
356.11	1130.5	12351.6
356.61	1130	12196.8
357.11	1129.5	12194.6
357.61	1129	12233.3
358.11	1128.5	12109.9
358.61	1128	12164.9
359.11	1127.5	11963
359.61	1127	12090
360.11	1126.5	12148.7
360.61	1126	12106.7
361.11	1125.5	12148.7
361.61	1125	12080.9
362.11	1124.5	12091.7
362.61	1124	11950.5
363.11	1123.5	11963.2
363.61	1123	12033.5
364.11	1122.5	12129.2
364.61	1122	12078
365.11	1121.5	11945.7
365.61	1121	11985.5
366.11	1120.5	11955.5
366.61	1120	12000.7
367.11	1119.5	12071.5
367.61	1119	12047.1
368.11	1118.5	12015.3
368.61	1118	12028.5
369.11	1117.5	11979.4
369.61	1117	11967.3
370.11	1116.5	11864.3
370.61	1116	12034
371.11	1115.5	11900.7
371.61	1115	11880.7
372.11	1114.5	11980.6
372.61	1114	11978.6
373.11	1113.5	12090.8
373.61	1113	11914.1
374.11	1112.5	11900.8
374.61	1112	11996.2
375.11	1111.5	12050.8
375.61	1111	11956.6
376.11	1110.5	11985.7
376.61	1110	11951
377.11	1109.5	11972.4
377.61	1109	12118.1
378.11	1108.5	12154.1
378.61	1108	12083.2
379.11	1107.5	12143.6
379.61	1107	12063.4
380.11	1106.5	11957.2
380.61	1106	12198.9
381.11	1105.5	12001.1
381.61	1105	12173.3
382.11	1104.5	11910.7
382.61	1104	11937.7
383.11	1103.5	11892.8
383.61	1103	11876.4
384.11	1102.5	12035
384.61	1102	12079.7
385.11	1101.5	11872.4
385.61	1101	11912
386.11	1100.5	11941
386.61	1100	11967.9
387.11	1099.5	12018
387.61	1099	11995.8
388.11	1098.5	12058.3
388.61	1098	11828.4
389.11	1097.5	12004.1
389.61	1097	12103.3
390.11	1096.5	11997
390.61	1096	12012.6
391.11	1095.5	12201.1
391.61	1095	12162.1
392.11	1094.5	12076
392.61	1094	12246.6
393.11	1093.5	12274
393.61	1093	12114.7
394.11	1092.5	12162.9
394.61	1092	12160.1
395.11	1091.5	12139.6
395.61	1091	12076.2
396.11	1090.5	12060.9
396.61	1090	11986.4
397.11	1089.5	12087.9
397.61	1089	12097
398.11	1088.5	11866.2
398.61	1088	12069
399.11	1087.5	11931.5
399.61	1087	11988.6
400.11	1086.5	12035.6
400.61	1086	12033.7
401.11	1085.5	11987.4
401.61	1085	11921.9
402.11	1084.5	11793.8
402.61	1084	11775.1
403.11	1083.5	12029.8
403.61	1083	11792.4
404.11	1082.5	11777
404.61	1082	11938.2
405.11	1081.5	11758.9
405.61	1081	11613.9
406.11	1080.5	11690.3
406.61	1080	11700.9
407.11	1079.5	11569.8
407.61	1079	11557.8
408.11	1078.5	11678.9
408.61	1078	11820.3
409.11	1077.5	11674.4
409.61	1077	11674.7
410.11	1076.5	11566.5
410.61	1076	11530.9
411.11	1075.5	11560.2
411.61	1075	11704.7
412.11	1074.5	11773.1
412.61	1074	11649.5
413.11	1073.5	11716.3
413.61	1073	11826.3
414.11	1072.5	11736.1
414.61	1072	11740.1
415.11	1071.5	11834.4
415.61	1071	11706.8
416.11	1070.5	11610.5
416.61	1070	11707.8
417.11	1069.5	11536.4
417.61	1069	11723
418.11	1068.5	11611
418.61	1068	11648.9
419.11	1067.5	11675.8
419.61	1067	11830.8
420.11	1066.5	11592.8
420.61	1066	11673.4
421.11	1065.5	11686.5
421.61	1065	11657.7
422.11	1064.5	11733.2
422.61	1064	11699.9
423.11	1063.5	11576.3
423.61	1063	11625.8
424.11	1062.5	11618
424.61	1062	11608.6
425.11	1061.5	11665.9
425.61	1061	11755.7
426.11	1060.5	11685.8
426.61	1060	11750.9
427.11	1059.5	11642.4
427.61	1059	11549.5
428.11	1058.5	11671.7
428.61	1058	11714.1
429.11	1057.5	11553.9
429.61	1057	11572.5
430.11	1056.5	11647.6
430.61	1056	11569.3
431.11	1055.5	11680.6
431.61	1055	11717.7
432.11	1054.5	11549
432.61	1054	11660.1
433.11	1053.5	11836.4
433.61	1053	11790.4
434.11	1052.5	11598.7
434.61	1052	11689.9
435.11	1051.5	11704.6
435.61	1051	11554.5
436.11	1050.5	11676.4
436.61	1050	11590.5
437.11	1049.5	11615.1
437.61	1049	11689.7
438.11	1048.5	11735.4
438.61	1048	11713.9
439.11	1047.5	11732.9
439.61	1047	11750.7
440.11	1046.5	11818.8
440.61	1046	11752.5
441.11	1045.5	11532.7
441.61	1045	11759.2
442.11	1044.5	11731.9
442.61	1044	11741.9
443.11	1043.5	11763.7
443.61	1043	11811.6
444.11	1042.5	12065.1
444.61	1042	11981
445.11	1041.5	11783.8
445.61	1041	11745.8
446.11	1040.5	11720.4
446.61	1040	11763.5
447.11	1039.5	11814.8
447.61	1039	11847.5
448.11	1038.5	11809.9
448.61	1038	11832.4
449.11	1037.5	11910.5
449.61	1037	11840.3
450.11	1036.5	11929.1
450.61	1036	11956.1
451.11	1035.5	11902.5
451.61	1035	11772.9
452.11	1034.5	11891.3
452.61	1034	11745.8
453.11	1033.5	11875.6
453.61	1033	11806.8
454.11	1032.5	11939.7
454.61	1032	11856.3
455.11	1031.5	11742.5
455.61	1031	11816.6
456.11	1030.5	11825.1
456.61	1030	11914.8
457.11	1029.5	11773.3
457.61	1029	11689.6
458.11	1028.5	11783.7
458.61	1028	11684.7
459.11	1027.5	11764.3
459.61	1027	11830.2
460.11	1026.5	11607.5
460.61	1026	11806.1
461.11	1025.5	11694.6
461.61	1025	11772.6
462.11	1024.5	11698.7
462.61	1024	11766.1
463.11	1023.5	11738.4
463.61	1023	11669.6
464.11	1022.5	11666.7
464.61	1022	11702.5
465.11	1021.5	11669.2
465.61	1021	11710.7
466.11	1020.5	11794.1
466.61	1020	11649.3
467.11	1019.5	11508.6
467.61	1019	11706
468.11	1018.5	11594.8
468.61	1018	11702.7
469.11	1017.5	11906.7
469.61	1017	11700.9
470.11	1016.5	11640.4
470.61	1016	11748.6
471.11	1015.5	12023.3
471.61	1015	11825.2
472.11	1014.5	11643.2
472.61	1014	11682.1
473.11	1013.5	11765.8
473.61	1013	11825.7
474.11	1012.5	11869.2
474.61	1012	11653.9
475.11	1011.5	12005
475.61	1011	11931.2
476.11	1010.5	11830.2
476.61	1010	11729.7
477.11	1009.5	11685
477.61	1009	11847.5
478.11	1008.5	11859
478.61	1008	11762.4
479.11	1007.5	11765.2
479.61	1007	11745.6
480.11	1006.5	11806.8
480.61	1006	11693.8
481.11	1005.5	11980.4
481.61	1005	11882.5
482.11	1004.5	11814.4
482.61	1004	12038.9
483.11	1003.5	11837.7
483.61	1003	11761.4
484.11	1002.5	11747.9
484.61	1002	11890.3
485.11	1001.5	11904.2
485.61	1001	11737.7
486.11	1000.5	11711.3
486.61	1000	11724.7
487.11	999.5	11711.3
487.61	999	11804.5
488.11	998.5	11845
488.61	998	11951.9
489.11	997.5	11631.8
489.61	997	11695.3
490.11	996.5	11913.9
490.61	996	11842.3
491.11	995.5	11796.9
491.61	995	11811.9
492.11	994.5	11681.7
492.61	994	11746.8
493.11	993.5	11806.3
493.61	993	11761.5
494.11	992.5	11759
494.61	992	11765.1
495.11	991.5	11713.7
495.61	991	11735.8
496.11	990.5	11798.1
496.61	990	11808.4
497.11	989.5	11851.7
497.61	989	11792.5
498.11	988.5	11780.3
498.61	988	11726.1
499.11	987.5	11783.6
499.61	987	11788.8
500.11	986.5	11782.1
500.61	986	11808
501.11	985.5	11833.8
501.61	985	11685.4
502.11	984.5	11781.3
502.61	984	11765.7
503.11	983.5	11744.7
503.61	983	11897.8
504.11	982.5	12010.1
504.61	982	11986.1
505.11	981.5	11913.6
505.61	981	11783.2
506.11	980.5	11857.7
506.61	980	11960.2
507.11	979.5	11819.5
507.61	979	11741.1
508.11	978.5	11779
508.61	978	11888.4
509.11	977.5	11895.6
509.61	977	11899
510.11	976.5	12043.7
510.61	976	12072
511.11	975.5	12077.7
511.61	975	11925.1
512.11	974.5	11901.4
512.61	974	11813.9
513.11	973.5	11751
513.61	973	11816.7
514.11	972.5	11854.4
514.61	972	11898
515.11	971.5	11963.9
515.61	971	11837.3
516.11	970.5	12018.4
516.61	970	11885.8
517.11	969.5	11930.6
517.61	969	11759.8
518.11	968.5	11878.8
518.61	968	11803.9
519.11	967.5	11908.7
519.61	967	11721.6
520.11	966.5	11837.6
520.61	966	11846.3
521.11	965.5	11882.2
521.61	965	11897.9
522.11	964.5	11927.2
522.61	964	11996.8
523.11	963.5	11917.1
523.61	963	11949.4
524.11	962.5	11806.7
524.61	962	11900.8
525.11	961.5	11852.6
525.61	961	11880.7
526.11	960.5	12057.2
526.61	960	11938.9
527.11	959.5	11828.2
527.61	959	11765.9
528.11	958.5	11828.6
528.61	958	11822.5
529.11	957.5	11797.5
529.61	957	12008.4
530.11	956.5	11940
530.61	956	12092
531.11	955.5	11895.1
531.61	955	11962.9
532.11	954.5	11926.5
532.61	954	11997.7
533.11	953.5	11873.9
533.61	953	12014.9
534.11	952.5	12047.5
534.61	952	11978.4
535.11	951.5	11987.7
535.61	951	11989.8
536.11	950.5	12040.5
536.61	950	11916.9
537.11	949.5	11965.3
537.61	949	12087.5
538.11	948.5	12020.7
538.61	948	12114.3
539.11	947.5	12028.7
539.61	947	12042.5
540.11	946.5	12180.6
540.61	946	12118.7
541.11	945.5	12035.2
541.61	945	12077.6
542.11	944.5	12139.6
542.61	944	12047.1
543.11	943.5	12060
543.61	943	12090.2
544.11	942.5	12135.4
544.61	942	12145.4
545.11	941.5	12019.3
545.61	941	11966.8
546.11	940.5	12165.8
546.61	940	12168.9
547.11	939.5	12135.5
547.61	939	12066.7
548.11	938.5	12106.9
548.61	938	12032.2
549.11	937.5	11998.1
549.61	937	12150
550.11	936.5	12240.7
550.61	936	12176.8
551.11	935.5	12301.2
551.61	935	12122.8
552.11	934.5	12112.4
552.61	934	12172.5
553.11	933.5	12273.4
553.61	933	12145
554.11	932.5	12209.5
554.61	932	12160.2
555.11	931.5	12103.5
555.61	931	12063.8
556.11	930.5	12010.1
556.61	930	12225.8
557.11	929.5	12157.8
557.61	929	12204.6
558.11	928.5	12323
558.61	928	12411.2
559.11	927.5	12091.1
559.61	927	12217.3
560.11	926.5	12101.8
560.61	926	12168.7
561.11	925.5	12177.6
561.61	925	12131.4
562.11	924.5	12146.4
562.61	924	12236.7
563.11	923.5	12181.9
563.61	923	12178.7
564.11	922.5	12215.8
564.61	922	12146.6
565.11	921.5	12185.2
565.61	921	12220.1
566.11	920.5	12191
566.61	920	12157.1
567.11	919.5	12207.5
567.61	919	12276.4
568.11	918.5	12250.7
568.61	918	12284.2
569.11	917.5	12163.5
569.61	917	12283.8
570.11	916.5	12292.2
570.61	916	12367.2
571.11	915.5	12191.8
571.61	915	12246.7
572.11	914.5	12199.4
572.61	914	12383
573.11	913.5	12315.4
573.61	913	12422.5
574.11	912.5	12297.3
574.61	912	12343.8
575.11	911.5	12301.5
575.61	911	12320.4
576.11	910.5	12224.4
576.61	910	12320.1
577.11	909.5	12265.8
577.61	909	12141.3
578.11	908.5	12321.9
578.61	908	12313.5
579.11	907.5	12376
579.61	907	12301
580.11	906.5	12341.8
580.61	906	12295.2
581.11	905.5	12324
581.61	905	12325.4
582.11	904.5	12296.9
582.61	904	12363.6
583.11	903.5	12286.7
583.61	903	12357.2
584.11	902.5	12390.1
584.61	902	12284.7
585.11	901.5	12218.8
585.61	901	12262.8
586.11	900.5	12233.8
586.61	900	12251.8
587.11	899.5	12372.6
587.61	899	12335.8
588.11	898.5	12336.8
588.61	898	12194
589.11	897.5	12367.7
589.61	897	12400
590.11	896.5	12416.3
590.61	896	12321
591.11	895.5	12345
591.61	895	12380.5
592.11	894.5	12403.7
592.61	894	12310.9
593.11	893.5	12351.4
593.61	893	12403.8
594.11	892.5	12427.4
594.61	892	12400.1
595.11	891.5	12281
595.61	891	12090.3
596.11	890.5	12284.2
596.61	890	12386.3
597.11	889.5	12453.6
597.61	889	12342
598.11	888.5	12321
598.61	888	12389.2
599.11	887.5	12372.9
599.61	887	12259.1
600.11	886.5	12251.6
600.61	886	12489.4
601.11	885.5	12283.6
601.61	885	12428.5
602.11	884.5	12401.6
602.61	884	12540.2
603.11	883.5	12378.8
603.61	883	12394.1
604.11	882.5	12343.6
604.61	882	12476.5
605.11	881.5	12391.4
605.61	881	12334.7
606.11	880.5	12223.5
606.61	880	12338
607.11	879.5	12348.2
607.61	879	12408
608.11	878.5	12465.5
608.61	878	12564.9
609.11	877.5	12413.3
609.61	877	12536.5
610.11	876.5	12501.7
610.61	876	12359.7
611.11	875.5	12442.7
611.61	875	12367.2
612.11	874.5	12499.2
612.61	874	12533.7
613.11	873.5	12535.8
613.61	873	12573.9
614.11	872.5	12494.6
614.61	872	12673.6
615.11	871.5	12542.9
615.61	871	12437.4
616.11	870.5	12467.7
616.61	870	12588.4
617.11	869.5	12711.9
617.61	869	12612.3
618.11	868.5	12502.2
618.61	868	12611.9
619.11	867.5	12653.9
619.61	867	12614.4
620.11	866.5	12662.7
620.61	866	12645.4
621.11	865.5	12500.5
621.61	865	12659.9
622.11	864.5	12756.5
622.61	864	12790.3
623.11	863.5	12718.8
623.61	863	12543.2
624.11	862.5	12581.4
624.61	862	12522.5
625.11	861.5	12628.3
625.61	861	12665.2
626.11	860.5	12714.7
626.61	860	12676
627.11	859.5	12643.3
627.61	859	12686.1
628.11	858.5	12647.5
628.61	858	12657.4
629.11	857.5	12628.8
629.61	857	12474.4
630.11	856.5	12548.2
630.61	856	12790
631.11	855.5	12790.9
631.61	855	12693.3
632.11	854.5	12584.4
632.61	854	12471.6
633.11	853.5	12613.8
633.61	853	12725.2
634.11	852.5	12753
634.61	852	12657.6
635.11	851.5	12645.8
635.61	851	12764.3
636.11	850.5	12707.3
636.61	850	12846.9
637.11	849.5	12747
637.61	849	12732.8
638.11	848.5	12889.3
638.61	848	12795.1
639.11	847.5	12728.3
639.61	847	12861.4
640.11	846.5	12842.7
640.61	846	12943.1
641.11	845.5	13050.4
641.61	845	12905
642.11	844.5	12910.7
642.61	844	12912.3
643.11	843.5	12884.2
643.61	843	12967.9
644.11	842.5	12977.3
644.61	842	12859.6
645.11	841.5	12944.3
645.61	841	12840
646.11	840.5	12756.6
646.61	840	13050
647.11	839.5	13053.1
647.61	839	12925
648.11	838.5	12944.8
648.61	838	12959.3
649.11	837.5	13004.1
649.61	837	13037.1
650.11	836.5	13010.7
650.61	836	12992
651.11	835.5	12896.3
651.61	835	12820
652.11	834.5	12913.7
652.61	834	12878.7
653.11	833.5	12993.2
653.61	833	13039.8
654.11	832.5	12934.8
654.61	832	12872.4
655.11	831.5	12884.7
655.61	831	12854.6
656.11	830.5	12915.4
656.61	830	12992.7
657.11	829.5	12939.7
657.61	829	12897.8
658.11	828.5	13029
658.61	828	13095.1
659.11	827.5	12964.7
659.61	827	13142.8
660.11	826.5	13074.3
660.61	826	12985.4
661.11	825.5	13155.6
661.61	825	13020.6
662.11	824.5	13072.3
662.61	824	12986.1
663.11	823.5	13049.6
663.61	823	13239.2
664.11	822.5	13242.6
664.61	822	13198
665.11	821.5	13066.5
665.61	821	13099.2
666.11	820.5	13031.9
666.61	820	13321.6
667.11	819.5	13198.9
667.61	819	13245.9
668.11	818.5	13174.1
668.61	818	13237.8
669.11	817.5	13355.4
669.61	817	13075.4
670.11	816.5	13115.2
670.61	816	13107.9
671.11	815.5	13230.5
671.61	815	13200.1
672.11	814.5	13226.5
672.61	814	13254.8
673.11	813.5	13218.2
673.61	813	13247.8
674.11	812.5	13209.3
674.61	812	13221
675.11	811.5	13399.6
675.61	811	13370.3
676.11	810.5	13350.2
676.61	810	13280.1
677.11	809.5	13252.6
677.61	809	13236.4
678.11	808.5	13356
678.61	808	13187.9
679.11	807.5	13254.2
679.61	807	13247.7
680.11	806.5	13357.4
680.61	806	13222.1
681.11	805.5	13308.9
681.61	805	13363.7
682.11	804.5	13484.9
682.61	804	13397.7
683.11	803.5	13427
683.61	803	13531.8
684.11	802.5	13563.9
684.61	802	13479.1
685.11	801.5	13439.4
685.61	801	13336.1
686.11	800.5	13347.2
686.61	800	13322.8
687.11	799.5	13438.3
687.61	799	13592.1
688.11	798.5	13528.4
688.61	798	13516.4
689.11	797.5	13690.3
689.61	797	13538.5
690.11	796.5	13465.6
690.61	796	13460.7
691.11	795.5	13533.5
691.61	795	13658.8
692.11	794.5	13540.7
692.61	794	13558.8
693.11	793.5	13493.7
693.61	793	13545.1
694.11	792.5	13547.5
694.61	792	13509
695.11	791.5	13464.6
695.61	791	13724.2
696.11	790.5	13545.9
696.61	790	13662.3
697.11	789.5	13655.5
697.61	789	13578.3
698.11	788.5	13688.6
698.61	788	13705.8
699.11	787.5	13578.8
699.61	787	13605.3
700.11	786.5	13643.6
700.61	786	13634.1
701.11	785.5	13578.2
701.61	785	13710.9
702.11	784.5	13633.1
702.61	784	13825.7
703.11	783.5	13797
703.61	783	13693.3
704.11	782.5	13538.7
704.61	782	13828.7
705.11	781.5	13759.4
705.61	781	13849
706.11	780.5	13965.3
706.61	780	13860.9
707.11	779.5	13684
707.61	779	13691.6
708.11	778.5	13634.4
708.61	778	13635.5
709.11	777.5	13776
709.61	777	13777.7
710.11	776.5	13823.6
710.61	776	13818.8
711.11	775.5	13747
711.61	775	13796.3
712.11	774.5	13771.2
712.61	774	13910.8
713.11	773.5	13992.7
713.61	773	13998.1
714.11	772.5	14151.4
714.61	772	14090.5
715.11	771.5	14142.5
715.61	771	14075.7
716.11	770.5	14069.8
716.61	770	14027.4
717.11	769.5	13980.4
717.61	769	14158.1
718.11	768.5	14227.8
718.61	768	14397.9
719.11	767.5	14475.1
719.61	767	14471.1
720.11	766.5	14502.9
720.61	766	14557
721.11	765.5	14704.9
721.61	765	14984.9
722.11	764.5	15040.3
722.61	764	15118.4
723.11	763.5	15099.2
723.61	763	15275.2
724.11	762.5	15301.1
724.61	762	15332.6
725.11	761.5	15216.3
725.61	761	15164.5
726.11	760.5	15109.2
726.61	760	15082.8
727.11	759.5	14898.1
727.61	759	14719
728.11	758.5	14808.5
728.61	758	14482.1
729.11	757.5	14105.1
729.61	757	14238
730.11	756.5	14018.5
730.61	756	14063.3
731.11	755.5	13917.7
731.61	755	13807.9
732.11	754.5	13791
732.61	754	13844.4
733.11	753.5	13756.3
733.61	753	13920.5
734.11	752.5	13778.3
734.61	752	13624.1
735.11	751.5	13571.6
735.61	751	13687.1
736.11	750.5	13586.9
736.61	750	13529.6
737.11	749.5	13684.6
737.61	749	13763.1
738.11	748.5	13660
738.61	748	13676.2
739.11	747.5	13728.8
739.61	747	13463.6
740.11	746.5	13374.6
740.61	746	13399.1
741.11	745.5	13727
741.61	745	13727.6
742.11	744.5	13640.2
742.61	744	13728.7
743.11	743.5	13481
743.61	743	13286.6
744.11	742.5	13376.4
744.61	742	13431.6
745.11	741.5	13507.9
745.61	741	13498.5
746.11	740.5	13486.4
746.61	740	13593.7
747.11	739.5	13392.9
747.61	739	13624.3
748.11	738.5	13349.4
748.61	738	13529.8
749.11	737.5	13486.3
749.61	737	13422.1
750.11	736.5	13378.7
750.61	736	13305.5
751.11	735.5	13576.7
751.61	735	13731.7
752.11	734.5	13781
752.61	734	13748.5
753.11	733.5	13530.4
753.61	733	13594.3
754.11	732.5	13505.4
754.61	732	13573.8
755.11	731.5	13568.7
755.61	731	13692.4
756.11	730.5	13622.2
756.61	730	13869.2
757.11	729.5	13658.8
757.61	729	13586.7
758.11	728.5	13705.2
758.61	728	13579.3
759.11	727.5	13662.8
759.61	727	13716.2
760.11	726.5	13551.5
760.61	726	13563.1
761.11	725.5	13885.2
761.61	725	13673.2
762.11	724.5	13802.5
762.61	724	13806.7
763.11	723.5	13639.5
763.61	723	13701.8
764.11	722.5	13693.2
764.61	722	13865.8
765.11	721.5	13590.9
765.61	721	13777.6
766.11	720.5	13784.4
766.61	720	13847.9
767.11	719.5	13763
767.61	719	13813.9
768.11	718.5	13777.3
768.61	718	13814.1
769.11	717.5	13783.8
769.61	717	13763.8
770.11	716.5	13803.7
770.61	716	13887.6
771.11	715.5	13796.1
771.61	715	13840.1
772.11	714.5	13736.7
772.61	714	14000.9
773.11	713.5	13935.8
773.61	713	13708.9
774.11	712.5	13798.4
774.61	712	13917.4
775.11	711.5	13930.7
775.61	711	14090
776.11	710.5	14074.3
776.61	710	14000.8
777.11	709.5	14039.2
777.61	709	13965
778.11	708.5	13940.2
778.61	708	13808.2
779.11	707.5	13855.8
779.61	707	13899.7
780.11	706.5	13951.7
780.61	706	14077.7
781.11	705.5	14041.2
781.61	705	14126
782.11	704.5	13963.8
782.61	704	13889.1
783.11	703.5	14020.8
783.61	703	13995.9
784.11	702.5	13956.5
784.61	702	14067.4
785.11	701.5	14091.9
785.61	701	14155.4
786.11	700.5	14175.9
786.61	700	14046.4
787.11	699.5	14023.8
787.61	699	14304.7
788.11	698.5	14071.7
788.61	698	14137.2
789.11	697.5	14138.1
789.61	697	14141.5
790.11	696.5	14103.6
790.61	696	14094.2
791.11	695.5	13945.3
791.61	695	14305.2
792.11	694.5	14203.6
792.61	694	14116.2
793.11	693.5	14209.9
793.61	693	14066.1
794.11	692.5	14275.2
794.61	692	14247
795.11	691.5	14217.3
795.61	691	14254.5
796.11	690.5	14290
796.61	690	14369.8
797.11	689.5	14261.4
797.61	689	14371.5
798.11	688.5	14382.4
798.61	688	14323.9
799.11	687.5	14445.4
799.61	687	14286.9
800.11	686.5	14228.8
800.61	686	14291.6
801.11	685.5	14130.1
801.61	685	14258.4
802.11	684.5	14362.9
802.61	684	14533.7
803.11	683.5	14476.4
803.61	683	14336.2
804.11	682.5	14467.3
804.61	682	14412.4
805.11	681.5	14519
805.61	681	14575.5
806.11	680.5	14464.9
806.61	680	14475.8
807.11	679.5	14570.1
807.61	679	14418.5
808.11	678.5	14613.5
808.61	678	14444.5
809.11	677.5	14601.6
809.61	677	14525.1
810.11	676.5	14619.6
810.61	676	14609
811.11	675.5	14587.5
811.61	675	14673.3
812.11	674.5	14736.3
812.61	674	14760.5
813.11	673.5	14628.6
813.61	673	14721.1
814.11	672.5	14602.8
814.61	672	14621.3
815.11	671.5	14671.5
815.61	671	14669.9
816.11	670.5	14736.3
816.61	670	14772.2
817.11	669.5	14735.2
817.61	669	14730.2
818.11	668.5	14831.3
818.61	668	14872.6
819.11	667.5	14700.7
819.61	667	14661.2
820.11	666.5	14864.8
820.61	666	14873.9
821.11	665.5	14778.4
821.61	665	14699.8
822.11	664.5	14576.9
822.61	664	14683.3
823.11	663.5	14782
823.61	663	14966.6
824.11	662.5	14852.9
824.61	662	14787.6
825.11	661.5	14820
825.61	661	14942.4
826.11	660.5	14817.6
826.61	660	14972.2
827.11	659.5	15202.9
827.61	659	14851.7
828.11	658.5	14883.2
828.61	658	14848.2
829.11	657.5	14891.1
829.61	657	14985.8
830.11	656.5	15001.2
830.61	656	14897.6
831.11	655.5	14987.3
831.61	655	14897.7
832.11	654.5	14993.5
832.61	654	15142.5
833.11	653.5	15096.2
833.61	653	15226.3
834.11	652.5	15128.9
834.61	652	15496.7
835.11	651.5	15369.4
835.61	651	15170.3
836.11	650.5	15441.4
836.61	650	15590.3
837.11	649.5	15399.5
837.61	649	15509.8
838.11	648.5	15464.7
838.61	648	15704.3
839.11	647.5	15741
839.61	647	15983.1
840.11	646.5	16001.1
840.61	646	16345.8
841.11	645.5	16599.4
841.61	645	16707.8
842.11	644.5	16805.1
842.61	644	17141.6
843.11	643.5	17341.3
843.61	643	17300.1
844.11	642.5	17314.9
844.61	642	17415.2
845.11	641.5	17309.6
845.61	641	16940.3
846.11	640.5	16716.1
846.61	640	16366.1
847.11	639.5	16192.8
847.61	639	15806.5
848.11	638.5	15609
848.61	638	15734.3
849.11	637.5	15560.6
849.61	637	15400.2
850.11	636.5	15257.7
850.61	636	14889
851.11	635.5	14984.2
851.61	635	15031.5
852.11	634.5	14792.3
852.61	634	14913.9
853.11	633.5	14740.2
853.61	633	14696
854.11	632.5	14856.1
854.61	632	14708.1
855.11	631.5	14582.9
855.61	631	14629.2
856.11	630.5	14671.9
856.61	630	14544.3
857.11	629.5	14548.4
857.61	629	14664.3
858.11	628.5	14595.8
858.61	628	14657
859.11	627.5	14528.3
859.61	627	14593.6
860.11	626.5	14838.5
860.61	626	14542.6
861.11	625.5	14472
861.61	625	14639.9
862.11	624.5	14509.6
862.61	624	14592
863.11	623.5	14658.9
863.61	623	14711.9
864.11	622.5	14662
864.61	622	14572.9
865.11	621.5	14466.2
865.61	621	14602.9
866.11	620.5	14707.8
866.61	620	14650.2
867.11	619.5	14558.8
867.61	619	14848.6
868.11	618.5	14818.7
868.61	618	14718.1
869.11	617.5	14644.6
869.61	617	14739.4
870.11	616.5	14549.7
870.61	616	14759.9
871.11	615.5	14773.9
871.61	615	14820.8
872.11	614.5	14796.5
872.61	614	14781.4
873.11	613.5	14629.9
873.61	613	14695.3
874.11	612.5	14656.4
874.61	612	14721.8
875.11	611.5	14761.5
875.61	611	14755.6
876.11	610.5	14835.1
876.61	610	14817
877.11	609.5	14773.5
877.61	609	14881
878.11	608.5	14926.2
878.61	608	14844.4
879.11	607.5	14884.3
879.61	607	14782.7
880.11	606.5	14768.6
880.61	606	14768.8
881.11	605.5	14886.1
881.61	605	15070.1
882.11	604.5	14964.3
882.61	604	14924
883.11	603.5	14928.3
883.61	603	14919.6
884.11	602.5	15202.8
884.61	602	15023.3
885.11	601.5	14821.3
885.61	601	15021.2
886.11	600.5	15034.1
886.61	600	15164.8
887.11	599.5	15071.6
887.61	599	15175.1
888.11	598.5	15260
888.61	598	15061.3
889.11	597.5	14994.7
889.61	597	15031.4
890.11	596.5	15094.5
890.61	596	15181.8
891.11	595.5	15241.3
891.61	595	15074.5
892.11	594.5	15132.2
892.61	594	15363.3
893.11	593.5	15524.2
893.61	593	15191
894.11	592.5	15321.5
894.61	592	15408.1
895.11	591.5	15270
895.61	591	15314.4
896.11	590.5	15363.2
896.61	590	15363
897.11	589.5	15455.8
897.61	589	15519.2
898.11	588.5	15401.4
898.61	588	15406.3
899.11	587.5	15587.3
899.61	587	15473.6
900.11	586.5	15374.2
900.61	586	15554.8
901.11	585.5	15627.4
901.61	585	15526.5
902.11	584.5	15387.7
902.61	584	15501.1
903.11	583.5	15675
903.61	583	15746.5
904.11	582.5	15815.5
904.61	582	15665.9
905.11	581.5	15742.6
905.61	581	15799.6
906.11	580.5	15823.8
906.61	580	15714
907.11	579.5	15690
907.61	579	15863.3
908.11	578.5	15778.7
908.61	578	15761.8
909.11	577.5	15818.5
909.61	577	15894.7
910.11	576.5	15733.2
910.61	576	15672
911.11	575.5	15658.3
911.61	575	15744.7
912.11	574.5	16157.7
912.61	574	16121.7
913.11	573.5	15978.6
913.61	573	15976.7
914.11	572.5	15887.7
914.61	572	15923.3
915.11	571.5	15839.4
915.61	571	15950.6
916.11	570.5	16031
916.61	570	15890.5
917.11	569.5	16113
917.61	569	15958.6
918.11	568.5	15789.4
918.61	568	15867.3
919.11	567.5	16035.4
919.61	567	16131.3
920.11	566.5	16096.6
920.61	566	16130
921.11	565.5	16088.5
921.61	565	16037.7
922.11	564.5	16280.7
922.61	564	15946.4
923.11	563.5	16212
923.61	563	16315.1
924.11	562.5	16318.7
924.61	562	16251.3
925.11	561.5	16268.4
925.61	561	16451.1
926.11	560.5	16457.2
926.61	560	16365.5
927.11	559.5	16338.3
927.61	559	16343.9
928.11	558.5	16192.7
928.61	558	16265.9
929.11	557.5	16489.2
929.61	557	16475.8
930.11	556.5	16374.5
930.61	556	16501.7
931.11	555.5	16620.5
931.61	555	16788.9
932.11	554.5	16874.1
932.61	554	17016.6
933.11	553.5	17093
933.61	553	17522.9
934.11	552.5	17451.5
934.61	552	17684.9
935.11	551.5	18071.4
935.61	551	18551.1
936.11	550.5	19010.1
936.61	550	19542.1
937.11	549.5	20427.1
937.61	549	21457
938.11	548.5	22516.3
938.61	548	23905.1
939.11	547.5	25090.4
939.61	547	25956.3
940.11	546.5	26157.3
940.61	546	25645
941.11	545.5	24772.2
941.61	545	23441.1
942.11	544.5	21784.1
942.61	544	20378.8
943.11	543.5	19265.1
943.61	543	18209.1
944.11	542.5	17623.2
944.61	542	16928.2
945.11	541.5	16363.9
945.61	541	15945.7
946.11	540.5	15409.8
946.61	540	15329.8
947.11	539.5	15105.7
947.61	539	14899.4
948.11	538.5	14774.9
948.61	538	14735.3
949.11	537.5	14602.9
949.61	537	14337.8
950.11	536.5	14266.7
950.61	536	14142.1
951.11	535.5	14078.7
951.61	535	13979.3
952.11	534.5	13979.5
952.61	534	13943.3
953.11	533.5	14064.9
953.61	533	14176.5
954.11	532.5	14201
954.61	532	14115.5
955.11	531.5	13878.4
955.61	531	13798.6
956.11	530.5	13837.1
956.61	530	13848
957.11	529.5	13577.2
957.61	529	13750.3
958.11	528.5	13820.9
958.61	528	13768.6
959.11	527.5	13748.1
959.61	527	13817
960.11	526.5	13725.4
960.61	526	13646
961.11	525.5	13616.4
961.61	525	13551.1
962.11	524.5	13787
962.61	524	13802.5
963.11	523.5	13594
963.61	523	13816.6
964.11	522.5	13825.1
964.61	522	13763.3
965.11	521.5	13875.1
965.61	521	13931
966.11	520.5	13565.9
966.61	520	13730.4
967.11	519.5	13816.8
967.61	519	13689.3
968.11	518.5	13696.4
968.61	518	13779.2
969.11	517.5	13784.8
969.61	517	13695.1
970.11	516.5	13835.8
970.61	516	13942.5
971.11	515.5	13964.9
971.61	515	13910.8
972.11	514.5	13728.9
972.61	514	13780.4
973.11	513.5	13767.8
973.61	513	13750
974.11	512.5	13946.7
974.61	512	13814.4
975.11	511.5	13897
975.61	511	13873
976.11	510.5	13785.5
976.61	510	13836.3
977.11	509.5	13884.6
977.61	509	13631
978.11	508.5	13789.7
978.61	508	13968.3
979.11	507.5	14078.2
979.61	507	13885.7
980.11	506.5	13870.6
980.61	506	13953
981.11	505.5	14062.6
981.61	505	13875.1
982.11	504.5	14124.4
982.61	504	13890.3
983.11	503.5	13857.7
983.61	503	14068.6
984.11	502.5	13919.3
984.61	502	13989
985.11	501.5	14067.2
985.61	501	14066.9
986.11	500.5	14033.7
986.61	500	13985.2
987.11	499.5	14044
987.61	499	13956.1
988.11	498.5	13935.4
988.61	498	14049.9
989.11	497.5	14082.5
989.61	497	14136.5
990.11	496.5	14056.3
990.61	496	13900.9
991.11	495.5	14171.8
991.61	495	14100
992.11	494.5	14042.2
992.61	494	14175.5
993.11	493.5	14191.5
993.61	493	14095.2
994.11	492.5	14284.1
994.61	492	14124.9
995.11	491.5	14207.5
995.61	491	13999.6
996.11	490.5	14124
996.61	490	14066.7
997.11	489.5	14255.4
997.61	489	14289.3
998.11	488.5	14312.9
998.61	488	14274.1
999.11	487.5	14189.6
999.61	487	14283.8
1000.11	486.5	14364.8
1000.61	486	14353
1001.11	485.5	14336.8
1001.61	485	14285.5
1002.11	484.5	14312.8
1002.61	484	14166.1
1003.11	483.5	14297.3
1003.61	483	14398.8
1004.11	482.5	14355.5
1004.61	482	14323.5
1005.11	481.5	14342.5
1005.61	481	14313.6
1006.11	480.5	14498.2
1006.61	480	14443.9
1007.11	479.5	14476.6
1007.61	479	14501
1008.11	478.5	14499.3
1008.61	478	14550.2
1009.11	477.5	14517
1009.61	477	14492.1
1010.11	476.5	14561.6
1010.61	476	14609.7
1011.11	475.5	14638.8
1011.61	475	14514.1
1012.11	474.5	14673.5
1012.61	474	14639.8
1013.11	473.5	14506.1
1013.61	473	14594.6
1014.11	472.5	14453.6
1014.61	472	14696.1
1015.11	471.5	14699.4
1015.61	471	14748
1016.11	470.5	14758.3
1016.61	470	14713.3
1017.11	469.5	14588.7
1017.61	469	14585.1
1018.11	468.5	14937.7
1018.61	468	14731
1019.11	467.5	14714.1
1019.61	467	14782.6
1020.11	466.5	14686.5
1020.61	466	14775.6
1021.11	465.5	14889.1
1021.61	465	14720.2
1022.11	464.5	14781.6
1022.61	464	14815.8
1023.11	463.5	14806.6
1023.61	463	14736.7
1024.11	462.5	15044.8
1024.61	462	15103.4
1025.11	461.5	14985
1025.61	461	15002.5
1026.11	460.5	15024.4
1026.61	460	14982.5
1027.11	459.5	15138.1
1027.61	459	15061.9
1028.11	458.5	15123.1
1028.61	458	15235
1029.11	457.5	15097.8
1029.61	457	15051.2
1030.11	456.5	15088.3
1030.61	456	14994
1031.11	455.5	15060.7
1031.61	455	15205.5
1032.11	454.5	15208.1
1032.61	454	15195.8
1033.11	453.5	15069
1033.61	453	14890.3
1034.11	452.5	15132.4
1034.61	452	15139.6
1035.11	451.5	15282
1035.61	451	15200.5
1036.11	450.5	15148.1
1036.61	450	15096.5
1037.11	449.5	15204.6
1037.61	449	15362.2
1038.11	448.5	15339
1038.61	448	15292.1
1039.11	447.5	15210.9
1039.61	447	15439.2
1040.11	446.5	15461.8
1040.61	446	15383.8
1041.11	445.5	15409.6
1041.61	445	15337.8
1042.11	444.5	15415.5
1042.61	444	15386.7
1043.11	443.5	15458.3
1043.61	443	15522.2
1044.11	442.5	15586.1
1044.61	442	15602.6
1045.11	441.5	15301.9
1045.61	441	15481.7
1046.11	440.5	15528.4
1046.61	440	15445
1047.11	439.5	15486.7
1047.61	439	15439.6
1048.11	438.5	15496.1
1048.61	438	15681.6
1049.11	437.5	15673
1049.61	437	15751.8
1050.11	436.5	15639.6
1050.61	436	15928.5
1051.11	435.5	15710.7
1051.61	435	15639.4
1052.11	434.5	15737.2
1052.61	434	15740.6
1053.11	433.5	15681
1053.61	433	15832.9
1054.11	432.5	15851.5
1054.61	432	15759.2
1055.11	431.5	16001.7
1055.61	431	15849.1
1056.11	430.5	15833
1056.61	430	15857.5
1057.11	429.5	15921.6
1057.61	429	16042.8
1058.11	428.5	16125.3
1058.61	428	16015.9
1059.11	427.5	16181.7
1059.61	427	16006
1060.11	426.5	16083.1
1060.61	426	16150.8
1061.11	425.5	16157.8
1061.61	425	16128.4
1062.11	424.5	16140.1
1062.61	424	16206.5
1063.11	423.5	16124.1
1063.61	423	16011.6
1064.11	422.5	16247.3
1064.61	422	16227.5
1065.11	421.5	16293.1
1065.61	421	16302.8
1066.11	420.5	16393.7
1066.61	420	16333.7
1067.11	419.5	16280.5
1067.61	419	16474.2
1068.11	418.5	16305.4
1068.61	418	16282.5
1069.11	417.5	16348.8
1069.61	417	16340
1070.11	416.5	16445.2
1070.61	416	16336.2
1071.11	415.5	16361.8
1071.61	415	16439.5
1072.11	414.5	16395.7
1072.61	414	16690.2
1073.11	413.5	16626.7
1073.61	413	16441.1
1074.11	412.5	16598
1074.61	412	16545
1075.11	411.5	16513.4
1075.61	411	16631.4
1076.11	410.5	16607.3
1076.61	410	16746.3
1077.11	409.5	16601.6
1077.61	409	16788.5
1078.11	408.5	16819.3
1078.61	408	16812
1079.11	407.5	16980.8
1079.61	407	16903
1080.11	406.5	16942.3
1080.61	406	16846.6
1081.11	405.5	17004.2
1081.61	405	17047.9
1082.11	404.5	17122
1082.61	404	17120.6
1083.11	403.5	17182.4
1083.61	403	17062.8
1084.11	402.5	17255.4
1084.61	402	17263.7
1085.11	401.5	17224.3
1085.61	401	17396.1
1086.11	400.5	17394
1086.61	400	17532.4
1087.11	399.5	17353.7
1087.61	399	17361.2
1088.11	398.5	17459
1088.61	398	17348.6
1089.11	397.5	17351.2
1089.61	397	17307.8
1090.11	396.5	17202.7
1090.61	396	17469.9
1091.11	395.5	17561.4
1091.61	395	17415.8
1092.11	394.5	17455.5
1092.61	394	17365.1
1093.11	393.5	17633.2
1093.61	393	17781.4
1094.11	392.5	17769.1
1094.61	392	17836.3
1095.11	391.5	17877.9
1095.61	391	17899.9
1096.11	390.5	17834.5
1096.61	390	17935.4
1097.11	389.5	17853
1097.61	389	17998.4
1098.11	388.5	18091.8
1098.61	388	18179.1
1099.11	387.5	18064.8
1099.61	387	18131.9
1100.11	386.5	18012.1
1100.61	386	18077.4
1101.11	385.5	18242.3
1101.61	385	18343.5
1102.11	384.5	18246.2
1102.61	384	18193.3
1103.11	383.5	18331.4
1103.61	383	18457.7
1104.11	382.5	18592
1104.61	382	18372.4
1105.11	381.5	18480.2
1105.61	381	18531
1106.11	380.5	18474.3
1106.61	380	18594.6
1107.11	379.5	18708.8
1107.61	379	18683.3
1108.11	378.5	18814.3
1108.61	378	18696.4
1109.11	377.5	19035.5
1109.61	377	18869.1
1110.11	376.5	18743.3
1110.61	376	18908.1
1111.11	375.5	18855.8
1111.61	375	18993.2
1112.11	374.5	19041.5
1112.61	374	18959.8
1113.11	373.5	19153.1
1113.61	373	19205.2
1114.11	372.5	19121.6
1114.61	372	19080.7
1115.11	371.5	19300.8
1115.61	371	19372
1116.11	370.5	19297.4
1116.61	370	19402.7
1117.11	369.5	19543.1
1117.61	369	19799.3
1118.11	368.5	19793.5
1118.61	368	19665.8
1119.11	367.5	19756.5
1119.61	367	19779.9
1120.11	366.5	19620.1
1120.61	366	19551.9
1121.11	365.5	19676.3
1121.61	365	19959.3
1122.11	364.5	19793.5
1122.61	364	19940.2
1123.11	363.5	19970.1
1123.61	363	20133
1124.11	362.5	20392.1
1124.61	362	20339.9
1125.11	361.5	20426.2
1125.61	361	20556.7
1126.11	360.5	20964.3
1126.61	360	21363.2
1127.11	359.5	21361.5
1127.61	359	21703.3
1128.11	358.5	21994.6
1128.61	358	22609.2
1129.11	357.5	23434.5
1129.61	357	24459.9
1130.11	356.5	25463.8
1130.61	356	27122.6
1131.11	355.5	28989
1131.61	355	31506.3
1132.11	354.5	34212.6
1132.61	354	36894.4
1133.11	353.5	38245.6
1133.61	353	37807.1
1134.11	352.5	36070.9
1134.61	352	33288.5
1135.11	351.5	29917.6
1135.61	351	27002.7
1136.11	350.5	24720.4
1136.61	350	23031.3
1137.11	349.5	21778
1137.61	349	20665.6
1138.11	348.5	19762.3
1138.61	348	19029.2
1139.11	347.5	18567.5
1139.61	347	18230.3
1140.11	346.5	17866.3
1140.61	346	17500.9
1141.11	345.5	17350.4
1141.61	345	17360.1
1142.11	344.5	17168.9
1142.61	344	16987.3
1143.11	343.5	17025.8
1143.61	343	17208.1
1144.11	342.5	17149.8
1144.61	342	17401.3
1145.11	341.5	17893.5
1145.61	341	18232.9
1146.11	340.5	18782.6
1146.61	340	19525.1
1147.11	339.5	20443.8
1147.61	339	21969.2
1148.11	338.5	23574.1
1148.61	338	25944.5
1149.11	337.5	28924.5
1149.61	337	32810
1150.11	336.5	37530.8
1150.61	336	42175.1
1151.11	335.5	45424.2
1151.61	335	45392.2
1152.11	334.5	42028.5
1152.61	334	36505.3
1153.11	333.5	31007.4
1153.61	333	26285.9
1154.11	332.5	22242.8
1154.61	332	19490.5
1155.11	331.5	17421.1
1155.61	331	15565.6
1156.11	330.5	14127.9
1156.61	330	13220.6
1157.11	329.5	12590
1157.61	329	11872.5
1158.11	328.5	11498.6
1158.61	328	10924.8
1159.11	327.5	10589.7
1159.61	327	10223.9
1160.11	326.5	9922.11
1160.61	326	9706.23
1161.11	325.5	9535.05
1161.61	325	9603.88
1162.11	324.5	9241.68
1162.61	324	9089.74
1163.11	323.5	9114.05
1163.61	323	8897.71
1164.11	322.5	8748.79
1164.61	322	8721.97
1165.11	321.5	8802.78
1165.61	321	8749.6
1166.11	320.5	8745.1
1166.61	320	8617.41
1167.11	319.5	8568.25
1167.61	319	8589.68
1168.11	318.5	8523.44
1168.61	318	8518.02
1169.11	317.5	8477.36
1169.61	317	8457.1
1170.11	316.5	8296.85
1170.61	316	8204.12
1171.11	315.5	8372.75
1171.61	315	8288.8
1172.11	314.5	8225
1172.61	314	8267.92
1173.11	313.5	8136.68
1173.61	313	8045.71
1174.11	312.5	8039.99
1174.61	312	8130.93
1175.11	311.5	8125.04
1175.61	311	8115.72
1176.11	310.5	8132.42
1176.61	310	8019.78
1177.11	309.5	7975.18
1177.61	309	8014.58
1178.11	308.5	8033.18
1178.61	308	8029.26
1179.11	307.5	7962.82
1179.61	307	8047.98
1180.11	306.5	8050.72
1180.61	306	7997.8
1181.11	305.5	7959.12
1181.61	305	7928.91
1182.11	304.5	7969.93
1182.61	304	7924.85
1183.11	303.5	8029.5
1183.61	303	8059.94
1184.11	302.5	8024.45
1184.61	302	8004.01
1185.11	301.5	7950.98
1185.61	301	8033.91
1186.11	300.5	7987.12
1186.61	300	8136.46
1187.11	299.5	8166.79
1187.61	299	8083.96
1188.11	298.5	8000.41
1188.61	298	8014.57
1189.11	297.5	8032.05
1189.61	297	8186.5
1190.11	296.5	7983.5
1190.61	296	8040.92
1191.11	295.5	7936.35
1191.61	295	7917.84
1192.11	294.5	7951.34
1192.61	294	8010.34
1193.11	293.5	8023.71
1193.61	293	7936.91
1194.11	292.5	7950.43
1194.61	292	8136.76
1195.11	291.5	8104.17
1195.61	291	8071.04
1196.11	290.5	7995.74
1196.61	290	8042.82
1197.11	289.5	8012.4
1197.61	289	8185.54
1198.11	288.5	8231.54
1198.61	288	8196.5
1199.11	287.5	8091.83
1199.61	287	8189.46
1200.11	286.5	8374.18
1200.61	286	8499.62
1201.11	285.5	8776.75
1201.61	285	9074.69
1202.11	284.5	9717.94
1202.61	284	9270.11
1203.11	283.5	8336.41
1203.61	283	8037.21
1204.11	282.5	7893.55
1204.61	282	7951.17
1205.11	281.5	8042.55
1205.61	281	8075.33
1206.11	280.5	8134.57
1206.61	280	8003.07
1207.11	279.5	8030.16
1207.61	279	8044.71
1208.11	278.5	8040.06
1208.61	278	8059.53
1209.11	277.5	8087.59
1209.61	277	8227.25
1210.11	276.5	8136.68
1210.61	276	8087.61
1211.11	275.5	8015.75
1211.61	275	8170.92
1212.11	274.5	8084.36
1212.61	274	8198.27
1213.11	273.5	8138.52
1213.61	273	8140.73
1214.11	272.5	8156.35
1214.61	272	8202.72
1215.11	271.5	8249.51
1215.61	271	8209.58
1216.11	270.5	8217
1216.61	270	8116.43
1217.11	269.5	8160.27
1217.61	269	8162.65
1218.11	268.5	8189.31
1218.61	268	8123.49
1219.11	267.5	8253.11
1219.61	267	8313.6
1220.11	266.5	8272.52
1220.61	266	8352.13
1221.11	265.5	8208.85
1221.61	265	8226.98
1222.11	264.5	8289.74
1222.61	264	8342.87
1223.11	263.5	8441.12
1223.61	263	8476.26
1224.11	262.5	8491.08
1224.61	262	8556.39
1225.11	261.5	8484.33
1225.61	261	8598.89
1226.11	260.5	8567.07
1226.61	260	8567.66
1227.11	259.5	8374.52
1227.61	259	8349.44
1228.11	258.5	8249.52
1228.61	258	8431.83
1229.11	257.5	8347.89
1229.61	257	8377.12
1230.11	256.5	8431.76
1230.61	256	8341.26
1231.11	255.5	8482.78
1231.61	255	8363.44
1232.11	254.5	8271.99
1232.61	254	8279.25
1233.11	253.5	8332.49
1233.61	253	8281.04
1234.11	252.5	8232.6
1234.61	252	8404.25
1235.11	251.5	8466.25
1235.61	251	8262.27
1236.11	250.5	8314.3
1236.61	250	8333.15
1237.11	249.5	8409.22
1237.61	249	8426.33
1238.11	248.5	8398.54
1238.61	248	8425.4
1239.11	247.5	8546.01
1239.61	247	8568.41
1240.11	246.5	8414.73
1240.61	246	8394.27
1241.11	245.5	8541.6
1241.61	245	8428.79
1242.11	244.5	8426.23
1242.61	244	8528.08
1243.11	243.5	8765.06
1243.61	243	8589.55
1244.11	242.5	8584.2
1244.61	242	8630.43
1245.11	241.5	8798.27
1245.61	241	8865.47
1246.11	240.5	8609.41
1246.61	240	8696.71
1247.11	239.5	8581.07
1247.61	239	8464.24
1248.11	238.5	8507.81
1248.61	238	8488.37
1249.11	237.5	8541.25
1249.61	237	8478.9
1250.11	236.5	8606.03
1250.61	236	8683.01
1251.11	235.5	8560.81
1251.61	235	8610.09
1252.11	234.5	8736.44
1252.61	234	8611.29
1253.11	233.5	8712.42
1253.61	233	8707.08
1254.11	232.5	8647.88
1254.61	232	8722.91
1255.11	231.5	8786.61
1255.61	231	8674.67
1256.11	230.5	8744.37
1256.61	230	8656.29
1257.11	229.5	8718.59
1257.61	229	8792.76
1258.11	228.5	8757.54
1258.61	228	8718.23
1259.11	227.5	8789.49
1259.61	227	8838.77
1260.11	226.5	8908.28
1260.61	226	8875.07
1261.11	225.5	8849.55
1261.61	225	8953.1
1262.11	224.5	8965.33
1262.61	224	8922.26
1263.11	223.5	8955.45
1263.61	223	8753.92
1264.11	222.5	8800.02
1264.61	222	8674.96
1265.11	221.5	8656.1
1265.61	221	8822.6
1266.11	220.5	8879.67
1266.61	220	8904.42
1267.11	219.5	8801.82
1267.61	219	8955.66
1268.11	218.5	8858.23
1268.61	218	8770.49
1269.11	217.5	8943.72
1269.61	217	8979.56
1270.11	216.5	8980.76
1270.61	216	8825.83
1271.11	215.5	8897.99
1271.61	215	8890.46
1272.11	214.5	8875.02
1272.61	214	8975.76
1273.11	213.5	9009.55
1273.61	213	8944.33
1274.11	212.5	8946
1274.61	212	9005.56
1275.11	211.5	8948.82
1275.61	211	8932.55
1276.11	210.5	8928.49
1276.61	210	9059.68
1277.11	209.5	9162.45
1277.61	209	8946.03
1278.11	208.5	8985.47
1278.61	208	8972.06
1279.11	207.5	9081.92
1279.61	207	9087.45
1280.11	206.5	9066.63
1280.61	206	9108.74
1281.11	205.5	9175.06
1281.61	205	9184.42
1282.11	204.5	9241.77
1282.61	204	9108.24
1283.11	203.5	9187.76
1283.61	203	9167.98
1284.11	202.5	9182.32
1284.61	202	9084.56
1285.11	201.5	9295.09
1285.61	201	9256.05
1286.11	200.5	9233.74
1286.61	200	9223.84
1287.11	199.5	9174.27
1287.61	199	9246.06
1288.11	198.5	9244.97
1288.61	198	9277.32
1289.11	197.5	9264.8
1289.61	197	9243.49
1290.11	196.5	9325.68
1290.61	196	9398.77
1291.11	195.5	9481.33
1291.61	195	9332.59
1292.11	194.5	9280.7
1292.61	194	9401.54
1293.11	193.5	9390.8
1293.61	193	9306.87
1294.11	192.5	9403.47
1294.61	192	9410.35
1295.11	191.5	9457.89
1295.61	191	9392.69
1296.11	190.5	9468.24
1296.61	190	9384.23
1297.11	189.5	9381.53
1297.61	189	9505.95
1298.11	188.5	9443.82
1298.61	188	9380.21
1299.11	187.5	9391.25
1299.61	187	9682.08
1300.11	186.5	9541.92
1300.61	186	9411.41
1301.11	185.5	9543.81
1301.61	185	9633.43
1302.11	184.5	9569.48
1302.61	184	9598.85
1303.11	183.5	9684.67
1303.61	183	9747.3
1304.11	182.5	9815.47
1304.61	182	9753.12
1305.11	181.5	9761.49
1305.61	181	9652.28
1306.11	180.5	9781.04
1306.61	180	9866
1307.11	179.5	9739.75
1307.61	179	9763.98
1308.11	178.5	9804.54
1308.61	178	9670.42
1309.11	177.5	9782.94
1309.61	177	10032.9
1310.11	176.5	9921.28
1310.61	176	9918.93
1311.11	175.5	9878.1
1311.61	175	9858.9
1312.11	174.5	10068.4
1312.61	174	9949.6
1313.11	173.5	10039.7
1313.61	173	9918.6
1314.11	172.5	9832.69
1314.61	172	9970.78
1315.11	171.5	9890.37
1315.61	171	9862.48
1316.11	170.5	9995.79
1316.61	170	10076.9
1317.11	169.5	9970.05
1317.61	169	10170.7
1318.11	168.5	9970.74
1318.61	168	9896.73
1319.11	167.5	10115
1319.61	167	10043.9
1320.11	166.5	10113.1
1320.61	166	10021.2
1321.11	165.5	10178.9
1321.61	165	10104.3
1322.11	164.5	10122.9
1322.61	164	10146.6
1323.11	163.5	10130.5
1323.61	163	10231.8
1324.11	162.5	10378
1324.61	162	10300.1
1325.11	161.5	10516.7
1325.61	161	10422.7
1326.11	160.5	10285.4
1326.61	160	10359.5
1327.11	159.5	10310.9
1327.61	159	10410.7
1328.11	158.5	10463.2
1328.61	158	10262.5
1329.11	157.5	10331.7
1329.61	157	10410.4
1330.11	156.5	10523.2
1330.61	156	10390.8
1331.11	155.5	10423.2
1331.61	155	10456.2
1332.11	154.5	10480.9
1332.61	154	10436.7
1333.11	153.5	10473.8
1333.61	153	10626.6
1334.11	152.5	10542.2
1334.61	152	10679.1
1335.11	151.5	10712.3
1335.61	151	10640.3
1336.11	150.5	10760
1336.61	150	10803.2
1337.11	149.5	10877.9
1337.61	149	10843.2
1338.11	148.5	10802.5
1338.61	148	10793.1
1339.11	147.5	10873.4
1339.61	147	10821.5
1340.11	146.5	10874.1
1340.61	146	10925.7
1341.11	145.5	10954.8
1341.61	145	10948.7
1342.11	144.5	10788.2
1342.61	144	10935.3
1343.11	143.5	11032.3
1343.61	143	10961.5
1344.11	142.5	10931.6
1344.61	142	11118.9
1345.11	141.5	10972.3
1345.61	141	10908.5
1346.11	140.5	11054.5
1346.61	140	11001.4
1347.11	139.5	11101.2
1347.61	139	11101.4
1348.11	138.5	11103.3
1348.61	138	11188
1349.11	137.5	10943.3
1349.61	137	11234.9
1350.11	136.5	11221
1350.61	136	11164.7
1351.11	135.5	11019.6
1351.61	135	11241.5
1352.11	134.5	11292.2
1352.61	134	11368.1
1353.11	133.5	11273
1353.61	133	11213.9
1354.11	132.5	11373.2
1354.61	132	11324.9
1355.11	131.5	11572
1355.61	131	11642.2
1356.11	130.5	11395.9
1356.61	130	11451.7
1357.11	129.5	11683.2
1357.61	129	11594.9
1358.11	128.5	11746.8
1358.61	128	11718.4
1359.11	127.5	11699.3
1359.61	127	11760.6
1360.11	126.5	11747.2
1360.61	126	11771.1
1361.11	125.5	11706.9
1361.61	125	11938.3
1362.11	124.5	11934.3
1362.61	124	12022.6
1363.11	123.5	12071.7
1363.61	123	12270
1364.11	122.5	12548
1364.61	122	12565.3
1365.11	121.5	12262.5
1365.61	121	12461.4
1366.11	120.5	12464.3
1366.61	120	12515
1367.11	119.5	12663.9
1367.61	119	12736.1
1368.11	118.5	12664.7
1368.61	118	12687.9
1369.11	117.5	12745.4
1369.61	117	12777.7
1370.11	116.5	12816.1
1370.61	116	12993.2
1371.11	115.5	13022.7
1371.61	115	13053.1
1372.11	114.5	13100.3
1372.61	114	13157.1
1373.11	113.5	13181.1
1373.61	113	13231.5
1374.11	112.5	13419
1374.61	112	13579.7
1375.11	111.5	13389.6
1375.61	111	13522.8
1376.11	110.5	13419.8
1376.61	110	13650.5
1377.11	109.5	13500.4
1377.61	109	13253.8
1378.11	108.5	13199.6
1378.61	108	13067.9
1379.11	107.5	13108.5
1379.61	107	12593.6
1380.11	106.5	12538.2
1380.61	106	12503.2
1381.11	105.5	12355.9
1381.61	105	12355.4
1382.11	104.5	12202.4
1382.61	104	12333.3
1383.11	103.5	12383.6
1383.61	103	12459.6
1384.11	102.5	12370.1
1384.61	102	12308.5
1385.11	101.5	12348
1385.61	101	12483.3
1386.11	100.5	12498.8
1386.61	100	12648.3
1387.11	99.5	12717.4
1387.61	99	12582
1388.11	98.5	12519.9
1388.61	98	12350.8
1389.11	97.5	12336.2
1389.61	97	12179.2
1390.11	96.5	11756.7
1390.61	96	11669.4
1391.11	95.5	11798.2
1391.61	95	11919.1
1392.11	94.5	12268.4
1392.61	94	12272.8
1393.11	93.5	11978.8
1393.61	93	11633.8
1394.11	92.5	11596.3
1394.61	92	11772.8
1395.11	91.5	12041.7
1395.61	91	12784.1
1396.11	90.5	13248.2
1396.61	90	13603.4
1397.11	89.5	14915.5
1397.61	89	21050.9
1398.11	88.5	43914.3
1398.61	88	103882
1399.11	87.5	103170
1399.61	87	34336.6
1400.11	86.5	15752.8
1400.61	86	13465
1401.11	85.5	16668.7
1401.61	85	34157.7
1402.11	84.5	96035.1
1402.61	84	147841
1403.11	83.5	60039.5
1403.61	83	14028.6
1404.11	82.5	6964.4
1404.61	82	4944.53
1405.11	81.5	4080.25
1405.61	81	3554.94
1406.11	80.5	3274.43
1406.61	80	3025.5
1407.11	79.5	2906.73
1407.61	79	2807.15
1408.11	78.5	2816.94
1408.61	78	2740.89
1409.11	77.5	2760.11
1409.61	77	2802.71
1410.11	76.5	2902.7
1410.61	76	3031.34
1411.11	75.5	2946.32
1411.61	75	3146.03
1412.11	74.5	3180.8
1412.61	74	3258.15
1413.11	73.5	3140.34
1413.61	73	3026.7
1414.11	72.5	2935.57
1414.61	72	2882.2
1415.11	71.5	2731.98
1415.61	71	2586.32
1416.11	70.5	2457.13
1416.61	70	2375.89
1417.11	69.5	2302.14
1417.61	69	2266.16
1418.11	68.5	2245.66
1418.61	68	2205.24
1419.11	67.5	2143.39
1419.61	67	2068.9
1420.11	66.5	2171.37
1420.61	66	2191.77
1421.11	65.5	2156.61
1421.61	65	2199.38
1422.11	64.5	2250.71
1422.61	64	2206.46
1423.11	63.5	2333.97
1423.61	63	2323.71
1424.11	62.5	2448.96
1424.61	62	2519.75
1425.11	61.5	2647.49
1425.61	61	2821.35
1426.11	60.5	2972.19
1426.61	60	3295.66
1427.11	59.5	3543.76
1427.61	59	3792.77
1428.11	58.5	4081.15
1428.61	58	4236.35
1429.11	57.5	4457.87
1429.61	57	4422.98
1430.11	56.5	4215.32
1430.61	56	4053.21
1431.11	55.5	3671.09
1431.61	55	3393.3
1432.11	54.5	3048.67
1432.61	54	2759.27
1433.11	53.5	2496.06
1433.61	53	2260.79
1434.11	52.5	2132.44
1434.61	52	1930.69
1435.11	51.5	1863.16
1435.61	51	1752.72
1436.11	50.5	1692.37
1436.61	50	1583.26
1437.11	49.5	1551.93
1437.61	49	1462.86
1438.11	48.5	1396.72
1438.61	48	1453.46
1439.11	47.5	1455.52
1439.61	47	1387.72
1440.11	46.5	1301.52
1440.61	46	1280.75
1441.11	45.5	1378.15
1441.61	45	1319.68
1442.11	44.5	1328.04
1442.61	44	1302.64
1443.11	43.5	1354.91
1443.61	43	1302.72
1444.11	42.5	1352.14
1444.61	42	1381.06
1445.11	41.5	1435.72
1445.61	41	1392.39
1446.11	40.5	1300.26
1446.61	40	1292.45
1447.11	39.5	1257.37
1447.61	39	1335.36
1448.11	38.5	1298.62
1448.61	38	1282.56
1449.11	37.5	1315.35
1449.61	37	1276.27
1450.11	36.5	1275.62
1450.61	36	1300.7
1451.11	35.5	1276.53
1451.61	35	1263.44
1452.11	34.5	1232.78
1452.61	34	1232.36
1453.11	33.5	1235.8
1453.61	33	1268.4
1454.11	32.5	1283.01
1454.61	32	1273.66
1455.11	31.5	1343.74
1455.61	31	1330.72
1456.11	30.5	1293.77
1456.61	30	1305.3
1457.11	29.5	1293.17
1457.61	29	1283.08
1458.11	28.5	1303.98
1458.61	28	1281.91
1459.11	27.5	1239.87
1459.61	27	1244.18
1460.11	26.5	1228.68
1460.61	26	1240.61
1461.11	25.5	1259.03
1461.61	25	1207.24
1462.11	24.5	1218.79
1462.61	24	1214.19
1463.11	23.5	1187.73
1463.61	23	1186.56
1464.11	22.5	1203.62
1464.61	22	1243.92
1465.11	21.5	1300.01
1465.61	21	1195.35
1466.11	20.5	1228.89
1466.61	20	1253.39
1467.11	19.5	1227.45
1467.61	19	1268.87
1468.11	18.5	1246.04
1468.61	18	1198.1
1469.11	17.5	1227.8
1469.61	17	1237.69
1470.11	16.5	1229.5
1470.61	16	1179.99
1471.11	15.5	1190.24
1471.61	15	1235.8
1472.11	14.5	1198.04
1472.61	14	1192.21
1473.11	13.5	1190.49
1473.61	13	1214.63
1474.11	12.5	1221.64
1474.61	12	1211.66
1475.11	11.5	1272.95
1475.61	11	1245.61
1476.11	10.5	1264.75
1476.61	10	1432.18
1477.11	9.5	1535.71
1477.61	9	1718.06
1478.11	8.5	2195.49
1478.61	8	3244.26
1479.11	7.5	5116.6
1479.61	7	6907.66
1480.11	6.5	8156.94
1480.61	6	7808.48
1481.11	5.5	6120.43
1481.61	5	6164.44
1482.11	4.5	7506.51
1482.61	4	8700.62
1483.11	3.5	8814.63
1483.61	3	8432.63
1484.11	2.5	6667.92
1484.61	2	3034.22
1485.11	1.5	1358.34
1485.61	1	1012.76
1486.11	0.5	801.16
1486.61	-2.27374e-013	362.192