c:\users\mark\owncloud\muelheim group\projects\gas phase background\ex340_cec356_au n2 largearea.vms
Survey
	Characteristic Energy eV	1486.61	Acquisition Time s	1.5
KE_Survey	BE_Survey	CPS_Survey
286.61	1200	1427.15
287.11	1199.5	1405.17
287.61	1199	1452.79
288.11	1198.5	1434.55
288.61	1198	1446.71
289.11	1197.5	1411.19
289.61	1197	1436.08
290.11	1196.5	1451.83
290.61	1196	1429.03
291.11	1195.5	1440.67
291.61	1195	1434.41
292.11	1194.5	1474.57
292.61	1194	1409.96
293.11	1193.5	1474.69
293.61	1193	1455.07
294.11	1192.5	1475.49
294.61	1192	1466.74
295.11	1191.5	1461.53
295.61	1191	1508.18
296.11	1190.5	1479.81
296.61	1190	1511.95
297.11	1189.5	1522.88
297.61	1189	1506.93
298.11	1188.5	1497.41
298.61	1188	1474.55
299.11	1187.5	1462.59
299.61	1187	1543.22
300.11	1186.5	1487.11
300.61	1186	1485.1
301.11	1185.5	1514.89
301.61	1185	1530.67
302.11	1184.5	1476.63
302.61	1184	1515.11
303.11	1183.5	1549.27
303.61	1183	1531.29
304.11	1182.5	1538.19
304.61	1182	1527.09
305.11	1181.5	1560.11
305.61	1181	1550.33
306.11	1180.5	1568.13
306.61	1180	1584.03
307.11	1179.5	1576.85
307.61	1179	1558.47
308.11	1178.5	1571.86
308.61	1178	1587.07
309.11	1177.5	1564.61
309.61	1177	1550.97
310.11	1176.5	1593.64
310.61	1176	1542.97
311.11	1175.5	1576.42
311.61	1175	1560.28
312.11	1174.5	1591.42
312.61	1174	1608.93
313.11	1173.5	1592.89
313.61	1173	1641.41
314.11	1172.5	1583.6
314.61	1172	1622.35
315.11	1171.5	1676.66
315.61	1171	1668.1
316.11	1170.5	1624.58
316.61	1170	1644.67
317.11	1169.5	1629.3
317.61	1169	1674.83
318.11	1168.5	1663.7
318.61	1168	1627.87
319.11	1167.5	1701.37
319.61	1167	1709.68
320.11	1166.5	1688.33
320.61	1166	1711.3
321.11	1165.5	1676.55
321.61	1165	1688.53
322.11	1164.5	1670.51
322.61	1164	1667.77
323.11	1163.5	1660.25
323.61	1163	1629.97
324.11	1162.5	1738.67
324.61	1162	1652.15
325.11	1161.5	1704.07
325.61	1161	1666.6
326.11	1160.5	1711.26
326.61	1160	1697.94
327.11	1159.5	1683.05
327.61	1159	1677.59
328.11	1158.5	1642.57
328.61	1158	1733.27
329.11	1157.5	1744.03
329.61	1157	1717.03
330.11	1156.5	1713.11
330.61	1156	1819.97
331.11	1155.5	1767.97
331.61	1155	1737.6
332.11	1154.5	1772.04
332.61	1154	1723.87
333.11	1153.5	1770.14
333.61	1153	1761.83
334.11	1152.5	1770.21
334.61	1152	1827.7
335.11	1151.5	1772.6
335.61	1151	1773.49
336.11	1150.5	1757.63
336.61	1150	1806.93
337.11	1149.5	1817.7
337.61	1149	1832.6
338.11	1148.5	1833.41
338.61	1148	1783
339.11	1147.5	1833.21
339.61	1147	1799.65
340.11	1146.5	1854.09
340.61	1146	1846.78
341.11	1145.5	1846.97
341.61	1145	1843.5
342.11	1144.5	1889.89
342.61	1144	1858.97
343.11	1143.5	1887.78
343.61	1143	1868.57
344.11	1142.5	1878.11
344.61	1142	1870.71
345.11	1141.5	1865.19
345.61	1141	1880.65
346.11	1140.5	1906.93
346.61	1140	1905.48
347.11	1139.5	1910.07
347.61	1139	1862.1
348.11	1138.5	1930.57
348.61	1138	1876.23
349.11	1137.5	1905.04
349.61	1137	1937.39
350.11	1136.5	1940.15
350.61	1136	1899.26
351.11	1135.5	1889.02
351.61	1135	1848.74
352.11	1134.5	1906.27
352.61	1134	1913.46
353.11	1133.5	1894.47
353.61	1133	1820.85
354.11	1132.5	1909.88
354.61	1132	1972.64
355.11	1131.5	1959.27
355.61	1131	1926.48
356.11	1130.5	1949.71
356.61	1130	1913.68
357.11	1129.5	1859.91
357.61	1129	1891.97
358.11	1128.5	1882.02
358.61	1128	1890.67
359.11	1127.5	1937.39
359.61	1127	1923.16
360.11	1126.5	1918.03
360.61	1126	1911.07
361.11	1125.5	1900.47
361.61	1125	1891.24
362.11	1124.5	1985.19
362.61	1124	2012.59
363.11	1123.5	2007.59
363.61	1123	1948.25
364.11	1122.5	2022.85
364.61	1122	2039.34
365.11	1121.5	1955.3
365.61	1121	1989.48
366.11	1120.5	2045.51
366.61	1120	2067.68
367.11	1119.5	2132.91
367.61	1119	2128.7
368.11	1118.5	2092.07
368.61	1118	2068.62
369.11	1117.5	1997.84
369.61	1117	1957.04
370.11	1116.5	1991.95
370.61	1116	2001.07
371.11	1115.5	2050.53
371.61	1115	1971.42
372.11	1114.5	1962.67
372.61	1114	1960.85
373.11	1113.5	1961.25
373.61	1113	1947.01
374.11	1112.5	1949.8
374.61	1112	1973.82
375.11	1111.5	1965.06
375.61	1111	1946.88
376.11	1110.5	1985.05
376.61	1110	1989.52
377.11	1109.5	2017.18
377.61	1109	2010.85
378.11	1108.5	2037.22
378.61	1108	2012.61
379.11	1107.5	1999.27
379.61	1107	1985.13
380.11	1106.5	1992.64
380.61	1106	1978.83
381.11	1105.5	2005.37
381.61	1105	2020.77
382.11	1104.5	2026.07
382.61	1104	2063.89
383.11	1103.5	2038.75
383.61	1103	2040.27
384.11	1102.5	2040.01
384.61	1102	2046.39
385.11	1101.5	2015.38
385.61	1101	2000.18
386.11	1100.5	1980.14
386.61	1100	2010.41
387.11	1099.5	2074.82
387.61	1099	2086.89
388.11	1098.5	2060.28
388.61	1098	2120.65
389.11	1097.5	2026.4
389.61	1097	2047.6
390.11	1096.5	2076.37
390.61	1096	2088.27
391.11	1095.5	2080.69
391.61	1095	2098.8
392.11	1094.5	1995.9
392.61	1094	2063.83
393.11	1093.5	2144.31
393.61	1093	2122.63
394.11	1092.5	2062.14
394.61	1092	2071.03
395.11	1091.5	2116.24
395.61	1091	2069.39
396.11	1090.5	2106.03
396.61	1090	2094.69
397.11	1089.5	2073.67
397.61	1089	2127.93
398.11	1088.5	2088.23
398.61	1088	2042.41
399.11	1087.5	2124.38
399.61	1087	2142.77
400.11	1086.5	2122.73
400.61	1086	2123.11
401.11	1085.5	2086.89
401.61	1085	2129.32
402.11	1084.5	2120.1
402.61	1084	2169.73
403.11	1083.5	2132.03
403.61	1083	2136.73
404.11	1082.5	2134.58
404.61	1082	2159.52
405.11	1081.5	2115.78
405.61	1081	2114.06
406.11	1080.5	2167.69
406.61	1080	2164.24
407.11	1079.5	2163.55
407.61	1079	2236.87
408.11	1078.5	2184.31
408.61	1078	2131.11
409.11	1077.5	2180.91
409.61	1077	2179.95
410.11	1076.5	2112.27
410.61	1076	2139.95
411.11	1075.5	2159.24
411.61	1075	2150.69
412.11	1074.5	2170.5
412.61	1074	2209.73
413.11	1073.5	2210.79
413.61	1073	2191.93
414.11	1072.5	2196.61
414.61	1072	2197.1
415.11	1071.5	2225.65
415.61	1071	2237.97
416.11	1070.5	2241.11
416.61	1070	2303.05
417.11	1069.5	2225.76
417.61	1069	2265.27
418.11	1068.5	2231.48
418.61	1068	2167.49
419.11	1067.5	2205.88
419.61	1067	2265.63
420.11	1066.5	2298.65
420.61	1066	2263.35
421.11	1065.5	2250.65
421.61	1065	2209.95
422.11	1064.5	2253.49
422.61	1064	2327.05
423.11	1063.5	2254.37
423.61	1063	2271.68
424.11	1062.5	2198.17
424.61	1062	2259.47
425.11	1061.5	2286.86
425.61	1061	2249.62
426.11	1060.5	2270.39
426.61	1060	2306.59
427.11	1059.5	2280.39
427.61	1059	2305.47
428.11	1058.5	2319.03
428.61	1058	2326.57
429.11	1057.5	2364.36
429.61	1057	2266.67
430.11	1056.5	2323.07
430.61	1056	2322.61
431.11	1055.5	2385.91
431.61	1055	2347.13
432.11	1054.5	2319.89
432.61	1054	2296.41
433.11	1053.5	2314.05
433.61	1053	2336.89
434.11	1052.5	2358.36
434.61	1052	2357.55
435.11	1051.5	2353.11
435.61	1051	2352.06
436.11	1050.5	2320.76
436.61	1050	2362.06
437.11	1049.5	2352.83
437.61	1049	2354.31
438.11	1048.5	2352.99
438.61	1048	2416.09
439.11	1047.5	2401.89
439.61	1047	2380.2
440.11	1046.5	2340.75
440.61	1046	2369.31
441.11	1045.5	2382.84
441.61	1045	2383.54
442.11	1044.5	2396.86
442.61	1044	2411.36
443.11	1043.5	2377.44
443.61	1043	2408.66
444.11	1042.5	2426.75
444.61	1042	2362.73
445.11	1041.5	2398.51
445.61	1041	2401.33
446.11	1040.5	2427.1
446.61	1040	2412.45
447.11	1039.5	2384.5
447.61	1039	2446.97
448.11	1038.5	2424.57
448.61	1038	2412.81
449.11	1037.5	2489.73
449.61	1037	2508.18
450.11	1036.5	2531.62
450.61	1036	2485.32
451.11	1035.5	2475.91
451.61	1035	2408.55
452.11	1034.5	2450.69
452.61	1034	2506.7
453.11	1033.5	2462.43
453.61	1033	2459.13
454.11	1032.5	2505.61
454.61	1032	2456.73
455.11	1031.5	2449.66
455.61	1031	2450.92
456.11	1030.5	2467.65
456.61	1030	2464.04
457.11	1029.5	2495.59
457.61	1029	2473.27
458.11	1028.5	2460.13
458.61	1028	2454.54
459.11	1027.5	2500.72
459.61	1027	2563.73
460.11	1026.5	2511.25
460.61	1026	2456.17
461.11	1025.5	2508.71
461.61	1025	2515.73
462.11	1024.5	2567.99
462.61	1024	2522.92
463.11	1023.5	2537.23
463.61	1023	2527.61
464.11	1022.5	2588.9
464.61	1022	2527.86
465.11	1021.5	2535.05
465.61	1021	2538.37
466.11	1020.5	2522.62
466.61	1020	2500.05
467.11	1019.5	2586.06
467.61	1019	2545.59
468.11	1018.5	2566.98
468.61	1018	2629.27
469.11	1017.5	2583.04
469.61	1017	2610.21
470.11	1016.5	2602.02
470.61	1016	2596.03
471.11	1015.5	2588.57
471.61	1015	2562.55
472.11	1014.5	2594.23
472.61	1014	2575.9
473.11	1013.5	2629.51
473.61	1013	2659.52
474.11	1012.5	2691.49
474.61	1012	2698.57
475.11	1011.5	2659.5
475.61	1011	2663.87
476.11	1010.5	2615.09
476.61	1010	2655.19
477.11	1009.5	2647.73
477.61	1009	2618.73
478.11	1008.5	2655.72
478.61	1008	2743.29
479.11	1007.5	2639.7
479.61	1007	2638.51
480.11	1006.5	2663.18
480.61	1006	2689.63
481.11	1005.5	2679.87
481.61	1005	2723.81
482.11	1004.5	2700.26
482.61	1004	2708.82
483.11	1003.5	2679.19
483.61	1003	2705.68
484.11	1002.5	2684.7
484.61	1002	2660.37
485.11	1001.5	2661.07
485.61	1001	2735.19
486.11	1000.5	2674.11
486.61	1000	2692.44
487.11	999.5	2713.07
487.61	999	2704.15
488.11	998.5	2726.69
488.61	998	2694.04
489.11	997.5	2742.41
489.61	997	2727.69
490.11	996.5	2756.32
490.61	996	2767.84
491.11	995.5	2748.33
491.61	995	2755.53
492.11	994.5	2760.33
492.61	994	2715.37
493.11	993.5	2781.85
493.61	993	2792.78
494.11	992.5	2748.49
494.61	992	2757.34
495.11	991.5	2820.46
495.61	991	2853.51
496.11	990.5	2859.42
496.61	990	2830.13
497.11	989.5	2776.09
497.61	989	2733.47
498.11	988.5	2849.97
498.61	988	2766.94
499.11	987.5	2778.76
499.61	987	2746.07
500.11	986.5	2735.77
500.61	986	2788.23
501.11	985.5	2784.47
501.61	985	2768.03
502.11	984.5	2795.99
502.61	984	2817.63
503.11	983.5	2777.55
503.61	983	2831.19
504.11	982.5	2899.58
504.61	982	2909.37
505.11	981.5	2877.26
505.61	981	2859.35
506.11	980.5	2837.17
506.61	980	2856.23
507.11	979.5	2915.99
507.61	979	2858.53
508.11	978.5	2890.7
508.61	978	2894.37
509.11	977.5	2833.35
509.61	977	2866.05
510.11	976.5	2952.23
510.61	976	2962.97
511.11	975.5	2888.12
511.61	975	2897.48
512.11	974.5	2903.19
512.61	974	2932.03
513.11	973.5	2968.81
513.61	973	2895.94
514.11	972.5	2957.98
514.61	972	2947.96
515.11	971.5	2950.29
515.61	971	2927.21
516.11	970.5	2936.81
516.61	970	3025.93
517.11	969.5	3009.69
517.61	969	2925.51
518.11	968.5	2923.75
518.61	968	2976
519.11	967.5	2935.97
519.61	967	2958.92
520.11	966.5	2966.58
520.61	966	3046.65
521.11	965.5	3005.01
521.61	965	3091.8
522.11	964.5	3016.48
522.61	964	2979.21
523.11	963.5	2997.02
523.61	963	3094.48
524.11	962.5	3024.19
524.61	962	3043.69
525.11	961.5	3031.63
525.61	961	2995.37
526.11	960.5	3000.8
526.61	960	3027.71
527.11	959.5	3049.6
527.61	959	3036.2
528.11	958.5	3033.85
528.61	958	3063.64
529.11	957.5	3064.07
529.61	957	3051.53
530.11	956.5	3090.67
530.61	956	3049.74
531.11	955.5	3042.92
531.61	955	3051.97
532.11	954.5	3003.27
532.61	954	3047.11
533.11	953.5	3117.74
533.61	953	3168.11
534.11	952.5	3092.44
534.61	952	3103.13
535.11	951.5	3117.97
535.61	951	3103.87
536.11	950.5	3095.09
536.61	950	3053.32
537.11	949.5	3071.62
537.61	949	3096.4
538.11	948.5	3130.74
538.61	948	3172.63
539.11	947.5	3139.33
539.61	947	3106.98
540.11	946.5	3087.47
540.61	946	3073.47
541.11	945.5	3127.9
541.61	945	3155.11
542.11	944.5	3118.23
542.61	944	3145.77
543.11	943.5	3192.52
543.61	943	3175.46
544.11	942.5	3097.19
544.61	942	3144.19
545.11	941.5	3126.02
545.61	941	3112.91
546.11	940.5	3181.74
546.61	940	3209.63
547.11	939.5	3138.89
547.61	939	3173.4
548.11	938.5	3214.71
548.61	938	3168.33
549.11	937.5	3205.95
549.61	937	3211.08
550.11	936.5	3237.55
550.61	936	3244.56
551.11	935.5	3218.73
551.61	935	3126.53
552.11	934.5	3179.98
552.61	934	3221.67
553.11	933.5	3222.84
553.61	933	3206.39
554.11	932.5	3224.31
554.61	932	3307.73
555.11	931.5	3286.16
555.61	931	3198.97
556.11	930.5	3256.18
556.61	930	3255.05
557.11	929.5	3272.59
557.61	929	3279.03
558.11	928.5	3195.03
558.61	928	3200.47
559.11	927.5	3257.49
559.61	927	3272.73
560.11	926.5	3284
560.61	926	3312.48
561.11	925.5	3342.94
561.61	925	3272.59
562.11	924.5	3306
562.61	924	3340.8
563.11	923.5	3343.45
563.61	923	3292.76
564.11	922.5	3276.22
564.61	922	3302.59
565.11	921.5	3333.83
565.61	921	3329.4
566.11	920.5	3355.27
566.61	920	3313.14
567.11	919.5	3381.41
567.61	919	3414.25
568.11	918.5	3383.07
568.61	918	3293.61
569.11	917.5	3349.27
569.61	917	3377.6
570.11	916.5	3349.01
570.61	916	3369.96
571.11	915.5	3364.99
571.61	915	3340.7
572.11	914.5	3353.17
572.61	914	3401.12
573.11	913.5	3452.21
573.61	913	3380.94
574.11	912.5	3365.24
574.61	912	3417.98
575.11	911.5	3421.65
575.61	911	3439.65
576.11	910.5	3498.59
576.61	910	3428.45
577.11	909.5	3442.9
577.61	909	3398.26
578.11	908.5	3384.32
578.61	908	3414.67
579.11	907.5	3469.99
579.61	907	3503.79
580.11	906.5	3411.37
580.61	906	3450.56
581.11	905.5	3428.32
581.61	905	3483.18
582.11	904.5	3448.1
582.61	904	3453.04
583.11	903.5	3505.57
583.61	903	3496.77
584.11	902.5	3485.75
584.61	902	3457.74
585.11	901.5	3464.8
585.61	901	3486.23
586.11	900.5	3540.86
586.61	900	3498.56
587.11	899.5	3517.71
587.61	899	3488.21
588.11	898.5	3498.32
588.61	898	3493.77
589.11	897.5	3544.05
589.61	897	3487.87
590.11	896.5	3503.35
590.61	896	3507.57
591.11	895.5	3545.08
591.61	895	3525.87
592.11	894.5	3469.17
592.61	894	3533.47
593.11	893.5	3551.41
593.61	893	3491.43
594.11	892.5	3485.7
594.61	892	3517.73
595.11	891.5	3510.97
595.61	891	3559.71
596.11	890.5	3584.1
596.61	890	3521.75
597.11	889.5	3622.71
597.61	889	3606.71
598.11	888.5	3640.8
598.61	888	3622.43
599.11	887.5	3616.64
599.61	887	3608.95
600.11	886.5	3615.13
600.61	886	3680.29
601.11	885.5	3677.98
601.61	885	3619.24
602.11	884.5	3609.17
602.61	884	3678.29
603.11	883.5	3638.29
603.61	883	3676.4
604.11	882.5	3668.45
604.61	882	3638.33
605.11	881.5	3659.78
605.61	881	3655.7
606.11	880.5	3638.97
606.61	880	3757.03
607.11	879.5	3692.36
607.61	879	3703.99
608.11	878.5	3789.25
608.61	878	3708.03
609.11	877.5	3695.57
609.61	877	3673.85
610.11	876.5	3752.41
610.61	876	3703.63
611.11	875.5	3782.55
611.61	875	3763.83
612.11	874.5	3759.71
612.61	874	3743.95
613.11	873.5	3696.41
613.61	873	3724.77
614.11	872.5	3808.53
614.61	872	3805.61
615.11	871.5	3764.05
615.61	871	3687.43
616.11	870.5	3643.49
616.61	870	3685.43
617.11	869.5	3759.15
617.61	869	3762.96
618.11	868.5	3781.53
618.61	868	3771.43
619.11	867.5	3731.16
619.61	867	3735.93
620.11	866.5	3812
620.61	866	3705.36
621.11	865.5	3801.23
621.61	865	3803.73
622.11	864.5	3756.83
622.61	864	3782.26
623.11	863.5	3830.8
623.61	863	3867.52
624.11	862.5	3853.55
624.61	862	3912.54
625.11	861.5	3806.17
625.61	861	3848.29
626.11	860.5	3882.53
626.61	860	3883.85
627.11	859.5	3975.05
627.61	859	3935.22
628.11	858.5	3916.29
628.61	858	3874.51
629.11	857.5	3797.84
629.61	857	3841.54
630.11	856.5	3894.15
630.61	856	3833.72
631.11	855.5	3895.76
631.61	855	3833.96
632.11	854.5	3889.91
632.61	854	3908.3
633.11	853.5	3948.43
633.61	853	3961.09
634.11	852.5	3935.66
634.61	852	3951.17
635.11	851.5	3956.82
635.61	851	3932.85
636.11	850.5	3977.63
636.61	850	4004.35
637.11	849.5	4000.81
637.61	849	3989.16
638.11	848.5	3938.79
638.61	848	3872.91
639.11	847.5	3944.07
639.61	847	3988.96
640.11	846.5	4036.59
640.61	846	3970.87
641.11	845.5	3983.86
641.61	845	4005.57
642.11	844.5	4024.78
642.61	844	4003.5
643.11	843.5	3980.59
643.61	843	3986.86
644.11	842.5	4026.52
644.61	842	4018.26
645.11	841.5	4072.59
645.61	841	4073.31
646.11	840.5	4052.49
646.61	840	3995.94
647.11	839.5	4078.93
647.61	839	4041.27
648.11	838.5	3994.66
648.61	838	4045.55
649.11	837.5	4093.97
649.61	837	4072.52
650.11	836.5	4015.36
650.61	836	4079.55
651.11	835.5	4159.08
651.61	835	4110.31
652.11	834.5	4081.58
652.61	834	4128.12
653.11	833.5	4122.09
653.61	833	4042.47
654.11	832.5	4138.36
654.61	832	4153.24
655.11	831.5	4139.14
655.61	831	4163.48
656.11	830.5	4078.26
656.61	830	4114.95
657.11	829.5	4252.84
657.61	829	4125.77
658.11	828.5	4132.09
658.61	828	4144.34
659.11	827.5	4243.26
659.61	827	4293.53
660.11	826.5	4274.34
660.61	826	4154.17
661.11	825.5	4175.21
661.61	825	4231.19
662.11	824.5	4241.43
662.61	824	4231.93
663.11	823.5	4215.71
663.61	823	4183.15
664.11	822.5	4243.86
664.61	822	4239.27
665.11	821.5	4260.27
665.61	821	4192.88
666.11	820.5	4133.99
666.61	820	4242.53
667.11	819.5	4239.63
667.61	819	4281.49
668.11	818.5	4350.92
668.61	818	4160.92
669.11	817.5	4237.99
669.61	817	4317.43
670.11	816.5	4283.16
670.61	816	4317.59
671.11	815.5	4335.78
671.61	815	4425.75
672.11	814.5	4278.9
672.61	814	4320.57
673.11	813.5	4326.03
673.61	813	4245.96
674.11	812.5	4340.32
674.61	812	4361.83
675.11	811.5	4320.01
675.61	811	4347.84
676.11	810.5	4366.25
676.61	810	4346.17
677.11	809.5	4369.15
677.61	809	4356.35
678.11	808.5	4334.15
678.61	808	4366.21
679.11	807.5	4381.15
679.61	807	4347.91
680.11	806.5	4304.5
680.61	806	4267.59
681.11	805.5	4345.19
681.61	805	4409.75
682.11	804.5	4454.57
682.61	804	4380.85
683.11	803.5	4389.99
683.61	803	4423.97
684.11	802.5	4421.19
684.61	802	4423.28
685.11	801.5	4400.43
685.61	801	4543.35
686.11	800.5	4497.61
686.61	800	4456.47
687.11	799.5	4351.43
687.61	799	4420.83
688.11	798.5	4439.51
688.61	798	4417.42
689.11	797.5	4449.43
689.61	797	4467.9
690.11	796.5	4450.96
690.61	796	4447.57
691.11	795.5	4479.33
691.61	795	4531.7
692.11	794.5	4505.79
692.61	794	4547.67
693.11	793.5	4551.49
693.61	793	4543.11
694.11	792.5	4533.97
694.61	792	4549.57
695.11	791.5	4611.05
695.61	791	4533.93
696.11	790.5	4557.63
696.61	790	4620.21
697.11	789.5	4643.27
697.61	789	4618.63
698.11	788.5	4563.75
698.61	788	4548.53
699.11	787.5	4581.62
699.61	787	4553.99
700.11	786.5	4558.07
700.61	786	4581.27
701.11	785.5	4521.25
701.61	785	4525.45
702.11	784.5	4581.55
702.61	784	4614.23
703.11	783.5	4629.16
703.61	783	4629.89
704.11	782.5	4584.17
704.61	782	4669.89
705.11	781.5	4628.75
705.61	781	4611.01
706.11	780.5	4574.24
706.61	780	4565.14
707.11	779.5	4603.27
707.61	779	4658.92
708.11	778.5	4596.97
708.61	778	4666.85
709.11	777.5	4675.35
709.61	777	4627.53
710.11	776.5	4710.2
710.61	776	4683.93
711.11	775.5	4661.73
711.61	775	4624
712.11	774.5	4770.07
712.61	774	4816.7
713.11	773.5	4851.72
713.61	773	4801.14
714.11	772.5	4761.67
714.61	772	4776.55
715.11	771.5	4621.29
715.61	771	4643.62
716.11	770.5	4632.91
716.61	770	4667.29
717.11	769.5	4693.77
717.61	769	4750.46
718.11	768.5	4721.51
718.61	768	4695.42
719.11	767.5	4675.21
719.61	767	4663.37
720.11	766.5	4732.73
720.61	766	4825.43
721.11	765.5	4882.27
721.61	765	4853.49
722.11	764.5	4893.13
722.61	764	4848.27
723.11	763.5	4919.3
723.61	763	4913.29
724.11	762.5	4926.37
724.61	762	4819.29
725.11	761.5	4888.45
725.61	761	4895.87
726.11	760.5	4869.75
726.61	760	4965.77
727.11	759.5	4816.1
727.61	759	4798.91
728.11	758.5	4758.55
728.61	758	4811.24
729.11	757.5	4843.4
729.61	757	4735.01
730.11	756.5	4793.07
730.61	756	4760.61
731.11	755.5	4758.07
731.61	755	4760.27
732.11	754.5	4694.17
732.61	754	4785.47
733.11	753.5	4786.03
733.61	753	4764.32
734.11	752.5	4798.37
734.61	752	4740.71
735.11	751.5	4730.52
735.61	751	4753.76
736.11	750.5	4775.22
736.61	750	4757.57
737.11	749.5	4821.39
737.61	749	4834.57
738.11	748.5	4728.05
738.61	748	4692.21
739.11	747.5	4792.06
739.61	747	4822.82
740.11	746.5	4721.46
740.61	746	4774.71
741.11	745.5	4794.73
741.61	745	4767.41
742.11	744.5	4805.95
742.61	744	4778.55
743.11	743.5	4716.37
743.61	743	4710.79
744.11	742.5	4771.51
744.61	742	4789.43
745.11	741.5	4802.72
745.61	741	4835.05
746.11	740.5	4852.32
746.61	740	4897.43
747.11	739.5	4868.95
747.61	739	4886.55
748.11	738.5	4836.06
748.61	738	4779.34
749.11	737.5	4777.51
749.61	737	4834.25
750.11	736.5	4933.35
750.61	736	4842.6
751.11	735.5	4829.67
751.61	735	4921.97
752.11	734.5	4976.29
752.61	734	4820.84
753.11	733.5	4904.55
753.61	733	4923.09
754.11	732.5	4848.7
754.61	732	4886
755.11	731.5	4886.71
755.61	731	4924.45
756.11	730.5	4899.76
756.61	730	4894.3
757.11	729.5	4851.19
757.61	729	4915.49
758.11	728.5	4973.62
758.61	728	4912.73
759.11	727.5	4968.22
759.61	727	4993.23
760.11	726.5	4983.66
760.61	726	4993.15
761.11	725.5	4983.37
761.61	725	4973.42
762.11	724.5	4972.45
762.61	724	5034.23
763.11	723.5	5001.87
763.61	723	4938.2
764.11	722.5	4936.71
764.61	722	4940.57
765.11	721.5	4964.96
765.61	721	5015.78
766.11	720.5	4959.93
766.61	720	4953.99
767.11	719.5	5027.68
767.61	719	5061.03
768.11	718.5	5140.85
768.61	718	5030.97
769.11	717.5	5071
769.61	717	5033.31
770.11	716.5	4995.15
770.61	716	5120.91
771.11	715.5	5163.21
771.61	715	5174.09
772.11	714.5	5121.74
772.61	714	5055.51
773.11	713.5	5110.75
773.61	713	5082.38
774.11	712.5	5076.29
774.61	712	5148.67
775.11	711.5	5131
775.61	711	5127.53
776.11	710.5	5114.35
776.61	710	5149
777.11	709.5	5058.09
777.61	709	5146.88
778.11	708.5	5124.2
778.61	708	5141.08
779.11	707.5	5206.02
779.61	707	5160.49
780.11	706.5	5178.26
780.61	706	5317.87
781.11	705.5	5244.27
781.61	705	5174.15
782.11	704.5	5102.57
782.61	704	5225.11
783.11	703.5	5123.43
783.61	703	5130.66
784.11	702.5	5160.51
784.61	702	5250.85
785.11	701.5	5316.11
785.61	701	5261.71
786.11	700.5	5260.07
786.61	700	5223.06
787.11	699.5	5298.69
787.61	699	5288.53
788.11	698.5	5279.04
788.61	698	5314.69
789.11	697.5	5274.98
789.61	697	5292.51
790.11	696.5	5290.92
790.61	696	5257.27
791.11	695.5	5260.15
791.61	695	5289.41
792.11	694.5	5281.77
792.61	694	5327.66
793.11	693.5	5329.97
793.61	693	5445.55
794.11	692.5	5324.72
794.61	692	5335.93
795.11	691.5	5264.31
795.61	691	5310.89
796.11	690.5	5472.57
796.61	690	5424.97
797.11	689.5	5325.61
797.61	689	5408.81
798.11	688.5	5505.19
798.61	688	5469.75
799.11	687.5	5507.43
799.61	687	5521.59
800.11	686.5	5454.16
800.61	686	5375.53
801.11	685.5	5465.71
801.61	685	5488.51
802.11	684.5	5399.32
802.61	684	5398.63
803.11	683.5	5421.71
803.61	683	5412.35
804.11	682.5	5406.63
804.61	682	5497.19
805.11	681.5	5536.01
805.61	681	5492.11
806.11	680.5	5501.95
806.61	680	5555.45
807.11	679.5	5554.81
807.61	679	5487.23
808.11	678.5	5569.98
808.61	678	5495.29
809.11	677.5	5580.34
809.61	677	5492.51
810.11	676.5	5523.53
810.61	676	5606.81
811.11	675.5	5609.04
811.61	675	5534.07
812.11	674.5	5514.81
812.61	674	5543.88
813.11	673.5	5637.49
813.61	673	5708.45
814.11	672.5	5638.38
814.61	672	5642.73
815.11	671.5	5593.89
815.61	671	5558.41
816.11	670.5	5620.39
816.61	670	5600.41
817.11	669.5	5600.05
817.61	669	5746.59
818.11	668.5	5625
818.61	668	5605.21
819.11	667.5	5693.61
819.61	667	5659.6
820.11	666.5	5726.49
820.61	666	5677.9
821.11	665.5	5728.79
821.61	665	5631.56
822.11	664.5	5723.3
822.61	664	5730.63
823.11	663.5	5639.92
823.61	663	5697.19
824.11	662.5	5657.05
824.61	662	5693.61
825.11	661.5	5735.85
825.61	661	5680.42
826.11	660.5	5785.37
826.61	660	5808.15
827.11	659.5	5713.68
827.61	659	5764.42
828.11	658.5	5793.22
828.61	658	5849.53
829.11	657.5	5764.7
829.61	657	5796.56
830.11	656.5	5821.35
830.61	656	5813.77
831.11	655.5	5842.01
831.61	655	5784.07
832.11	654.5	5800.4
832.61	654	5844.26
833.11	653.5	5775.09
833.61	653	5777.39
834.11	652.5	5754.6
834.61	652	5763.67
835.11	651.5	5807.86
835.61	651	5791.64
836.11	650.5	5797.04
836.61	650	5711.48
837.11	649.5	5804.4
837.61	649	5832.77
838.11	648.5	5776.06
838.61	648	5791.19
839.11	647.5	5913.95
839.61	647	6013.34
840.11	646.5	5953.52
840.61	646	5960.65
841.11	645.5	5891.85
841.61	645	6016.91
842.11	644.5	6135.33
842.61	644	6103.43
843.11	643.5	6154.9
843.61	643	6157.01
844.11	642.5	6074.79
844.61	642	6033.47
845.11	641.5	6073.19
845.61	641	6173.9
846.11	640.5	6097.26
846.61	640	6009.95
847.11	639.5	5983.42
847.61	639	6001.27
848.11	638.5	5927.77
848.61	638	5840.63
849.11	637.5	5866.24
849.61	637	5872.9
850.11	636.5	5858.75
850.61	636	5795.73
851.11	635.5	5830.7
851.61	635	5895.48
852.11	634.5	5822.64
852.61	634	5790.05
853.11	633.5	5682.25
853.61	633	5710.89
854.11	632.5	5807.07
854.61	632	5787.18
855.11	631.5	5815.03
855.61	631	5765.99
856.11	630.5	5821.72
856.61	630	5806.93
857.11	629.5	5939.85
857.61	629	5943.92
858.11	628.5	5842.2
858.61	628	5807.84
859.11	627.5	5840.41
859.61	627	5858.55
860.11	626.5	5789.29
860.61	626	5907.01
861.11	625.5	5743.85
861.61	625	5866.46
862.11	624.5	5901.47
862.61	624	6020.33
863.11	623.5	5898.43
863.61	623	5875.39
864.11	622.5	5871.41
864.61	622	5942.89
865.11	621.5	5956.88
865.61	621	5919.07
866.11	620.5	5884.45
866.61	620	5888.16
867.11	619.5	5990.07
867.61	619	5923.84
868.11	618.5	5892.8
868.61	618	5993.83
869.11	617.5	5935.29
869.61	617	5970.04
870.11	616.5	5969.1
870.61	616	5966.92
871.11	615.5	5933.77
871.61	615	5999.25
872.11	614.5	6047.99
872.61	614	6022.03
873.11	613.5	5992.47
873.61	613	6042.07
874.11	612.5	6020.21
874.61	612	5996.47
875.11	611.5	5931.46
875.61	611	6014.84
876.11	610.5	6017.25
876.61	610	6094.51
877.11	609.5	5975.57
877.61	609	5941.46
878.11	608.5	6026.75
878.61	608	6059.86
879.11	607.5	6137.5
879.61	607	6115.04
880.11	606.5	6039.45
880.61	606	6074.77
881.11	605.5	6161.13
881.61	605	6151.63
882.11	604.5	6025.63
882.61	604	6126.29
883.11	603.5	6168.86
883.61	603	6210.37
884.11	602.5	6029.53
884.61	602	6072.25
885.11	601.5	6160.51
885.61	601	6198.26
886.11	600.5	6193.47
886.61	600	6171.7
887.11	599.5	6130.07
887.61	599	6121.26
888.11	598.5	6203.23
888.61	598	6203.03
889.11	597.5	6260.49
889.61	597	6268
890.11	596.5	6220.92
890.61	596	6224.63
891.11	595.5	6211.43
891.61	595	6240.33
892.11	594.5	6277.83
892.61	594	6286.63
893.11	593.5	6219.36
893.61	593	6233.24
894.11	592.5	6339.34
894.61	592	6420.8
895.11	591.5	6368.47
895.61	591	6348.37
896.11	590.5	6344.89
896.61	590	6441.88
897.11	589.5	6371.95
897.61	589	6404.23
898.11	588.5	6308.95
898.61	588	6357.19
899.11	587.5	6381.29
899.61	587	6358.39
900.11	586.5	6375.57
900.61	586	6284.85
901.11	585.5	6303.11
901.61	585	6410.64
902.11	584.5	6391.87
902.61	584	6307.55
903.11	583.5	6435.48
903.61	583	6384.4
904.11	582.5	6368.19
904.61	582	6416.34
905.11	581.5	6460.89
905.61	581	6414.23
906.11	580.5	6451.28
906.61	580	6433.43
907.11	579.5	6456.11
907.61	579	6465.46
908.11	578.5	6529.76
908.61	578	6516.93
909.11	577.5	6482.69
909.61	577	6489.49
910.11	576.5	6495.89
910.61	576	6432.63
911.11	575.5	6477.48
911.61	575	6569.54
912.11	574.5	6622.85
912.61	574	6616.34
913.11	573.5	6552.23
913.61	573	6518.03
914.11	572.5	6580.39
914.61	572	6514.83
915.11	571.5	6536.24
915.61	571	6587.79
916.11	570.5	6585.58
916.61	570	6624.99
917.11	569.5	6504.22
917.61	569	6522.28
918.11	568.5	6526.31
918.61	568	6615.61
919.11	567.5	6523.56
919.61	567	6629.99
920.11	566.5	6677.67
920.61	566	6611.75
921.11	565.5	6588.29
921.61	565	6676.27
922.11	564.5	6622.37
922.61	564	6644.1
923.11	563.5	6703.2
923.61	563	6754.13
924.11	562.5	6760.2
924.61	562	6675.2
925.11	561.5	6721.4
925.61	561	6808.67
926.11	560.5	6795.27
926.61	560	6767.13
927.11	559.5	6745.47
927.61	559	6689.73
928.11	558.5	6602.48
928.61	558	6668.6
929.11	557.5	6508.39
929.61	557	6548.59
930.11	556.5	6493.85
930.61	556	6508.62
931.11	555.5	6424.58
931.61	555	6434.62
932.11	554.5	6373.75
932.61	554	6514.16
933.11	553.5	6483.42
933.61	553	6517.21
934.11	552.5	6566.4
934.61	552	6623.95
935.11	551.5	6642.52
935.61	551	6680.13
936.11	550.5	6816.4
936.61	550	6895.6
937.11	549.5	7038.6
937.61	549	7306.47
938.11	548.5	7566.47
938.61	548	7760
939.11	547.5	7956.53
939.61	547	8099
940.11	546.5	8107
940.61	546	8187.73
941.11	545.5	7986.13
941.61	545	7699.8
942.11	544.5	7340.4
942.61	544	7224.67
943.11	543.5	6881.07
943.61	543	6718.53
944.11	542.5	6657.54
944.61	542	6500.14
945.11	541.5	6435.24
945.61	541	6244.02
946.11	540.5	6112.94
946.61	540	6224.51
947.11	539.5	6103.09
947.61	539	6045.01
948.11	538.5	6053.12
948.61	538	6090.86
949.11	537.5	6021.75
949.61	537	6014.23
950.11	536.5	5969.88
950.61	536	6040.14
951.11	535.5	6019.97
951.61	535	6011.19
952.11	534.5	5974.17
952.61	534	6015.67
953.11	533.5	6053.47
953.61	533	6010
954.11	532.5	6060.62
954.61	532	6034.48
955.11	531.5	6045.81
955.61	531	5997.15
956.11	530.5	5870.12
956.61	530	5876.43
957.11	529.5	5949.77
957.61	529	5973.7
958.11	528.5	5960.38
958.61	528	5918.39
959.11	527.5	5945.33
959.61	527	5895.97
960.11	526.5	5951.89
960.61	526	5976.43
961.11	525.5	5908.01
961.61	525	5929.77
962.11	524.5	5940.42
962.61	524	5975.73
963.11	523.5	5914.57
963.61	523	5991.33
964.11	522.5	5949.27
964.61	522	6086.15
965.11	521.5	6075.29
965.61	521	5990.48
966.11	520.5	5958.7
966.61	520	6004.07
967.11	519.5	5964.71
967.61	519	5955.25
968.11	518.5	6064.88
968.61	518	6144.87
969.11	517.5	6043.15
969.61	517	5942.96
970.11	516.5	6082.55
970.61	516	6114.51
971.11	515.5	6010.24
971.61	515	6059.41
972.11	514.5	6059.85
972.61	514	6139.95
973.11	513.5	6223.73
973.61	513	6216.27
974.11	512.5	6113.77
974.61	512	6157.06
975.11	511.5	6067.5
975.61	511	6089.01
976.11	510.5	6189.61
976.61	510	6260.68
977.11	509.5	6142.5
977.61	509	6241.27
978.11	508.5	6221.84
978.61	508	6268.1
979.11	507.5	6190.87
979.61	507	6194.36
980.11	506.5	6206.32
980.61	506	6276.41
981.11	505.5	6207
981.61	505	6245.39
982.11	504.5	6108.69
982.61	504	6203.77
983.11	503.5	6164.06
983.61	503	6167.61
984.11	502.5	6287.49
984.61	502	6217.76
985.11	501.5	6279.43
985.61	501	6256.35
986.11	500.5	6256.19
986.61	500	6357.04
987.11	499.5	6371.35
987.61	499	6344.03
988.11	498.5	6411.5
988.61	498	6337.95
989.11	497.5	6328.9
989.61	497	6371.01
990.11	496.5	6279.07
990.61	496	6347.59
991.11	495.5	6431.44
991.61	495	6310.94
992.11	494.5	6406.13
992.61	494	6451.88
993.11	493.5	6387.49
993.61	493	6355.7
994.11	492.5	6481.39
994.61	492	6426.49
995.11	491.5	6411.59
995.61	491	6343.82
996.11	490.5	6363.97
996.61	490	6306.67
997.11	489.5	6440.33
997.61	489	6406.07
998.11	488.5	6474.69
998.61	488	6492.75
999.11	487.5	6457.71
999.61	487	6459.73
1000.11	486.5	6435.48
1000.61	486	6496.79
1001.11	485.5	6556.35
1001.61	485	6599.91
1002.11	484.5	6441.4
1002.61	484	6544.95
1003.11	483.5	6483.1
1003.61	483	6565.22
1004.11	482.5	6545.85
1004.61	482	6490.81
1005.11	481.5	6596.51
1005.61	481	6611.99
1006.11	480.5	6610.56
1006.61	480	6566.32
1007.11	479.5	6696.87
1007.61	479	6620.17
1008.11	478.5	6662.44
1008.61	478	6658.81
1009.11	477.5	6583.62
1009.61	477	6720.4
1010.11	476.5	6692.93
1010.61	476	6631.31
1011.11	475.5	6702.87
1011.61	475	6634.83
1012.11	474.5	6603.01
1012.61	474	6695.07
1013.11	473.5	6670
1013.61	473	6590.5
1014.11	472.5	6729.4
1014.61	472	6705.6
1015.11	471.5	6757.87
1015.61	471	6835.87
1016.11	470.5	6770.93
1016.61	470	6844.27
1017.11	469.5	6802.33
1017.61	469	6664.47
1018.11	468.5	6852.07
1018.61	468	6889.33
1019.11	467.5	6851.47
1019.61	467	6745.93
1020.11	466.5	6816.4
1020.61	466	6762.87
1021.11	465.5	6877.73
1021.61	465	6931.13
1022.11	464.5	7001.47
1022.61	464	6907.33
1023.11	463.5	6792
1023.61	463	6882
1024.11	462.5	7077.67
1024.61	462	6967.53
1025.11	461.5	6921.33
1025.61	461	6985.2
1026.11	460.5	6986.2
1026.61	460	6973.07
1027.11	459.5	6897.6
1027.61	459	6878.33
1028.11	458.5	7027.4
1028.61	458	7040.4
1029.11	457.5	7049.8
1029.61	457	7032.93
1030.11	456.5	7158.53
1030.61	456	7153.8
1031.11	455.5	7074.47
1031.61	455	7007.07
1032.11	454.5	7017.47
1032.61	454	7082
1033.11	453.5	7093.87
1033.61	453	7121.27
1034.11	452.5	7106.73
1034.61	452	7110.13
1035.11	451.5	7178.47
1035.61	451	7087.87
1036.11	450.5	7105.4
1036.61	450	7097.87
1037.11	449.5	7110.67
1037.61	449	7088.73
1038.11	448.5	7301.53
1038.61	448	7125.13
1039.11	447.5	7159.4
1039.61	447	7246.4
1040.11	446.5	7200.27
1040.61	446	7267
1041.11	445.5	7426.6
1041.61	445	7273.6
1042.11	444.5	7263.2
1042.61	444	7227.07
1043.11	443.5	7305.73
1043.61	443	7344.8
1044.11	442.5	7310.4
1044.61	442	7213.67
1045.11	441.5	7237.2
1045.61	441	7349.8
1046.11	440.5	7339.2
1046.61	440	7434.27
1047.11	439.5	7528.67
1047.61	439	7529.73
1048.11	438.5	7495.27
1048.61	438	7364.33
1049.11	437.5	7472.07
1049.61	437	7436.07
1050.11	436.5	7477.93
1050.61	436	7504.07
1051.11	435.5	7467.73
1051.61	435	7429.87
1052.11	434.5	7484.73
1052.61	434	7598.47
1053.11	433.5	7563.87
1053.61	433	7407
1054.11	432.5	7450.33
1054.61	432	7472.27
1055.11	431.5	7586.67
1055.61	431	7531.87
1056.11	430.5	7628.27
1056.61	430	7628.73
1057.11	429.5	7595.73
1057.61	429	7653
1058.11	428.5	7600.47
1058.61	428	7655.8
1059.11	427.5	7601.53
1059.61	427	7652
1060.11	426.5	7638.6
1060.61	426	7656.07
1061.11	425.5	7747.67
1061.61	425	7573.8
1062.11	424.5	7688.13
1062.61	424	7760.33
1063.11	423.5	7770.33
1063.61	423	7817.93
1064.11	422.5	7958.4
1064.61	422	7881.13
1065.11	421.5	7891.47
1065.61	421	7846.6
1066.11	420.5	7902.87
1066.61	420	7987.93
1067.11	419.5	8036.53
1067.61	419	8095.67
1068.11	418.5	7980.67
1068.61	418	7742.27
1069.11	417.5	7775.93
1069.61	417	7680.6
1070.11	416.5	7847.6
1070.61	416	7830.07
1071.11	415.5	7826.6
1071.61	415	7862.93
1072.11	414.5	7835.53
1072.61	414	7904.33
1073.11	413.5	7830.67
1073.61	413	7976.8
1074.11	412.5	7935.13
1074.61	412	7759.87
1075.11	411.5	7865.67
1075.61	411	7786.27
1076.11	410.5	7837.07
1076.61	410	7844.27
1077.11	409.5	7916.2
1077.61	409	7942.07
1078.11	408.5	7923
1078.61	408	7972.67
1079.11	407.5	8081.67
1079.61	407	8276.4
1080.11	406.5	9540
1080.61	406	12172.5
1081.11	405.5	10455.7
1081.61	405	8247.53
1082.11	404.5	8111.53
1082.61	404	8134.2
1083.11	403.5	8092.13
1083.61	403	8031.2
1084.11	402.5	8171.27
1084.61	402	8148.27
1085.11	401.5	8093
1085.61	401	8134.47
1086.11	400.5	8173.67
1086.61	400	8178.4
1087.11	399.5	8214.73
1087.61	399	8248.73
1088.11	398.5	8117.87
1088.61	398	8181.47
1089.11	397.5	8204.33
1089.61	397	8218
1090.11	396.5	8163.87
1090.61	396	8274.2
1091.11	395.5	8264.47
1091.61	395	8369.67
1092.11	394.5	8311.53
1092.61	394	8440.27
1093.11	393.5	8377.33
1093.61	393	8285.2
1094.11	392.5	8283.87
1094.61	392	8456.33
1095.11	391.5	8393.07
1095.61	391	8432.6
1096.11	390.5	8403.07
1096.61	390	8543.13
1097.11	389.5	8450.93
1097.61	389	8402.53
1098.11	388.5	8422
1098.61	388	8457.53
1099.11	387.5	8412.87
1099.61	387	8444.07
1100.11	386.5	8511.07
1100.61	386	8497.6
1101.11	385.5	8639.4
1101.61	385	8697.2
1102.11	384.5	8545.6
1102.61	384	8592.93
1103.11	383.5	8682.67
1103.61	383	8603.53
1104.11	382.5	8610.13
1104.61	382	8631.67
1105.11	381.5	8715.4
1105.61	381	8796.07
1106.11	380.5	8656
1106.61	380	8585.4
1107.11	379.5	8648.67
1107.61	379	8670.2
1108.11	378.5	8596
1108.61	378	8596.33
1109.11	377.5	8680
1109.61	377	8715.27
1110.11	376.5	8768.13
1110.61	376	8673.93
1111.11	375.5	8634.53
1111.61	375	8602.53
1112.11	374.5	8518.93
1112.61	374	8669.53
1113.11	373.5	8774
1113.61	373	8737.47
1114.11	372.5	8816.47
1114.61	372	8763.8
1115.11	371.5	8780.4
1115.61	371	8837.93
1116.11	370.5	8818.8
1116.61	370	8911.87
1117.11	369.5	8985.6
1117.61	369	8995.13
1118.11	368.5	9010.87
1118.61	368	9036
1119.11	367.5	9049.53
1119.61	367	9103.87
1120.11	366.5	8904.93
1120.61	366	8904.6
1121.11	365.5	8826.53
1121.61	365	8700.27
1122.11	364.5	8596.07
1122.61	364	8511.8
1123.11	363.5	8504.93
1123.61	363	8399.13
1124.11	362.5	8517.8
1124.61	362	8454.47
1125.11	361.5	8477.4
1125.61	361	8550.4
1126.11	360.5	8519.07
1126.61	360	8414.07
1127.11	359.5	8430.47
1127.61	359	8429.67
1128.11	358.5	8571.47
1128.61	358	8655.93
1129.11	357.5	8957.2
1129.61	357	9094.4
1130.11	356.5	9406
1130.61	356	9768.47
1131.11	355.5	10194
1131.61	355	10903.1
1132.11	354.5	11563.9
1132.61	354	12138.8
1133.11	353.5	12411.7
1133.61	353	12332.2
1134.11	352.5	11973.9
1134.61	352	11364.4
1135.11	351.5	10561.2
1135.61	351	9855
1136.11	350.5	9610.33
1136.61	350	9136.93
1137.11	349.5	8777.47
1137.61	349	8565.27
1138.11	348.5	8172.53
1138.61	348	8043.73
1139.11	347.5	7726.6
1139.61	347	7330.27
1140.11	346.5	7114.8
1140.61	346	6856.47
1141.11	345.5	6621.4
1141.61	345	6612.6
1142.11	344.5	6452.83
1142.61	344	6290.71
1143.11	343.5	6337.28
1143.61	343	6262.25
1144.11	342.5	6252.99
1144.61	342	6290.81
1145.11	341.5	6288.95
1145.61	341	6473.11
1146.11	340.5	6504.21
1146.61	340	6624.93
1147.11	339.5	6971.73
1147.61	339	7241.67
1148.11	338.5	7681.6
1148.61	338	8353.27
1149.11	337.5	9060.87
1149.61	337	9917.73
1150.11	336.5	11027.1
1150.61	336	12154.8
1151.11	335.5	12852.7
1151.61	335	12893.8
1152.11	334.5	12159.1
1152.61	334	10855.5
1153.11	333.5	9475.13
1153.61	333	8263.67
1154.11	332.5	7399.27
1154.61	332	6628.62
1155.11	331.5	6101.95
1155.61	331	5719.81
1156.11	330.5	5435.04
1156.61	330	5103.69
1157.11	329.5	4923.41
1157.61	329	4787.96
1158.11	328.5	4687.97
1158.61	328	4560.86
1159.11	327.5	4522.45
1159.61	327	4442.51
1160.11	326.5	4377.69
1160.61	326	4254.04
1161.11	325.5	4231.52
1161.61	325	4223.71
1162.11	324.5	4199.74
1162.61	324	4204.65
1163.11	323.5	4183.17
1163.61	323	4114.53
1164.11	322.5	4039.61
1164.61	322	3917.57
1165.11	321.5	4010.5
1165.61	321	4076.39
1166.11	320.5	4044.93
1166.61	320	4063.56
1167.11	319.5	4113.19
1167.61	319	4044.86
1168.11	318.5	4017.82
1168.61	318	4002.05
1169.11	317.5	3988.53
1169.61	317	3984.99
1170.11	316.5	3919.44
1170.61	316	3996.61
1171.11	315.5	3991.34
1171.61	315	3910.61
1172.11	314.5	3963.04
1172.61	314	3884.83
1173.11	313.5	3878.4
1173.61	313	3892.85
1174.11	312.5	3910.08
1174.61	312	3898.17
1175.11	311.5	3982.89
1175.61	311	4010.01
1176.11	310.5	3995.49
1176.61	310	3973.51
1177.11	309.5	4008.3
1177.61	309	3981.85
1178.11	308.5	3977.26
1178.61	308	3975.36
1179.11	307.5	3905.57
1179.61	307	3916.95
1180.11	306.5	4009.4
1180.61	306	4004.45
1181.11	305.5	3976.07
1181.61	305	3994.73
1182.11	304.5	3965.96
1182.61	304	3904.97
1183.11	303.5	3996.42
1183.61	303	3965.49
1184.11	302.5	3927.58
1184.61	302	3911.79
1185.11	301.5	3978.32
1185.61	301	3997.91
1186.11	300.5	4016.63
1186.61	300	4064.25
1187.11	299.5	3978.99
1187.61	299	3987.41
1188.11	298.5	3985.27
1188.61	298	4031.4
1189.11	297.5	4071.13
1189.61	297	3999.93
1190.11	296.5	3973.79
1190.61	296	4028.53
1191.11	295.5	3908.61
1191.61	295	4002.41
1192.11	294.5	4033.93
1192.61	294	4005.82
1193.11	293.5	3988.54
1193.61	293	4034.51
1194.11	292.5	4046.37
1194.61	292	4048.43
1195.11	291.5	4068.24
1195.61	291	3998.14
1196.11	290.5	4060.37
1196.61	290	4025.96
1197.11	289.5	3990.44
1197.61	289	4053.05
1198.11	288.5	4066.19
1198.61	288	4129.07
1199.11	287.5	4044.25
1199.61	287	4105.47
1200.11	286.5	4108.26
1200.61	286	4144.11
1201.11	285.5	4267.33
1201.61	285	4374.41
1202.11	284.5	4484.03
1202.61	284	4314.81
1203.11	283.5	4158.98
1203.61	283	3964.31
1204.11	282.5	4071.95
1204.61	282	4117.81
1205.11	281.5	4010.07
1205.61	281	3938.26
1206.11	280.5	4018.42
1206.61	280	4030.2
1207.11	279.5	4100.73
1207.61	279	4034.75
1208.11	278.5	4048.74
1208.61	278	4099.03
1209.11	277.5	4136.8
1209.61	277	4085.79
1210.11	276.5	4087.07
1210.61	276	4100.73
1211.11	275.5	4167.54
1211.61	275	4108.41
1212.11	274.5	4114.91
1212.61	274	4074.24
1213.11	273.5	4093.87
1213.61	273	4255.26
1214.11	272.5	4116.57
1214.61	272	4092.47
1215.11	271.5	4109.97
1215.61	271	4183.48
1216.11	270.5	4221.19
1216.61	270	4106.51
1217.11	269.5	4172.62
1217.61	269	4176.75
1218.11	268.5	4139.74
1218.61	268	4201.63
1219.11	267.5	4230.4
1219.61	267	4198.99
1220.11	266.5	4186.19
1220.61	266	4300.33
1221.11	265.5	4259.21
1221.61	265	4232.96
1222.11	264.5	4241.6
1222.61	264	4161.98
1223.11	263.5	4246.33
1223.61	263	4188.95
1224.11	262.5	4299.29
1224.61	262	4351.69
1225.11	261.5	4226.08
1225.61	261	4230.64
1226.11	260.5	4275.29
1226.61	260	4274.66
1227.11	259.5	4233.73
1227.61	259	4264.31
1228.11	258.5	4274.62
1228.61	258	4248.32
1229.11	257.5	4248.94
1229.61	257	4351.33
1230.11	256.5	4267.05
1230.61	256	4296.54
1231.11	255.5	4291.86
1231.61	255	4281.63
1232.11	254.5	4292.63
1232.61	254	4303.27
1233.11	253.5	4249.36
1233.61	253	4347.67
1234.11	252.5	4330.29
1234.61	252	4275.81
1235.11	251.5	4317.23
1235.61	251	4301.16
1236.11	250.5	4275.75
1236.61	250	4236.57
1237.11	249.5	4253.49
1237.61	249	4347.41
1238.11	248.5	4373.86
1238.61	248	4346.61
1239.11	247.5	4264.65
1239.61	247	4371.59
1240.11	246.5	4423.56
1240.61	246	4372.75
1241.11	245.5	4373.91
1241.61	245	4301.89
1242.11	244.5	4408.82
1242.61	244	4399.49
1243.11	243.5	4416.83
1243.61	243	4420.32
1244.11	242.5	4347.09
1244.61	242	4396.86
1245.11	241.5	4476.02
1245.61	241	4437.87
1246.11	240.5	4371.09
1246.61	240	4351.01
1247.11	239.5	4454.27
1247.61	239	4406.34
1248.11	238.5	4353.55
1248.61	238	4339.42
1249.11	237.5	4432.46
1249.61	237	4439.49
1250.11	236.5	4434.81
1250.61	236	4512.49
1251.11	235.5	4478.53
1251.61	235	4437.57
1252.11	234.5	4425.03
1252.61	234	4473.12
1253.11	233.5	4458.72
1253.61	233	4495.94
1254.11	232.5	4485.47
1254.61	232	4525.05
1255.11	231.5	4479.6
1255.61	231	4448.19
1256.11	230.5	4549.75
1256.61	230	4475.25
1257.11	229.5	4523.13
1257.61	229	4590.46
1258.11	228.5	4566.87
1258.61	228	4568.88
1259.11	227.5	4520.01
1259.61	227	4535.23
1260.11	226.5	4612.91
1260.61	226	4630.57
1261.11	225.5	4569.67
1261.61	225	4561.49
1262.11	224.5	4612.13
1262.61	224	4594.37
1263.11	223.5	4541.28
1263.61	223	4613.48
1264.11	222.5	4625.97
1264.61	222	4651.63
1265.11	221.5	4642.27
1265.61	221	4632.4
1266.11	220.5	4629.96
1266.61	220	4587.71
1267.11	219.5	4559.56
1267.61	219	4659.25
1268.11	218.5	4683.54
1268.61	218	4655.67
1269.11	217.5	4612.63
1269.61	217	4696.59
1270.11	216.5	4687.83
1270.61	216	4568.99
1271.11	215.5	4734.66
1271.61	215	4734.61
1272.11	214.5	4707.86
1272.61	214	4756.76
1273.11	213.5	4716.59
1273.61	213	4711.81
1274.11	212.5	4669.21
1274.61	212	4710.04
1275.11	211.5	4710.91
1275.61	211	4801.78
1276.11	210.5	4750.56
1276.61	210	4872.53
1277.11	209.5	4760.98
1277.61	209	4824.17
1278.11	208.5	4742.61
1278.61	208	4763.05
1279.11	207.5	4859.58
1279.61	207	4767.59
1280.11	206.5	4737.68
1280.61	206	4812.89
1281.11	205.5	4824.13
1281.61	205	4856.63
1282.11	204.5	4812.44
1282.61	204	4721.08
1283.11	203.5	4801.35
1283.61	203	4854.48
1284.11	202.5	4851.82
1284.61	202	4797.37
1285.11	201.5	4942.26
1285.61	201	4911.79
1286.11	200.5	4929.99
1286.61	200	4946.54
1287.11	199.5	4861.72
1287.61	199	4908.73
1288.11	198.5	4964.18
1288.61	198	4892.39
1289.11	197.5	4847.37
1289.61	197	4928.33
1290.11	196.5	4938.97
1290.61	196	5048.39
1291.11	195.5	4913.3
1291.61	195	5023.07
1292.11	194.5	4954.56
1292.61	194	4974.99
1293.11	193.5	4968.03
1293.61	193	5047.28
1294.11	192.5	5049.21
1294.61	192	4959.94
1295.11	191.5	4960.95
1295.61	191	5052.81
1296.11	190.5	4916.52
1296.61	190	5027.31
1297.11	189.5	5016.92
1297.61	189	5062.13
1298.11	188.5	5059.43
1298.61	188	4999.21
1299.11	187.5	5069.65
1299.61	187	5081.83
1300.11	186.5	5190.59
1300.61	186	5165.27
1301.11	185.5	5100.9
1301.61	185	5083.27
1302.11	184.5	5114.73
1302.61	184	5073.05
1303.11	183.5	5146.97
1303.61	183	5143.11
1304.11	182.5	5164
1304.61	182	5182.21
1305.11	181.5	5202.41
1305.61	181	5160.87
1306.11	180.5	5172.15
1306.61	180	5210.97
1307.11	179.5	5173.17
1307.61	179	5311.61
1308.11	178.5	5308.61
1308.61	178	5252.32
1309.11	177.5	5271.86
1309.61	177	5287.14
1310.11	176.5	5174.09
1310.61	176	5262.33
1311.11	175.5	5199.81
1311.61	175	5279.43
1312.11	174.5	5332.42
1312.61	174	5353.9
1313.11	173.5	5339.54
1313.61	173	5370.91
1314.11	172.5	5358.15
1314.61	172	5277.99
1315.11	171.5	5319.25
1315.61	171	5334.82
1316.11	170.5	5401.84
1316.61	170	5437.13
1317.11	169.5	5291.55
1317.61	169	5337.47
1318.11	168.5	5337.25
1318.61	168	5313.23
1319.11	167.5	5385.15
1319.61	167	5442.02
1320.11	166.5	5424.24
1320.61	166	5426
1321.11	165.5	5412.72
1321.61	165	5527.64
1322.11	164.5	5448.91
1322.61	164	5464.89
1323.11	163.5	5463.62
1323.61	163	5558.73
1324.11	162.5	5659.93
1324.61	162	5558.97
1325.11	161.5	5632.66
1325.61	161	5555.74
1326.11	160.5	5524.15
1326.61	160	5558.79
1327.11	159.5	5565.87
1327.61	159	5572.04
1328.11	158.5	5524.88
1328.61	158	5561.63
1329.11	157.5	5570.19
1329.61	157	5648.73
1330.11	156.5	5695.89
1330.61	156	5644.94
1331.11	155.5	5660.17
1331.61	155	5573.23
1332.11	154.5	5573.83
1332.61	154	5674.7
1333.11	153.5	5687.87
1333.61	153	5727.69
1334.11	152.5	5734.81
1334.61	152	5723.45
1335.11	151.5	5759.87
1335.61	151	5727.39
1336.11	150.5	5708.99
1336.61	150	5792.76
1337.11	149.5	5789.2
1337.61	149	5720.53
1338.11	148.5	5767.95
1338.61	148	5795.99
1339.11	147.5	5858.09
1339.61	147	5946.87
1340.11	146.5	5802.31
1340.61	146	5838.37
1341.11	145.5	5815.95
1341.61	145	5823.54
1342.11	144.5	5890.72
1342.61	144	5922.73
1343.11	143.5	5917.23
1343.61	143	5967.61
1344.11	142.5	5927.07
1344.61	142	6022.95
1345.11	141.5	5978.25
1345.61	141	6028.31
1346.11	140.5	6032.67
1346.61	140	5994.44
1347.11	139.5	5980.46
1347.61	139	5943.09
1348.11	138.5	6011.14
1348.61	138	5988.24
1349.11	137.5	5983.05
1349.61	137	6040.13
1350.11	136.5	5994.47
1350.61	136	6146.33
1351.11	135.5	6159.37
1351.61	135	6152.88
1352.11	134.5	6125.65
1352.61	134	6115.17
1353.11	133.5	6033.6
1353.61	133	6131.71
1354.11	132.5	6196.39
1354.61	132	6191.87
1355.11	131.5	6129.84
1355.61	131	6265.94
1356.11	130.5	6140.53
1356.61	130	6111.56
1357.11	129.5	6154.89
1357.61	129	6225.03
1358.11	128.5	6269.29
1358.61	128	6263.33
1359.11	127.5	6164.55
1359.61	127	6211.15
1360.11	126.5	6285.27
1360.61	126	6263.51
1361.11	125.5	6211.03
1361.61	125	6255.7
1362.11	124.5	6391.23
1362.61	124	6395.27
1363.11	123.5	6369.16
1363.61	123	6359.12
1364.11	122.5	6311.26
1364.61	122	6344.43
1365.11	121.5	6388.38
1365.61	121	6500.73
1366.11	120.5	6459.11
1366.61	120	6523.57
1367.11	119.5	6509.83
1367.61	119	6557.83
1368.11	118.5	6616.49
1368.61	118	6596.34
1369.11	117.5	6684.6
1369.61	117	6595.35
1370.11	116.5	6552.33
1370.61	116	6644.62
1371.11	115.5	6683.93
1371.61	115	6719.87
1372.11	114.5	6837.87
1372.61	114	6812.33
1373.11	113.5	6786.6
1373.61	113	6760.47
1374.11	112.5	6784.47
1374.61	112	6818.6
1375.11	111.5	6860.13
1375.61	111	6846.93
1376.11	110.5	6885.87
1376.61	110	6702.07
1377.11	109.5	6688.73
1377.61	109	6586.43
1378.11	108.5	6488
1378.61	108	6593.67
1379.11	107.5	6681.8
1379.61	107	6524.55
1380.11	106.5	6481.05
1380.61	106	6429.99
1381.11	105.5	6462.21
1381.61	105	6527.38
1382.11	104.5	6554.18
1382.61	104	6539.34
1383.11	103.5	6633.39
1383.61	103	6583.75
1384.11	102.5	6879.47
1384.61	102	7430.47
1385.11	101.5	7543.93
1385.61	101	8002.8
1386.11	100.5	8020.93
1386.61	100	6727.27
1387.11	99.5	5850.85
1387.61	99	5763.74
1388.11	98.5	6470.93
1388.61	98	6818.4
1389.11	97.5	7029.27
1389.61	97	7339.8
1390.11	96.5	5830.99
1390.61	96	4496.75
1391.11	95.5	4171.93
1391.61	95	4228.2
1392.11	94.5	4245.92
1392.61	94	4228.33
1393.11	93.5	4232.37
1393.61	93	4191.49
1394.11	92.5	4069.82
1394.61	92	4013.95
1395.11	91.5	4151.13
1395.61	91	4304.38
1396.11	90.5	4503.61
1396.61	90	4579.93
1397.11	89.5	4890.29
1397.61	89	6627.73
1398.11	88.5	13618.7
1398.61	88	31385.2
1399.11	87.5	31231.7
1399.61	87	10723.4
1400.11	86.5	5143.32
1400.61	86	4391.45
1401.11	85.5	5409.52
1401.61	85	10735.5
1402.11	84.5	28971.9
1402.61	84	44058.2
1403.11	83.5	18363.7
1403.61	83	4661.96
1404.11	82.5	2551.98
1404.61	82	1930.33
1405.11	81.5	1661.51
1405.61	81	1481.18
1406.11	80.5	1419.19
1406.61	80	1386.11
1407.11	79.5	1337.57
1407.61	79	1250.65
1408.11	78.5	1254.89
1408.61	78	1287.73
1409.11	77.5	1292.37
1409.61	77	1286.85
1410.11	76.5	1305.07
1410.61	76	1348.89
1411.11	75.5	1388.47
1411.61	75	1400.15
1412.11	74.5	1446.6
1412.61	74	1466.35
1413.11	73.5	1382.91
1413.61	73	1389.59
1414.11	72.5	1415
1414.61	72	1323.2
1415.11	71.5	1306.01
1415.61	71	1253.36
1416.11	70.5	1214.33
1416.61	70	1151.28
1417.11	69.5	1117.78
1417.61	69	1108.93
1418.11	68.5	1082.93
1418.61	68	1053.23
1419.11	67.5	1020.08
1419.61	67	975.987
1420.11	66.5	939.973
1420.61	66	971.9
1421.11	65.5	1027.07
1421.61	65	941.767
1422.11	64.5	973.273
1422.61	64	993.88
1423.11	63.5	999.227
1423.61	63	989.78
1424.11	62.5	1020.48
1424.61	62	1049.71
1425.11	61.5	1106.88
1425.61	61	1193.68
1426.11	60.5	1193.85
1426.61	60	1231.87
1427.11	59.5	1300.07
1427.61	59	1421.51
1428.11	58.5	1486.83
1428.61	58	1550.25
1429.11	57.5	1616.01
1429.61	57	1626.81
1430.11	56.5	1569.81
1430.61	56	1485.61
1431.11	55.5	1431.12
1431.61	55	1327.25
1432.11	54.5	1207.09
1432.61	54	1099.65
1433.11	53.5	1038.63
1433.61	53	991.753
1434.11	52.5	930.813
1434.61	52	880.247
1435.11	51.5	857.707
1435.61	51	847.647
1436.11	50.5	825.267
1436.61	50	795.78
1437.11	49.5	760.613
1437.61	49	776.407
1438.11	48.5	746.86
1438.61	48	730.627
1439.11	47.5	717.607
1439.61	47	734.047
1440.11	46.5	704.533
1440.61	46	689.52
1441.11	45.5	691.007
1441.61	45	692.287
1442.11	44.5	712.993
1442.61	44	678.267
1443.11	43.5	688.913
1443.61	43	752.54
1444.11	42.5	721.16
1444.61	42	697.84
1445.11	41.5	730.967
1445.61	41	677.487
1446.11	40.5	694.087
1446.61	40	705.533
1447.11	39.5	714.733
1447.61	39	711.967
1448.11	38.5	713.727
1448.61	38	721.307
1449.11	37.5	720.747
1449.61	37	727.067
1450.11	36.5	710.34
1450.61	36	703.827
1451.11	35.5	717.433
1451.61	35	734.967
1452.11	34.5	726.727
1452.61	34	752.32
1453.11	33.5	769.94
1453.61	33	750.64
1454.11	32.5	753.26
1454.61	32	731.047
1455.11	31.5	715.347
1455.61	31	721.9
1456.11	30.5	710.82
1456.61	30	713.133
1457.11	29.5	719.813
1457.61	29	710.433
1458.11	28.5	687.887
1458.61	28	707.38
1459.11	27.5	673.907
1459.61	27	692.567
1460.11	26.5	708.293
1460.61	26	683.153
1461.11	25.5	672.08
1461.61	25	698.827
1462.11	24.5	701.34
1462.61	24	702.967
1463.11	23.5	700.013
1463.61	23	685.84
1464.11	22.5	694.327
1464.61	22	742.94
1465.11	21.5	762.12
1465.61	21	799.313
1466.11	20.5	831.967
1466.61	20	842.16
1467.11	19.5	806.24
1467.61	19	771.22
1468.11	18.5	733.853
1468.61	18	745.24
1469.11	17.5	742.533
1469.61	17	730.413
1470.11	16.5	682.74
1470.61	16	635.745
1471.11	15.5	584.201
1471.61	15	597.802
1472.11	14.5	518.023
1472.61	14	436.257
1473.11	13.5	410.461
1473.61	13	422.163
1474.11	12.5	421.758
1474.61	12	396.379
1475.11	11.5	426.683
1475.61	11	426.985
1476.11	10.5	406.057
1476.61	10	434.237
1477.11	9.5	485.509
1477.61	9	521.525
1478.11	8.5	631.231
1478.61	8	1011.65
1479.11	7.5	1651.15
1479.61	7	2099.78
1480.11	6.5	2493.95
1480.61	6	2440.21
1481.11	5.5	1863.73
1481.61	5	1911.1
1482.11	4.5	2321.21
1482.61	4	2750.55
1483.11	3.5	2795.79
1483.61	3	2665.67
1484.11	2.5	2099.07
1484.61	2	942.507
1485.11	1.5	419.733
1485.61	1	322.009
1486.11	0.5	252.057
1486.61	-2.27374e-013	110.752