c:\users\mark\owncloud\muelheim group\projects\gas phase background\ex340_cec356_au n2 largearea.vms
Au4d
	Characteristic Energy eV	1486.61	Acquisition Time s	3
KE_Au4d	BE_Au4d	CPS_Au4d
1016.61	470	6752.53
1016.71	469.9	6770.7
1016.81	469.8	6773.27
1016.91	469.7	6796.37
1017.01	469.6	6771
1017.11	469.5	6845.5
1017.21	469.4	6825.87
1017.31	469.3	6818.17
1017.41	469.2	6826.77
1017.51	469.1	6774.8
1017.61	469	6809.77
1017.71	468.9	6761.03
1017.81	468.8	6758.83
1017.91	468.7	6756.47
1018.01	468.6	6750.03
1018.11	468.5	6785.27
1018.21	468.4	6775.9
1018.31	468.3	6787.37
1018.41	468.2	6804.17
1018.51	468.1	6833.2
1018.61	468	6800.1
1018.71	467.9	6779.5
1018.81	467.8	6788.83
1018.91	467.7	6750.43
1019.01	467.6	6777.73
1019.11	467.5	6832.7
1019.21	467.4	6761.07
1019.31	467.3	6838.73
1019.41	467.2	6792.37
1019.51	467.1	6842.13
1019.61	467	6830.33
1019.71	466.9	6843.93
1019.81	466.8	6836.03
1019.91	466.7	6889.43
1020.01	466.6	6887.97
1020.11	466.5	6817.47
1020.21	466.4	6817.37
1020.31	466.3	6796.1
1020.41	466.2	6867.87
1020.51	466.1	6842.63
1020.61	466	6757.83
1020.71	465.9	6869.47
1020.81	465.8	6864.33
1020.91	465.7	6841.03
1021.01	465.6	6835.1
1021.11	465.5	6852.33
1021.21	465.4	6854.07
1021.31	465.3	6800.53
1021.41	465.2	6777.17
1021.51	465.1	6787.17
1021.61	465	6846.97
1021.71	464.9	6851.63
1021.81	464.8	6767.87
1021.91	464.7	6810.2
1022.01	464.6	6851.8
1022.11	464.5	6854.87
1022.21	464.4	6885.23
1022.31	464.3	6883.63
1022.41	464.2	6856.33
1022.51	464.1	6852.9
1022.61	464	6894.07
1022.71	463.9	6836.7
1022.81	463.8	6908.53
1022.91	463.7	6890.37
1023.01	463.6	6889.87
1023.11	463.5	6820.43
1023.21	463.4	6866.63
1023.31	463.3	6812.07
1023.41	463.2	6822
1023.51	463.1	6814.23
1023.61	463	6829.8
1023.71	462.9	6882.8
1023.81	462.8	6915.43
1023.91	462.7	6940.47
1024.01	462.6	6979.6
1024.11	462.5	6860.57
1024.21	462.4	6902.9
1024.31	462.3	6829.77
1024.41	462.2	6874.13
1024.51	462.1	6924
1024.61	462	6966.07
1024.71	461.9	6862.23
1024.81	461.8	6855.5
1024.91	461.7	6856.17
1025.01	461.6	6984.77
1025.11	461.5	6846.1
1025.21	461.4	6901.37
1025.31	461.3	6930.87
1025.41	461.2	6969.7
1025.51	461.1	6950.73
1025.61	461	6948.7
1025.71	460.9	6938.73
1025.81	460.8	6962.4
1025.91	460.7	6923.47
1026.01	460.6	6960.57
1026.11	460.5	6923.43
1026.21	460.4	6918.4
1026.31	460.3	6856.87
1026.41	460.2	6923.2
1026.51	460.1	7000.43
1026.61	460	7039.17
1026.71	459.9	6989.1
1026.81	459.8	7007.33
1026.91	459.7	7009.37
1027.01	459.6	6967.17
1027.11	459.5	6921.07
1027.21	459.4	6953.93
1027.31	459.3	6989.93
1027.41	459.2	6983.7
1027.51	459.1	6987.4
1027.61	459	6937.6
1027.71	458.9	6944.5
1027.81	458.8	7067.7
1027.91	458.7	7041.1
1028.01	458.6	7018.7
1028.11	458.5	6961.47
1028.21	458.4	7031.47
1028.31	458.3	7015.67
1028.41	458.2	6986.7
1028.51	458.1	6940.13
1028.61	458	7018.7
1028.71	457.9	7020.73
1028.81	457.8	6991.43
1028.91	457.7	6960.3
1029.01	457.6	7033.6
1029.11	457.5	7040.67
1029.21	457.4	6988.83
1029.31	457.3	6980.2
1029.41	457.2	7025.97
1029.51	457.1	7062.37
1029.61	457	7046.1
1029.71	456.9	7063.03
1029.81	456.8	7024.47
1029.91	456.7	7002.57
1030.01	456.6	7028.8
1030.11	456.5	7095.1
1030.21	456.4	7019.23
1030.31	456.3	7008
1030.41	456.2	7016.47
1030.51	456.1	7010.93
1030.61	456	7063.1
1030.71	455.9	7045.83
1030.81	455.8	7121.1
1030.91	455.7	7080.1
1031.01	455.6	7004.27
1031.11	455.5	7065.97
1031.21	455.4	7077.17
1031.31	455.3	7035.67
1031.41	455.2	7035.6
1031.51	455.1	7049.43
1031.61	455	7031.8
1031.71	454.9	7066.8
1031.81	454.8	7100.5
1031.91	454.7	7024.47
1032.01	454.6	7043.8
1032.11	454.5	7049.1
1032.21	454.4	7045.87
1032.31	454.3	7101.7
1032.41	454.2	7163.4
1032.51	454.1	7028.1
1032.61	454	7059.7
1032.71	453.9	7086.43
1032.81	453.8	7051.67
1032.91	453.7	7058.93
1033.01	453.6	7050.4
1033.11	453.5	7087.03
1033.21	453.4	7087.9
1033.31	453.3	7078.17
1033.41	453.2	7091.2
1033.51	453.1	7000.27
1033.61	453	7071.83
1033.71	452.9	7044.1
1033.81	452.8	7103.43
1033.91	452.7	7091
1034.01	452.6	7129.7
1034.11	452.5	7195.07
1034.21	452.4	7096.1
1034.31	452.3	7139.27
1034.41	452.2	7072.53
1034.51	452.1	7087.67
1034.61	452	7131.03
1034.71	451.9	7182.23
1034.81	451.8	7027.63
1034.91	451.7	7039.1
1035.01	451.6	7111.93
1035.11	451.5	7127.8
1035.21	451.4	7155.23
1035.31	451.3	7134.13
1035.41	451.2	7171.83
1035.51	451.1	7116.47
1035.61	451	7162.83
1035.71	450.9	7188.1
1035.81	450.8	7100
1035.91	450.7	7052.87
1036.01	450.6	7138.97
1036.11	450.5	7083.97
1036.21	450.4	7136.77
1036.31	450.3	7108.8
1036.41	450.2	7086.57
1036.51	450.1	7075.73
1036.61	450	7141.33
1036.71	449.9	7134.13
1036.81	449.8	7077.57
1036.91	449.7	7113.43
1037.01	449.6	7121.87
1037.11	449.5	7132.6
1037.21	449.4	7098.23
1037.31	449.3	7100.27
1037.41	449.2	7176.57
1037.51	449.1	7192.83
1037.61	449	7140.6
1037.71	448.9	7133.53
1037.81	448.8	7206.7
1037.91	448.7	7161.47
1038.01	448.6	7120.5
1038.11	448.5	7183
1038.21	448.4	7226.77
1038.31	448.3	7141.67
1038.41	448.2	7165.73
1038.51	448.1	7078.1
1038.61	448	7138.17
1038.71	447.9	7163.33
1038.81	447.8	7183.97
1038.91	447.7	7244.37
1039.01	447.6	7209
1039.11	447.5	7199.27
1039.21	447.4	7079.67
1039.31	447.3	7144.73
1039.41	447.2	7201.9
1039.51	447.1	7207.7
1039.61	447	7207.37
1039.71	446.9	7179.93
1039.81	446.8	7142.17
1039.91	446.7	7255.47
1040.01	446.6	7216.63
1040.11	446.5	7178.1
1040.21	446.4	7236.13
1040.31	446.3	7221.17
1040.41	446.2	7192.77
1040.51	446.1	7180.73
1040.61	446	7153.63
1040.71	445.9	7186.67
1040.81	445.8	7257.6
1040.91	445.7	7235.8
1041.01	445.6	7210.63
1041.11	445.5	7205.4
1041.21	445.4	7248.37
1041.31	445.3	7216.1
1041.41	445.2	7268.2
1041.51	445.1	7252.6
1041.61	445	7315.9
1041.71	444.9	7300.6
1041.81	444.8	7287.57
1041.91	444.7	7308.63
1042.01	444.6	7299.97
1042.11	444.5	7197
1042.21	444.4	7197.37
1042.31	444.3	7227.47
1042.41	444.2	7226.63
1042.51	444.1	7261.43
1042.61	444	7201.43
1042.71	443.9	7239.67
1042.81	443.8	7265.13
1042.91	443.7	7350.2
1043.01	443.6	7287.27
1043.11	443.5	7256.03
1043.21	443.4	7218.27
1043.31	443.3	7298.53
1043.41	443.2	7269.53
1043.51	443.1	7235.13
1043.61	443	7234.27
1043.71	442.9	7318
1043.81	442.8	7298.43
1043.91	442.7	7356.93
1044.01	442.6	7288.47
1044.11	442.5	7277.2
1044.21	442.4	7340.73
1044.31	442.3	7333.07
1044.41	442.2	7382.3
1044.51	442.1	7356.87
1044.61	442	7330.87
1044.71	441.9	7302.27
1044.81	441.8	7368.33
1044.91	441.7	7268.37
1045.01	441.6	7279.6
1045.11	441.5	7256.2
1045.21	441.4	7274.53
1045.31	441.3	7377.17
1045.41	441.2	7401.5
1045.51	441.1	7291
1045.61	441	7300.43
1045.71	440.9	7348
1045.81	440.8	7383.37
1045.91	440.7	7399.83
1046.01	440.6	7335.4
1046.11	440.5	7293.53
1046.21	440.4	7399.87
1046.31	440.3	7340.43
1046.41	440.2	7362.33
1046.51	440.1	7341.97
1046.61	440	7411.87
1046.71	439.9	7390.6
1046.81	439.8	7366.67
1046.91	439.7	7383.17
1047.01	439.6	7398.43
1047.11	439.5	7404.7
1047.21	439.4	7372.63
1047.31	439.3	7390.47
1047.41	439.2	7333.17
1047.51	439.1	7391.63
1047.61	439	7479.3
1047.71	438.9	7399.17
1047.81	438.8	7351.03
1047.91	438.7	7379.8
1048.01	438.6	7354.37
1048.11	438.5	7430.03
1048.21	438.4	7450.93
1048.31	438.3	7430.43
1048.41	438.2	7468.23
1048.51	438.1	7423
1048.61	438	7391.7
1048.71	437.9	7414.4
1048.81	437.8	7435.03
1048.91	437.7	7372.67
1049.01	437.6	7417.03
1049.11	437.5	7454.6
1049.21	437.4	7449.9
1049.31	437.3	7454.8
1049.41	437.2	7511.37
1049.51	437.1	7485.07
1049.61	437	7457.8
1049.71	436.9	7429.47
1049.81	436.8	7409.33
1049.91	436.7	7381.17
1050.01	436.6	7484.93
1050.11	436.5	7460.77
1050.21	436.4	7416.3
1050.31	436.3	7469.9
1050.41	436.2	7496.27
1050.51	436.1	7437.37
1050.61	436	7419.43
1050.71	435.9	7477.27
1050.81	435.8	7529.1
1050.91	435.7	7391.43
1051.01	435.6	7452.93
1051.11	435.5	7469.43
1051.21	435.4	7391.2
1051.31	435.3	7508.43
1051.41	435.2	7500.63
1051.51	435.1	7457.13
1051.61	435	7515.83
1051.71	434.9	7510.43
1051.81	434.8	7506.33
1051.91	434.7	7538.9
1052.01	434.6	7517.4
1052.11	434.5	7513.23
1052.21	434.4	7545.33
1052.31	434.3	7491.07
1052.41	434.2	7530.73
1052.51	434.1	7423
1052.61	434	7484.07
1052.71	433.9	7501.13
1052.81	433.8	7522.8
1052.91	433.7	7471.13
1053.01	433.6	7484.87
1053.11	433.5	7534.03
1053.21	433.4	7533.37
1053.31	433.3	7519.23
1053.41	433.2	7537.93
1053.51	433.1	7554.93
1053.61	433	7481.17
1053.71	432.9	7489.93
1053.81	432.8	7566.53
1053.91	432.7	7551.57
1054.01	432.6	7502.5
1054.11	432.5	7558.83
1054.21	432.4	7467.07
1054.31	432.3	7496.8
1054.41	432.2	7557.1
1054.51	432.1	7593.7
1054.61	432	7481.33
1054.71	431.9	7530
1054.81	431.8	7496.67
1054.91	431.7	7552.6
1055.01	431.6	7542
1055.11	431.5	7553.97
1055.21	431.4	7560.57
1055.31	431.3	7589.67
1055.41	431.2	7599.27
1055.51	431.1	7565.67
1055.61	431	7607.4
1055.71	430.9	7595.13
1055.81	430.8	7599.67
1055.91	430.7	7755.73
1056.01	430.6	7607.43
1056.11	430.5	7642.1
1056.21	430.4	7636.83
1056.31	430.3	7589
1056.41	430.2	7610.23
1056.51	430.1	7592.33
1056.61	430	7637.47
1056.71	429.9	7581.53
1056.81	429.8	7602.3
1056.91	429.7	7597.2
1057.01	429.6	7614.73
1057.11	429.5	7538.63
1057.21	429.4	7550.6
1057.31	429.3	7498.8
1057.41	429.2	7579.67
1057.51	429.1	7608.83
1057.61	429	7643.27
1057.71	428.9	7649.9
1057.81	428.8	7555.83
1057.91	428.7	7615.37
1058.01	428.6	7617.13
1058.11	428.5	7642.67
1058.21	428.4	7568.1
1058.31	428.3	7564.33
1058.41	428.2	7590.1
1058.51	428.1	7571.17
1058.61	428	7527.8
1058.71	427.9	7618
1058.81	427.8	7655.13
1058.91	427.7	7652.73
1059.01	427.6	7607.63
1059.11	427.5	7511.9
1059.21	427.4	7590.8
1059.31	427.3	7640.7
1059.41	427.2	7603
1059.51	427.1	7601.6
1059.61	427	7632.23
1059.71	426.9	7612.87
1059.81	426.8	7578.43
1059.91	426.7	7633.77
1060.01	426.6	7684.2
1060.11	426.5	7648.73
1060.21	426.4	7647.7
1060.31	426.3	7642.9
1060.41	426.2	7659.67
1060.51	426.1	7657.73
1060.61	426	7570.47
1060.71	425.9	7649.07
1060.81	425.8	7624.43
1060.91	425.7	7608.03
1061.01	425.6	7618.93
1061.11	425.5	7646.13
1061.21	425.4	7725.23
1061.31	425.3	7695.8
1061.41	425.2	7651.9
1061.51	425.1	7680.8
1061.61	425	7602.63
1061.71	424.9	7596.87
1061.81	424.8	7725.93
1061.91	424.7	7737.2
1062.01	424.6	7605.03
1062.11	424.5	7706.47
1062.21	424.4	7708.7
1062.31	424.3	7797.97
1062.41	424.2	7746.87
1062.51	424.1	7703.2
1062.61	424	7706.6
1062.71	423.9	7748.53
1062.81	423.8	7740.63
1062.91	423.7	7798.3
1063.01	423.6	7792.17
1063.11	423.5	7790.3
1063.21	423.4	7794.47
1063.31	423.3	7804.63
1063.41	423.2	7753.53
1063.51	423.1	7805.37
1063.61	423	7860.2
1063.71	422.9	7920.83
1063.81	422.8	7869.53
1063.91	422.7	7913.47
1064.01	422.6	7891.9
1064.11	422.5	7836.87
1064.21	422.4	7925.2
1064.31	422.3	7936.4
1064.41	422.2	7884.53
1064.51	422.1	7934.93
1064.61	422	7841.73
1064.71	421.9	7902.53
1064.81	421.8	7905.33
1064.91	421.7	7930.17
1065.01	421.6	7886.87
1065.11	421.5	7859.27
1065.21	421.4	7896.4
1065.31	421.3	7847.43
1065.41	421.2	7807.4
1065.51	421.1	7808.8
1065.61	421	7777.5
1065.71	420.9	7824.73
1065.81	420.8	7818.37
1065.91	420.7	7845.17
1066.01	420.6	7818.9
1066.11	420.5	7874.97
1066.21	420.4	7904.1
1066.31	420.3	7895.97
1066.41	420.2	7872.77
1066.51	420.1	7914.4
1066.61	420	7961.57
1066.71	419.9	7964.03
1066.81	419.8	7915.37
1066.91	419.7	7911.73
1067.01	419.6	7873.97
1067.11	419.5	7948.17
1067.21	419.4	7945.2
1067.31	419.3	7994.13
1067.41	419.2	7981.5
1067.51	419.1	7963.37
1067.61	419	8024.6
1067.71	418.9	7985.9
1067.81	418.8	8016
1067.91	418.7	8005.7
1068.01	418.6	7976.23
1068.11	418.5	7985.97
1068.21	418.4	7946.57
1068.31	418.3	7864.2
1068.41	418.2	7761.37
1068.51	418.1	7769.17
1068.61	418	7771.87
1068.71	417.9	7742.73
1068.81	417.8	7814.6
1068.91	417.7	7753.5
1069.01	417.6	7715.2
1069.11	417.5	7758.83
1069.21	417.4	7676.03
1069.31	417.3	7718.67
1069.41	417.2	7792.63
1069.51	417.1	7764.47
1069.61	417	7753.1
1069.71	416.9	7730.27
1069.81	416.8	7748.93
1069.91	416.7	7728.07
1070.01	416.6	7772.37
1070.11	416.5	7855.1
1070.21	416.4	7891.47
1070.31	416.3	7888.17
1070.41	416.2	7801.37
1070.51	416.1	7846.8
1070.61	416	7854.13
1070.71	415.9	7807.43
1070.81	415.8	7832.1
1070.91	415.7	7854.47
1071.01	415.6	7804.5
1071.11	415.5	7845.9
1071.21	415.4	7891.23
1071.31	415.3	7782.7
1071.41	415.2	7867.47
1071.51	415.1	7830.57
1071.61	415	7862.83
1071.71	414.9	7891.3
1071.81	414.8	7902.13
1071.91	414.7	7896.77
1072.01	414.6	7860.83
1072.11	414.5	7778.07
1072.21	414.4	7870.93
1072.31	414.3	7847.13
1072.41	414.2	7811.07
1072.51	414.1	7771.4
1072.61	414	7736.37
1072.71	413.9	7816.17
1072.81	413.8	7847.67
1072.91	413.7	7832.7
1073.01	413.6	7848.87
1073.11	413.5	7775.77
1073.21	413.4	7833.17
1073.31	413.3	7932.2
1073.41	413.2	7802
1073.51	413.1	7800.07
1073.61	413	7908.5
1073.71	412.9	7870.2
1073.81	412.8	7851.9
1073.91	412.7	7881.5
1074.01	412.6	7778.5
1074.11	412.5	7827.1
1074.21	412.4	7893
1074.31	412.3	7894.23
1074.41	412.2	7807.17
1074.51	412.1	7778.33
1074.61	412	7865.73
1074.71	411.9	7813.27
1074.81	411.8	7841.27
1074.91	411.7	7943.07
1075.01	411.6	7884.53
1075.11	411.5	7960.7
1075.21	411.4	7865.57
1075.31	411.3	7933.8
1075.41	411.2	7875.13
1075.51	411.1	7930.93
1075.61	411	7873.8
1075.71	410.9	7904.13
1075.81	410.8	7838.1
1075.91	410.7	7888.77
1076.01	410.6	7911.47
1076.11	410.5	7915
1076.21	410.4	7947.87
1076.31	410.3	7867.2
1076.41	410.2	7901.97
1076.51	410.1	7906.8
1076.61	410	7921.4
1076.71	409.9	7873.8
1076.81	409.8	7858.47
1076.91	409.7	7934.4
1077.01	409.6	7915.27
1077.11	409.5	7937.8
1077.21	409.4	7893.67
1077.31	409.3	7984.47
1077.41	409.2	7977.43
1077.51	409.1	7932.87
1077.61	409	8000.47
1077.71	408.9	8031.73
1077.81	408.8	7934.17
1077.91	408.7	7954.7
1078.01	408.6	7915.1
1078.11	408.5	7968.73
1078.21	408.4	7955.57
1078.31	408.3	7944.93
1078.41	408.2	7998.2
1078.51	408.1	7940.2
1078.61	408	7982.9
1078.71	407.9	7965.67
1078.81	407.8	7951.7
1078.91	407.7	7980.3
1079.01	407.6	7984.8
1079.11	407.5	8061.77
1079.21	407.4	8010.77
1079.31	407.3	8036.87
1079.41	407.2	8111.77
1079.51	407.1	8159.93
1079.61	407	8224.63
1079.71	406.9	8280.2
1079.81	406.8	8474.53
1079.91	406.7	8642.87
1080.01	406.6	8875.03
1080.11	406.5	9212.13
1080.21	406.4	9742.97
1080.31	406.3	10462.1
1080.41	406.2	11193.9
1080.51	406.1	11951
1080.61	406	12706.4
1080.71	405.9	13264.3
1080.81	405.8	13138.3
1080.91	405.7	12351.8
1081.01	405.6	11236.9
1081.11	405.5	10107.1
1081.21	405.4	9217.2
1081.31	405.3	8683.8
1081.41	405.2	8362.67
1081.51	405.1	8211.83
1081.61	405	8220.67
1081.71	404.9	8139.47
1081.81	404.8	8120.5
1081.91	404.7	8111.37
1082.01	404.6	8055.83
1082.11	404.5	8119.63
1082.21	404.4	8082.33
1082.31	404.3	8042.37
1082.41	404.2	8080.83
1082.51	404.1	8096.77
1082.61	404	8106.27
1082.71	403.9	8043.3
1082.81	403.8	8048.2
1082.91	403.7	8084.67
1083.01	403.6	8082.8
1083.11	403.5	8071.63
1083.21	403.4	8111.5
1083.31	403.3	8076.93
1083.41	403.2	8028.13
1083.51	403.1	8060.77
1083.61	403	8134.03
1083.71	402.9	8078.3
1083.81	402.8	8042.9
1083.91	402.7	8107.53
1084.01	402.6	8077.7
1084.11	402.5	8106.73
1084.21	402.4	8093.1
1084.31	402.3	8056.37
1084.41	402.2	8093.93
1084.51	402.1	8078.27
1084.61	402	8041.77
1084.71	401.9	8093
1084.81	401.8	8163.77
1084.91	401.7	8230.53
1085.01	401.6	8216.27
1085.11	401.5	8123.5
1085.21	401.4	8143.67
1085.31	401.3	8101.7
1085.41	401.2	8193.2
1085.51	401.1	8143
1085.61	401	8162.37
1085.71	400.9	8124.67
1085.81	400.8	8149.33
1085.91	400.7	8116.33
1086.01	400.6	8239.83
1086.11	400.5	8166.37
1086.21	400.4	8200.87
1086.31	400.3	8203.13
1086.41	400.2	8242.13
1086.51	400.1	8251.63
1086.61	400	8222.07
1086.71	399.9	8198.1
1086.81	399.8	8213.3
1086.91	399.7	8215.03
1087.01	399.6	8215.33
1087.11	399.5	8233.13
1087.21	399.4	8231.97
1087.31	399.3	8221.83
1087.41	399.2	8232.53
1087.51	399.1	8195.63
1087.61	399	8202.37
1087.71	398.9	8201.97
1087.81	398.8	8186.87
1087.91	398.7	8176.1
1088.01	398.6	8216.83
1088.11	398.5	8276.8
1088.21	398.4	8215.63
1088.31	398.3	8225.43
1088.41	398.2	8269.23
1088.51	398.1	8247.07
1088.61	398	8229.57
1088.71	397.9	8189.3
1088.81	397.8	8207.53
1088.91	397.7	8263
1089.01	397.6	8225.87
1089.11	397.5	8234.17
1089.21	397.4	8272.07
1089.31	397.3	8251.2
1089.41	397.2	8164.5
1089.51	397.1	8207.53
1089.61	397	8243.4
1089.71	396.9	8196
1089.81	396.8	8178.93
1089.91	396.7	8280.83
1090.01	396.6	8237.37
1090.11	396.5	8312.3
1090.21	396.4	8238.83
1090.31	396.3	8273.6
1090.41	396.2	8295.97
1090.51	396.1	8264.1
1090.61	396	8287.87
1090.71	395.9	8180.13
1090.81	395.8	8170.9
1090.91	395.7	8235.53
1091.01	395.6	8238.87
1091.11	395.5	8196.77
1091.21	395.4	8211.83
1091.31	395.3	8282.93
1091.41	395.2	8270.43
1091.51	395.1	8315.67
1091.61	395	8221.43
1091.71	394.9	8268.27
1091.81	394.8	8238.37
1091.91	394.7	8242.87
1092.01	394.6	8316.93
1092.11	394.5	8254.07
1092.21	394.4	8249.2
1092.31	394.3	8325.37
1092.41	394.2	8332.17
1092.51	394.1	8325.53
1092.61	394	8311.93
1092.71	393.9	8220.3
1092.81	393.8	8311.33
1092.91	393.7	8275.6
1093.01	393.6	8302.13
1093.11	393.5	8265.03
1093.21	393.4	8267.43
1093.31	393.3	8289.6
1093.41	393.2	8293.13
1093.51	393.1	8254.13
1093.61	393	8280.4
1093.71	392.9	8345.4
1093.81	392.8	8309.03
1093.91	392.7	8303.43
1094.01	392.6	8315.83
1094.11	392.5	8365
1094.21	392.4	8318.87
1094.31	392.3	8276.97
1094.41	392.2	8272.7
1094.51	392.1	8322.8
1094.61	392	8267.83
1094.71	391.9	8247.57
1094.81	391.8	8368.57
1094.91	391.7	8298.1
1095.01	391.6	8372.17
1095.11	391.5	8382.4
1095.21	391.4	8385.43
1095.31	391.3	8327.33
1095.41	391.2	8336.77
1095.51	391.1	8270.4
1095.61	391	8363.6
1095.71	390.9	8334.2
1095.81	390.8	8411.7
1095.91	390.7	8371.3
1096.01	390.6	8403.13
1096.11	390.5	8392.87
1096.21	390.4	8401.43
1096.31	390.3	8419.73
1096.41	390.2	8375.13
1096.51	390.1	8386.07
1096.61	390	8431.03
1096.71	389.9	8444.57
1096.81	389.8	8399.2
1096.91	389.7	8431.8
1097.01	389.6	8425.73
1097.11	389.5	8403.17
1097.21	389.4	8440.17
1097.31	389.3	8330.13
1097.41	389.2	8478
1097.51	389.1	8393.43
1097.61	389	8434.57
1097.71	388.9	8432.33
1097.81	388.8	8358.63
1097.91	388.7	8435.77
1098.01	388.6	8426.37
1098.11	388.5	8456.93
1098.21	388.4	8487.43
1098.31	388.3	8494.83
1098.41	388.2	8387.13
1098.51	388.1	8463.5
1098.61	388	8504.03
1098.71	387.9	8451.4
1098.81	387.8	8412.93
1098.91	387.7	8466.3
1099.01	387.6	8492.4
1099.11	387.5	8410.97
1099.21	387.4	8474.67
1099.31	387.3	8406.83
1099.41	387.2	8353.03
1099.51	387.1	8398.6
1099.61	387	8498.8
1099.71	386.9	8473.67
1099.81	386.8	8528.03
1099.91	386.7	8437.03
1100.01	386.6	8511.07
1100.11	386.5	8553.57
1100.21	386.4	8521.5
1100.31	386.3	8461.43
1100.41	386.2	8554.37
1100.51	386.1	8422.13
1100.61	386	8595.13
1100.71	385.9	8533.73
1100.81	385.8	8547.2
1100.91	385.7	8517.23
1101.01	385.6	8537.5
1101.11	385.5	8551.67
1101.21	385.4	8540.83
1101.31	385.3	8541.7
1101.41	385.2	8480
1101.51	385.1	8556.5
1101.61	385	8608.07
1101.71	384.9	8560.47
1101.81	384.8	8576.87
1101.91	384.7	8564.53
1102.01	384.6	8558.27
1102.11	384.5	8506.2
1102.21	384.4	8490.67
1102.31	384.3	8535
1102.41	384.2	8574.9
1102.51	384.1	8714.63
1102.61	384	8588.27
1102.71	383.9	8537.9
1102.81	383.8	8527.13
1102.91	383.7	8597.87
1103.01	383.6	8569.87
1103.11	383.5	8639.83
1103.21	383.4	8581.83
1103.31	383.3	8590.37
1103.41	383.2	8524.8
1103.51	383.1	8615.7
1103.61	383	8587.6
1103.71	382.9	8611.53
1103.81	382.8	8678.7
1103.91	382.7	8632.63
1104.01	382.6	8562.2
1104.11	382.5	8616.73
1104.21	382.4	8627.37
1104.31	382.3	8498.03
1104.41	382.2	8590.87
1104.51	382.1	8663.2
1104.61	382	8652.67
1104.71	381.9	8663.93
1104.81	381.8	8597.5
1104.91	381.7	8597.53
1105.01	381.6	8623.7
1105.11	381.5	8626.93
1105.21	381.4	8669.63
1105.31	381.3	8628.23
1105.41	381.2	8709.3
1105.51	381.1	8659.07
1105.61	381	8551.2
1105.71	380.9	8591.53
1105.81	380.8	8670.43
1105.91	380.7	8623
1106.01	380.6	8569.1
1106.11	380.5	8603.8
1106.21	380.4	8605.9
1106.31	380.3	8588.13
1106.41	380.2	8701.8
1106.51	380.1	8655.73
1106.61	380	8610.17
1106.71	379.9	8616.23
1106.81	379.8	8653.3
1106.91	379.7	8666.77
1107.01	379.6	8639.27
1107.11	379.5	8648.9
1107.21	379.4	8692.27
1107.31	379.3	8660.33
1107.41	379.2	8684.17
1107.51	379.1	8609.4
1107.61	379	8586.63
1107.71	378.9	8617.37
1107.81	378.8	8666.7
1107.91	378.7	8635.53
1108.01	378.6	8631.3
1108.11	378.5	8663.5
1108.21	378.4	8654.97
1108.31	378.3	8625.4
1108.41	378.2	8726.73
1108.51	378.1	8642.6
1108.61	378	8633.77
1108.71	377.9	8684.3
1108.81	377.8	8725.53
1108.91	377.7	8633.1
1109.01	377.6	8716.07
1109.11	377.5	8734.1
1109.21	377.4	8686.57
1109.31	377.3	8649.97
1109.41	377.2	8603
1109.51	377.1	8558.57
1109.61	377	8636.37
1109.71	376.9	8704.8
1109.81	376.8	8713.3
1109.91	376.7	8674.53
1110.01	376.6	8688.03
1110.11	376.5	8644.83
1110.21	376.4	8616.83
1110.31	376.3	8724.73
1110.41	376.2	8676.47
1110.51	376.1	8638.9
1110.61	376	8698.3
1110.71	375.9	8777.53
1110.81	375.8	8632.37
1110.91	375.7	8655.7
1111.01	375.6	8665.43
1111.11	375.5	8579.3
1111.21	375.4	8644.1
1111.31	375.3	8574.6
1111.41	375.2	8628.07
1111.51	375.1	8695.53
1111.61	375	8659.7
1111.71	374.9	8655.87
1111.81	374.8	8699.37
1111.91	374.7	8766.27
1112.01	374.6	8663.57
1112.11	374.5	8726.43
1112.21	374.4	8649.5
1112.31	374.3	8687.33
1112.41	374.2	8728.9
1112.51	374.1	8688.67
1112.61	374	8748.63
1112.71	373.9	8697.5
1112.81	373.8	8681.5
1112.91	373.7	8693.63
1113.01	373.6	8739.43
1113.11	373.5	8747.6
1113.21	373.4	8801.97
1113.31	373.3	8751.9
1113.41	373.2	8785.83
1113.51	373.1	8827.7
1113.61	373	8771.03
1113.71	372.9	8742.13
1113.81	372.8	8748.5
1113.91	372.7	8720.53
1114.01	372.6	8735.13
1114.11	372.5	8782.1
1114.21	372.4	8744.97
1114.31	372.3	8780.33
1114.41	372.2	8781.73
1114.51	372.1	8812.43
1114.61	372	8808.77
1114.71	371.9	8786.37
1114.81	371.8	8814.77
1114.91	371.7	8834.2
1115.01	371.6	8769.17
1115.11	371.5	8794.8
1115.21	371.4	8875.63
1115.31	371.3	8828.97
1115.41	371.2	8873.83
1115.51	371.1	8814.27
1115.61	371	8875.5
1115.71	370.9	8881.93
1115.81	370.8	8824.1
1115.91	370.7	8852.67
1116.01	370.6	8931.67
1116.11	370.5	8949.07
1116.21	370.4	8878.87
1116.31	370.3	8944.43
1116.41	370.2	8877.4
1116.51	370.1	8904.53
1116.61	370	8960.2
1116.71	369.9	8974.57
1116.81	369.8	8930.87
1116.91	369.7	8945.87
1117.01	369.6	8959.27
1117.11	369.5	8898.73
1117.21	369.4	8993.03
1117.31	369.3	8970.87
1117.41	369.2	8888.97
1117.51	369.1	8940.5
1117.61	369	8988
1117.71	368.9	8955.2
1117.81	368.8	8988.13
1117.91	368.7	8988.2
1118.01	368.6	8996.87
1118.11	368.5	8983.87
1118.21	368.4	9055.97
1118.31	368.3	9088.73
1118.41	368.2	9103.87
1118.51	368.1	9075.53
1118.61	368	9066.33
1118.71	367.9	9050.67
1118.81	367.8	9041.97
1118.91	367.7	8980.13
1119.01	367.6	9100.07
1119.11	367.5	9100.77
1119.21	367.4	9092.67
1119.31	367.3	9071.93
1119.41	367.2	9083.87
1119.51	367.1	9171.23
1119.61	367	9101.37
1119.71	366.9	9047.23
1119.81	366.8	9024.43
1119.91	366.7	9076.63
1120.01	366.6	8993.53
1120.11	366.5	9009.5
1120.21	366.4	8985.1
1120.31	366.3	9034.07
1120.41	366.2	9048.73
1120.51	366.1	9015.43
1120.61	366	9022.7
1120.71	365.9	8963.43
1120.81	365.8	8945.87
1120.91	365.7	8876.7
1121.01	365.6	8858.53
1121.11	365.5	8868.93
1121.21	365.4	8855.93
1121.31	365.3	8846.23
1121.41	365.2	8790.17
1121.51	365.1	8821.87
1121.61	365	8760.03
1121.71	364.9	8746.9
1121.81	364.8	8597.37
1121.91	364.7	8627.53
1122.01	364.6	8671.97
1122.11	364.5	8628.7
1122.21	364.4	8678.13
1122.31	364.3	8653.23
1122.41	364.2	8639.13
1122.51	364.1	8573.43
1122.61	364	8569.7
1122.71	363.9	8500.7
1122.81	363.8	8562.73
1122.91	363.7	8611.1
1123.01	363.6	8533.77
1123.11	363.5	8459.1
1123.21	363.4	8497.07
1123.31	363.3	8533.2
1123.41	363.2	8514.33
1123.51	363.1	8435.33
1123.61	363	8393.23
1123.71	362.9	8451.13
1123.81	362.8	8396.43
1123.91	362.7	8464.63
1124.01	362.6	8435.3
1124.11	362.5	8472.43
1124.21	362.4	8417.03
1124.31	362.3	8433.93
1124.41	362.2	8388.8
1124.51	362.1	8420.43
1124.61	362	8369.53
1124.71	361.9	8384.87
1124.81	361.8	8432.2
1124.91	361.7	8439.9
1125.01	361.6	8377.57
1125.11	361.5	8370.07
1125.21	361.4	8368.43
1125.31	361.3	8438.2
1125.41	361.2	8488.3
1125.51	361.1	8434.1
1125.61	361	8402.83
1125.71	360.9	8444.87
1125.81	360.8	8418.93
1125.91	360.7	8353.77
1126.01	360.6	8409.87
1126.11	360.5	8389.07
1126.21	360.4	8409.13
1126.31	360.3	8353.97
1126.41	360.2	8474.63
1126.51	360.1	8452.73
1126.61	360	8478.47
1126.71	359.9	8512.43
1126.81	359.8	8468.13
1126.91	359.7	8417
1127.01	359.6	8353.5
1127.11	359.5	8423.33
1127.21	359.4	8475.97
1127.31	359.3	8506.13
1127.41	359.2	8517.87
1127.51	359.1	8450.77
1127.61	359	8519.13
1127.71	358.9	8506.4
1127.81	358.8	8511.43
1127.91	358.7	8511.83
1128.01	358.6	8492.47
1128.11	358.5	8584.2
1128.21	358.4	8602.67
1128.31	358.3	8619.43
1128.41	358.2	8748.33
1128.51	358.1	8755
1128.61	358	8730.53
1128.71	357.9	8699.4
1128.81	357.8	8739.73
1128.91	357.7	8885.03
1129.01	357.6	8838.5
1129.11	357.5	8982.97
1129.21	357.4	8890.23
1129.31	357.3	8966.9
1129.41	357.2	9034.93
1129.51	357.1	9039.03
1129.61	357	9160.93
1129.71	356.9	9192.4
1129.81	356.8	9202.73
1129.91	356.7	9247.27
1130.01	356.6	9368.2
1130.11	356.5	9354.97
1130.21	356.4	9457.17
1130.31	356.3	9491.73
1130.41	356.2	9604.63
1130.51	356.1	9693.63
1130.61	356	9718.87
1130.71	355.9	9845.3
1130.81	355.8	9852.43
1130.91	355.7	10008.5
1131.01	355.6	10097.6
1131.11	355.5	10275
1131.21	355.4	10389.2
1131.31	355.3	10495.7
1131.41	355.2	10646.9
1131.51	355.1	10663.9
1131.61	355	10845.8
1131.71	354.9	11075.1
1131.81	354.8	11116
1131.91	354.7	11306.7
1132.01	354.6	11485.6
1132.11	354.5	11483.3
1132.21	354.4	11677.3
1132.31	354.3	11733.6
1132.41	354.2	11917.1
1132.51	354.1	12018.4
1132.61	354	12125.8
1132.71	353.9	12255.5
1132.81	353.8	12330.5
1132.91	353.7	12443.9
1133.01	353.6	12489.9
1133.11	353.5	12518.7
1133.21	353.4	12545.4
1133.31	353.3	12593.5
1133.41	353.2	12519.8
1133.51	353.1	12502
1133.61	353	12535.5
1133.71	352.9	12459.3
1133.81	352.8	12427.6
1133.91	352.7	12330.6
1134.01	352.6	12195.1
1134.11	352.5	12030
1134.21	352.4	11964.4
1134.31	352.3	11871.6
1134.41	352.2	11624.7
1134.51	352.1	11463.2
1134.61	352	11365.9
1134.71	351.9	11212
1134.81	351.8	10980.8
1134.91	351.7	10885.1
1135.01	351.6	10776.8
1135.11	351.5	10612.9
1135.21	351.4	10407.9
1135.31	351.3	10395.3
1135.41	351.2	10267.9
1135.51	351.1	10149.5
1135.61	351	10023.9
1135.71	350.9	9863.9
1135.81	350.8	9783.43
1135.91	350.7	9583.07
1136.01	350.6	9455.77
1136.11	350.5	9396.07
1136.21	350.4	9338.13
1136.31	350.3	9310.8
1136.41	350.2	9190.4
1136.51	350.1	9196.87
1136.61	350	9083.1
1136.71	349.9	9015.3
1136.81	349.8	8905.63
1136.91	349.7	8908.5
1137.01	349.6	8848.83
1137.11	349.5	8787.5
1137.21	349.4	8702.6
1137.31	349.3	8644.83
1137.41	349.2	8587.6
1137.51	349.1	8526.8
1137.61	349	8497
1137.71	348.9	8439.73
1137.81	348.8	8386.93
1137.91	348.7	8367.87
1138.01	348.6	8269.1
1138.11	348.5	8193.67
1138.21	348.4	8198.6
1138.31	348.3	8092
1138.41	348.2	8094.37
1138.51	348.1	8039.53
1138.61	348	7908.3
1138.71	347.9	7896.53
1138.81	347.8	7798.43
1138.91	347.7	7746.17
1139.01	347.6	7644.8
1139.11	347.5	7673.53
1139.21	347.4	7538.27
1139.31	347.3	7432.33
1139.41	347.2	7410.5
1139.51	347.1	7405.13
1139.61	347	7325.73
1139.71	346.9	7277.6
1139.81	346.8	7218.23
1139.91	346.7	7185.8
1140.01	346.6	7098.07
1140.11	346.5	7126.43
1140.21	346.4	7018.77
1140.31	346.3	7025.43
1140.41	346.2	6922.83
1140.51	346.1	6817.53
1140.61	346	6827.17
1140.71	345.9	6839.7
1140.81	345.8	6717.37
1140.91	345.7	6701.7
1141.01	345.6	6713.8
1141.11	345.5	6621.53
1141.21	345.4	6588.67
1141.31	345.3	6609.2
1141.41	345.2	6626.8
1141.51	345.1	6507.5
1141.61	345	6479.67
1141.71	344.9	6490.8
1141.81	344.8	6431.73
1141.91	344.7	6489.43
1142.01	344.6	6508.77
1142.11	344.5	6452.9
1142.21	344.4	6415.3
1142.31	344.3	6359.63
1142.41	344.2	6362.5
1142.51	344.1	6364.57
1142.61	344	6417.83
1142.71	343.9	6320.43
1142.81	343.8	6310.37
1142.91	343.7	6273.43
1143.01	343.6	6295.1
1143.11	343.5	6235.07
1143.21	343.4	6287.1
1143.31	343.3	6243.03
1143.41	343.2	6239.7
1143.51	343.1	6272
1143.61	343	6188.1
1143.71	342.9	6241.93
1143.81	342.8	6176.2
1143.91	342.7	6198
1144.01	342.6	6309.43
1144.11	342.5	6284.9
1144.21	342.4	6253.43
1144.31	342.3	6257.07
1144.41	342.2	6292.93
1144.51	342.1	6328.37
1144.61	342	6306.2
1144.71	341.9	6261.2
1144.81	341.8	6260.43
1144.91	341.7	6383.77
1145.01	341.6	6284.93
1145.11	341.5	6322.73
1145.21	341.4	6360.47
1145.31	341.3	6396.83
1145.41	341.2	6422.17
1145.51	341.1	6463.1
1145.61	341	6375.43
1145.71	340.9	6474.73
1145.81	340.8	6409
1145.91	340.7	6468.07
1146.01	340.6	6578.73
1146.11	340.5	6620.4
1146.21	340.4	6645.93
1146.31	340.3	6639.07
1146.41	340.2	6677
1146.51	340.1	6719.63
1146.61	340	6725.13
1146.71	339.9	6750.67
1146.81	339.8	6816.2
1146.91	339.7	6904.9
1147.01	339.6	6929.77
1147.11	339.5	6959.33
1147.21	339.4	6998.13
1147.31	339.3	7112.23
1147.41	339.2	7069.03
1147.51	339.1	7136.6
1147.61	339	7250.03
1147.71	338.9	7351.3
1147.81	338.8	7435.67
1147.91	338.7	7514
1148.01	338.6	7575.43
1148.11	338.5	7708.47
1148.21	338.4	7766.93
1148.31	338.3	7938.2
1148.41	338.2	7998.87
1148.51	338.1	8127.8
1148.61	338	8239.3
1148.71	337.9	8304.33
1148.81	337.8	8583.07
1148.91	337.7	8692.1
1149.01	337.6	8874.87
1149.11	337.5	8986.33
1149.21	337.4	9165.87
1149.31	337.3	9390.7
1149.41	337.2	9521.63
1149.51	337.1	9693.07
1149.61	337	9934.67
1149.71	336.9	10204.1
1149.81	336.8	10310.7
1149.91	336.7	10545.1
1150.01	336.6	10894.1
1150.11	336.5	11063.1
1150.21	336.4	11250.8
1150.31	336.3	11592.2
1150.41	336.2	11819.6
1150.51	336.1	11918.8
1150.61	336	12162.1
1150.71	335.9	12345.5
1150.81	335.8	12517.4
1150.91	335.7	12737.7
1151.01	335.6	12822.6
1151.11	335.5	12992.3
1151.21	335.4	13131.1
1151.31	335.3	13058.3
1151.41	335.2	13037.4
1151.51	335.1	12926.4
1151.61	335	12890.5
1151.71	334.9	12909.6
1151.81	334.8	12811.7
1151.91	334.7	12557.4
1152.01	334.6	12389.6
1152.11	334.5	12173.2
1152.21	334.4	11876
1152.31	334.3	11590.9
1152.41	334.2	11295
1152.51	334.1	11043.3
1152.61	334	10749.6
1152.71	333.9	10491.3
1152.81	333.8	10317.3
1152.91	333.7	9943.4
1153.01	333.6	9671.57
1153.11	333.5	9411.37
1153.21	333.4	9195.1
1153.31	333.3	8982.7
1153.41	333.2	8634.8
1153.51	333.1	8513.67
1153.61	333	8260.07
1153.71	332.9	8017.77
1153.81	332.8	7860.07
1153.91	332.7	7702.6
1154.01	332.6	7507.13
1154.11	332.5	7387.23
1154.21	332.4	7190
1154.31	332.3	7043.17
1154.41	332.2	6949.07
1154.51	332.1	6757.8
1154.61	332	6589.03
1154.71	331.9	6574.2
1154.81	331.8	6384.83
1154.91	331.7	6254.17
1155.01	331.6	6107.63
1155.11	331.5	6056.73
1155.21	331.4	5963.8
1155.31	331.3	5903.27
1155.41	331.2	5871.37
1155.51	331.1	5767.87
1155.61	331	5734.43
1155.71	330.9	5704.07
1155.81	330.8	5541.63
1155.91	330.7	5507
1156.01	330.6	5476.87
1156.11	330.5	5359.33
1156.21	330.4	5310.03
1156.31	330.3	5270.73
1156.41	330.2	5254.53
1156.51	330.1	5180.3
1156.61	330	5150.03
1156.71	329.9	5112.37
1156.81	329.8	5104.43
1156.91	329.7	5011.83
1157.01	329.6	4974.8
1157.11	329.5	4938.3
1157.21	329.4	4923.5
1157.31	329.3	4864.77
1157.41	329.2	4844.07
1157.51	329.1	4845.87
1157.61	329	4803.93
1157.71	328.9	4742
1157.81	328.8	4764.13
1157.91	328.7	4763.7
1158.01	328.6	4663.13
1158.11	328.5	4694.43
1158.21	328.4	4672.8
1158.31	328.3	4580.5
1158.41	328.2	4577.93
1158.51	328.1	4612.2
1158.61	328	4548.87
1158.71	327.9	4539.4
1158.81	327.8	4579.7
1158.91	327.7	4523.8
1159.01	327.6	4538
1159.11	327.5	4486.13
1159.21	327.4	4505.6
1159.31	327.3	4524.87
1159.41	327.2	4458.9
1159.51	327.1	4393.87
1159.61	327	4417.23
1159.71	326.9	4412.57
1159.81	326.8	4404.6
1159.91	326.7	4417.1
1160.01	326.6	4379.5
1160.11	326.5	4345.8
1160.21	326.4	4349.1
1160.31	326.3	4335.9
1160.41	326.2	4328.67
1160.51	326.1	4363.93
1160.61	326	4324.3
1160.71	325.9	4284.93
1160.81	325.8	4331.07
1160.91	325.7	4302.6
1161.01	325.6	4215.3
1161.11	325.5	4209.2
1161.21	325.4	4220.9
1161.31	325.3	4188.8
1161.41	325.2	4192.87
1161.51	325.1	4212.17
1161.61	325	4224.5
1161.71	324.9	4237.37
1161.81	324.8	4235.8
1161.91	324.7	4247.13
1162.01	324.6	4150.2
1162.11	324.5	4231.03
1162.21	324.4	4213.4
1162.31	324.3	4146.67
1162.41	324.2	4177.17
1162.51	324.1	4138.43
1162.61	324	4174.53
1162.71	323.9	4127.23
1162.81	323.8	4156.93
1162.91	323.7	4176.07
1163.01	323.6	4063.27
1163.11	323.5	4034.67
1163.21	323.4	4105.47
1163.31	323.3	4158.33
1163.41	323.2	4099.67
1163.51	323.1	4049.33
1163.61	323	4035.8
1163.71	322.9	4086.83
1163.81	322.8	4089.8
1163.91	322.7	4102.8
1164.01	322.6	4049.3
1164.11	322.5	4066.97
1164.21	322.4	4088.9
1164.31	322.3	4090
1164.41	322.2	4000.7
1164.51	322.1	4061.23
1164.61	322	4048.63
1164.71	321.9	4071.3
1164.81	321.8	4106.87
1164.91	321.7	4070.53
1165.01	321.6	4034.23
1165.11	321.5	4022
1165.21	321.4	4109.97
1165.31	321.3	4110
1165.41	321.2	4086.97
1165.51	321.1	4098.6
1165.61	321	4091.57
1165.71	320.9	4039.13
1165.81	320.8	4004.4
1165.91	320.7	3977.33
1166.01	320.6	4032.87
1166.11	320.5	4032.57
1166.21	320.4	4123.93
1166.31	320.3	4063.77
1166.41	320.2	4039.23
1166.51	320.1	4020.2
1166.61	320	4047.43
1166.71	319.9	4023.07
1166.81	319.8	4052.07
1166.91	319.7	4025.9
1167.01	319.6	4034.17
1167.11	319.5	4040.6
1167.21	319.4	4032.4
1167.31	319.3	4052.83
1167.41	319.2	4025.83
1167.51	319.1	4006.8
1167.61	319	4057.47
1167.71	318.9	3994.43
1167.81	318.8	3984.27
1167.91	318.7	3968.63
1168.01	318.6	3994.57
1168.11	318.5	4034.83
1168.21	318.4	4012.27
1168.31	318.3	4047.6
1168.41	318.2	4089.87
1168.51	318.1	4007.27
1168.61	318	3973.53
1168.71	317.9	3908.3
1168.81	317.8	3973.37
1168.91	317.7	3992.57
1169.01	317.6	4012.6
1169.11	317.5	4045.53
1169.21	317.4	3978.37
1169.31	317.3	3969.4
1169.41	317.2	3987.53
1169.51	317.1	4006.8
1169.61	317	3993.63
1169.71	316.9	4007.33
1169.81	316.8	3993.8
1169.91	316.7	3950.7
1170.01	316.6	3941.43
1170.11	316.5	3935.77
1170.21	316.4	3972.87
1170.31	316.3	3984.23
1170.41	316.2	4003.47
1170.51	316.1	3984.17
1170.61	316	4004.63
1170.71	315.9	3953.67
1170.81	315.8	3950.9
1170.91	315.7	4004
1171.01	315.6	4005.3
1171.11	315.5	3976.03
1171.21	315.4	3922.4
1171.31	315.3	3990.8
1171.41	315.2	3973
1171.51	315.1	3965.07
1171.61	315	3936.83
1171.71	314.9	3949.2
1171.81	314.8	4030.47
1171.91	314.7	3953.5
1172.01	314.6	3934.5
1172.11	314.5	3937.1
1172.21	314.4	3896.1
1172.31	314.3	3936.73
1172.41	314.2	3988.47
1172.51	314.1	4063.73
1172.61	314	3995.8
1172.71	313.9	3924.03
1172.81	313.8	3930.7
1172.91	313.7	3976.5
1173.01	313.6	3998.1
1173.11	313.5	3922.23
1173.21	313.4	3941.3
1173.31	313.3	3967.97
1173.41	313.2	3947.97
1173.51	313.1	3912.27
1173.61	313	3921.3
1173.71	312.9	3944.97
1173.81	312.8	3921.1
1173.91	312.7	3901.5
1174.01	312.6	3971
1174.11	312.5	3940.67
1174.21	312.4	3970.6
1174.31	312.3	3981.07
1174.41	312.2	3975.73
1174.51	312.1	3920.97
1174.61	312	3948.47
1174.71	311.9	3963.03
1174.81	311.8	3988.63
1174.91	311.7	4001.83
1175.01	311.6	3923.07
1175.11	311.5	3944.7
1175.21	311.4	3933.47
1175.31	311.3	3949.23
1175.41	311.2	3929.3
1175.51	311.1	3988.13
1175.61	311	3979.13
1175.71	310.9	3957.83
1175.81	310.8	3897.87
1175.91	310.7	3944.1
1176.01	310.6	3997.07
1176.11	310.5	3951.5
1176.21	310.4	3965.5
1176.31	310.3	3991.47
1176.41	310.2	3966.47
1176.51	310.1	3974.53
1176.61	310	3927
1176.71	309.9	3955.97
1176.81	309.8	3968.8
1176.91	309.7	3893.47
1177.01	309.6	3946.07
1177.11	309.5	3949.43
1177.21	309.4	3961.37
1177.31	309.3	3997.97
1177.41	309.2	3947.37
1177.51	309.1	3970
1177.61	309	3988.73
1177.71	308.9	3972
1177.81	308.8	3993.57
1177.91	308.7	3963.2
1178.01	308.6	3938.8
1178.11	308.5	3984.87
1178.21	308.4	3983.67
1178.31	308.3	3953.7
1178.41	308.2	3966.17
1178.51	308.1	3971.2
1178.61	308	3985.13
1178.71	307.9	4005.13
1178.81	307.8	3926.67
1178.91	307.7	3901.07
1179.01	307.6	3942.2
1179.11	307.5	3957.13
1179.21	307.4	4016.4
1179.31	307.3	3973.07
1179.41	307.2	3931.9
1179.51	307.1	3989.4
1179.61	307	3963
1179.71	306.9	3985.67
1179.81	306.8	4022.2
1179.91	306.7	3994.07
1180.01	306.6	3951.53
1180.11	306.5	3930.27
1180.21	306.4	3984.23
1180.31	306.3	4033.9
1180.41	306.2	3975
1180.51	306.1	3963.7
1180.61	306	3949.13
1180.71	305.9	3934.87
1180.81	305.8	3932.4
1180.91	305.7	3973.53
1181.01	305.6	3941.5
1181.11	305.5	3971.73
1181.21	305.4	3968.67
1181.31	305.3	3942.73
1181.41	305.2	3973.9
1181.51	305.1	3929.93
1181.61	305	3988.1
1181.71	304.9	3961.3
1181.81	304.8	3999.07
1181.91	304.7	4019.5
1182.01	304.6	3914.7
1182.11	304.5	3971.87
1182.21	304.4	3962.03
1182.31	304.3	3943.87
1182.41	304.2	3967.83
1182.51	304.1	4014.3
1182.61	304	3923.43
1182.71	303.9	3983.23
1182.81	303.8	3982.47
1182.91	303.7	3991.47
1183.01	303.6	4001.37
1183.11	303.5	4010.07
1183.21	303.4	3983.13
1183.31	303.3	3992.27
1183.41	303.2	4034.93
1183.51	303.1	3945.2
1183.61	303	3971.47
1183.71	302.9	4040.9
1183.81	302.8	3983.97
1183.91	302.7	3981.13
1184.01	302.6	3971
1184.11	302.5	3966.67
1184.21	302.4	4021.73
1184.31	302.3	3990.53
1184.41	302.2	4017.83
1184.51	302.1	4001.77
1184.61	302	4009.43
1184.71	301.9	4025.2
1184.81	301.8	3998.37
1184.91	301.7	4021.07
1185.01	301.6	3985.43
1185.11	301.5	4012.5
1185.21	301.4	3952.87
1185.31	301.3	3938.03
1185.41	301.2	4017.5
1185.51	301.1	4014.5
1185.61	301	4003.73
1185.71	300.9	3931.5
1185.81	300.8	3936.47
1185.91	300.7	4009.03
1186.01	300.6	4007.57
1186.11	300.5	3987.1
1186.21	300.4	3969.23
1186.31	300.3	3990.03
1186.41	300.2	4025.63
1186.51	300.1	4043.73
1186.61	300	4005.97
1186.71	299.9	3930.8
1186.81	299.8	3972.8
1186.91	299.7	3974.13
1187.01	299.6	4061.7
1187.11	299.5	3965.7
1187.21	299.4	3992.07
1187.31	299.3	4027.07
1187.41	299.2	4035.5
1187.51	299.1	3956.7
1187.61	299	3970.57
1187.71	298.9	4015.47
1187.81	298.8	4029.8
1187.91	298.7	4026.1
1188.01	298.6	3972.4
1188.11	298.5	3989.1
1188.21	298.4	4049.07
1188.31	298.3	3998.97
1188.41	298.2	3953.77
1188.51	298.1	3989.33
1188.61	298	4043.1
1188.71	297.9	3980.9
1188.81	297.8	4014.23
1188.91	297.7	4004.27
1189.01	297.6	4032.3
1189.11	297.5	4020.93
1189.21	297.4	4054.27
1189.31	297.3	4021.47
1189.41	297.2	3991.63
1189.51	297.1	4024.2
1189.61	297	4027
1189.71	296.9	3960.3
1189.81	296.8	3944.57
1189.91	296.7	3979.17
1190.01	296.6	3967.17
1190.11	296.5	3976.03
1190.21	296.4	3994.6
1190.31	296.3	3950.77
1190.41	296.2	3930.3
1190.51	296.1	3980.37
1190.61	296	3972.4
1190.71	295.9	4024.53
1190.81	295.8	3961.73
1190.91	295.7	3940.6
1191.01	295.6	3976.13
1191.11	295.5	4022.2
1191.21	295.4	3938.3
1191.31	295.3	3982.73
1191.41	295.2	4014.1
1191.51	295.1	3984.7
1191.61	295	3944.53
1191.71	294.9	3941.5
1191.81	294.8	3973.2
1191.91	294.7	3985.53
1192.01	294.6	4000.43
1192.11	294.5	4012.5
1192.21	294.4	3982.27
1192.31	294.3	3986.5
1192.41	294.2	3969.7
1192.51	294.1	3973.47
1192.61	294	3914.17
1192.71	293.9	3960.17
1192.81	293.8	3957.9
1192.91	293.7	3942.87
1193.01	293.6	3984.03
1193.11	293.5	3978.27
1193.21	293.4	4001
1193.31	293.3	3975.8
1193.41	293.2	3993.07
1193.51	293.1	3969.87
1193.61	293	3975.83
1193.71	292.9	3993
1193.81	292.8	3976.27
1193.91	292.7	4021.4
1194.01	292.6	3981.53
1194.11	292.5	4018.27
1194.21	292.4	4049.23
1194.31	292.3	4051.63
1194.41	292.2	3986.8
1194.51	292.1	3973.43
1194.61	292	4054
1194.71	291.9	4030.5
1194.81	291.8	4013
1194.91	291.7	4001.4
1195.01	291.6	3994.73
1195.11	291.5	3986.37
1195.21	291.4	3995.57
1195.31	291.3	4001.13
1195.41	291.2	3960.53
1195.51	291.1	4043.8
1195.61	291	4018.57
1195.71	290.9	3984.7
1195.81	290.8	3994.9
1195.91	290.7	3981.77
1196.01	290.6	3975.7
1196.11	290.5	4016.53
1196.21	290.4	4068.77
1196.31	290.3	4017.5
1196.41	290.2	3979.53
1196.51	290.1	4014.43
1196.61	290	4026.67