c:\users\mark\owncloud\muelheim group\projects\gas phase background\ex340_cec356_au n2 largearea.vms
Au4d
	Characteristic Energy eV	1486.61	Acquisition Time s	1.9
KE_Au4d	BE_Au4d	CPS_Au4d
1016.61	470	14642.1
1016.71	469.9	14698.3
1016.81	469.8	14749.1
1016.91	469.7	14733.3
1017.01	469.6	14745.5
1017.11	469.5	14778.4
1017.21	469.4	14719.7
1017.31	469.3	14782.3
1017.41	469.2	14634.1
1017.51	469.1	14635.1
1017.61	469	14735.3
1017.71	468.9	14883.9
1017.81	468.8	14745.8
1017.91	468.7	14659.9
1018.01	468.6	14693.6
1018.11	468.5	14794.1
1018.21	468.4	14710.4
1018.31	468.3	14643.8
1018.41	468.2	14750.6
1018.51	468.1	14694.4
1018.61	468	14807.1
1018.71	467.9	14746.3
1018.81	467.8	14723.2
1018.91	467.7	14797.6
1019.01	467.6	14758.7
1019.11	467.5	14709.9
1019.21	467.4	14796.9
1019.31	467.3	14729.1
1019.41	467.2	14830.1
1019.51	467.1	14842.4
1019.61	467	14893.6
1019.71	466.9	14790.8
1019.81	466.8	14913
1019.91	466.7	14738.7
1020.01	466.6	14855.3
1020.11	466.5	14841.7
1020.21	466.4	14866.3
1020.31	466.3	14755.7
1020.41	466.2	14734.5
1020.51	466.1	14918.4
1020.61	466	14731.9
1020.71	465.9	14754.6
1020.81	465.8	14820.9
1020.91	465.7	14780.4
1021.01	465.6	14887.4
1021.11	465.5	14841.5
1021.21	465.4	14921.9
1021.31	465.3	14817.8
1021.41	465.2	14822.8
1021.51	465.1	14811.6
1021.61	465	14879.8
1021.71	464.9	14865.4
1021.81	464.8	14850.7
1021.91	464.7	14767.6
1022.01	464.6	14795.6
1022.11	464.5	14988.8
1022.21	464.4	14853.5
1022.31	464.3	14852.3
1022.41	464.2	14934.4
1022.51	464.1	14753.1
1022.61	464	14761.8
1022.71	463.9	14809.5
1022.81	463.8	14783.2
1022.91	463.7	14951.9
1023.01	463.6	14876.6
1023.11	463.5	14831.2
1023.21	463.4	14836.7
1023.31	463.3	14861.4
1023.41	463.2	14913.4
1023.51	463.1	14833.8
1023.61	463	14867.6
1023.71	462.9	14938.5
1023.81	462.8	14984.7
1023.91	462.7	14994.4
1024.01	462.6	14905.8
1024.11	462.5	14901.7
1024.21	462.4	14840.1
1024.31	462.3	14944.2
1024.41	462.2	14930.2
1024.51	462.1	14866.7
1024.61	462	14913.7
1024.71	461.9	14868.2
1024.81	461.8	14805.2
1024.91	461.7	14806.3
1025.01	461.6	14868.4
1025.11	461.5	14998.6
1025.21	461.4	14933.1
1025.31	461.3	15009.6
1025.41	461.2	14999.4
1025.51	461.1	14919.3
1025.61	461	14948.4
1025.71	460.9	14936.6
1025.81	460.8	14940.5
1025.91	460.7	14975.7
1026.01	460.6	15015.4
1026.11	460.5	15100.4
1026.21	460.4	14911.4
1026.31	460.3	14976.2
1026.41	460.2	15018
1026.51	460.1	15016.6
1026.61	460	14966.9
1026.71	459.9	14870.4
1026.81	459.8	14920.6
1026.91	459.7	15011.6
1027.01	459.6	15130.1
1027.11	459.5	15027.1
1027.21	459.4	14920.3
1027.31	459.3	14962.4
1027.41	459.2	14905.9
1027.51	459.1	15050
1027.61	459	15124.5
1027.71	458.9	15032.9
1027.81	458.8	14898.3
1027.91	458.7	15077
1028.01	458.6	15003.2
1028.11	458.5	14998.7
1028.21	458.4	15056.5
1028.31	458.3	15061.6
1028.41	458.2	15162.5
1028.51	458.1	15040.1
1028.61	458	14998.4
1028.71	457.9	14977
1028.81	457.8	15088.5
1028.91	457.7	15145.8
1029.01	457.6	15035.2
1029.11	457.5	14943.3
1029.21	457.4	14971.3
1029.31	457.3	15022.4
1029.41	457.2	15014.7
1029.51	457.1	14986.9
1029.61	457	14995.1
1029.71	456.9	15122.1
1029.81	456.8	15061.4
1029.91	456.7	14985.8
1030.01	456.6	15084.6
1030.11	456.5	15031.9
1030.21	456.4	15034.8
1030.31	456.3	15103.3
1030.41	456.2	15167
1030.51	456.1	15120.4
1030.61	456	15155.7
1030.71	455.9	15144.4
1030.81	455.8	14948.4
1030.91	455.7	15097.1
1031.01	455.6	15090.8
1031.11	455.5	15057.8
1031.21	455.4	15097.2
1031.31	455.3	15024
1031.41	455.2	15105.9
1031.51	455.1	15033.3
1031.61	455	15116.4
1031.71	454.9	15093.5
1031.81	454.8	15077.5
1031.91	454.7	15102.7
1032.01	454.6	15210.4
1032.11	454.5	15238.9
1032.21	454.4	15166.4
1032.31	454.3	15196.1
1032.41	454.2	15077.9
1032.51	454.1	15143.5
1032.61	454	15176.8
1032.71	453.9	15102.4
1032.81	453.8	15120.3
1032.91	453.7	15094.6
1033.01	453.6	15006.4
1033.11	453.5	15149.4
1033.21	453.4	15089.1
1033.31	453.3	15138.4
1033.41	453.2	15306.8
1033.51	453.1	15223.4
1033.61	453	15203.5
1033.71	452.9	15216.3
1033.81	452.8	15069.1
1033.91	452.7	15152.6
1034.01	452.6	15179.7
1034.11	452.5	15246.8
1034.21	452.4	15190.5
1034.31	452.3	15047.5
1034.41	452.2	15077.4
1034.51	452.1	15236.8
1034.61	452	15225.1
1034.71	451.9	15120.8
1034.81	451.8	15161.1
1034.91	451.7	15181.6
1035.01	451.6	15140.5
1035.11	451.5	15135.5
1035.21	451.4	15224.4
1035.31	451.3	15107.6
1035.41	451.2	15158.1
1035.51	451.1	15205.8
1035.61	451	15269.7
1035.71	450.9	15209.2
1035.81	450.8	15157.9
1035.91	450.7	15218.8
1036.01	450.6	15270.1
1036.11	450.5	15300.6
1036.21	450.4	15286.9
1036.31	450.3	15243.8
1036.41	450.2	15126.7
1036.51	450.1	15199.9
1036.61	450	15311.2
1036.71	449.9	15193.9
1036.81	449.8	15253.7
1036.91	449.7	15339.9
1037.01	449.6	15289.1
1037.11	449.5	15224.9
1037.21	449.4	15266.5
1037.31	449.3	15181.7
1037.41	449.2	15164.4
1037.51	449.1	15096.7
1037.61	449	15272.6
1037.71	448.9	15412.3
1037.81	448.8	15270.2
1037.91	448.7	15272.1
1038.01	448.6	15166.3
1038.11	448.5	15172.9
1038.21	448.4	15193.1
1038.31	448.3	15176.7
1038.41	448.2	15236.7
1038.51	448.1	15303.5
1038.61	448	15438
1038.71	447.9	15270.1
1038.81	447.8	15208.1
1038.91	447.7	15477.5
1039.01	447.6	15407.4
1039.11	447.5	15260.2
1039.21	447.4	15228.4
1039.31	447.3	15305.1
1039.41	447.2	15175.3
1039.51	447.1	15257.7
1039.61	447	15341.3
1039.71	446.9	15455.5
1039.81	446.8	15413.9
1039.91	446.7	15329.8
1040.01	446.6	15295.5
1040.11	446.5	15267.4
1040.21	446.4	15273.1
1040.31	446.3	15183.3
1040.41	446.2	15362.1
1040.51	446.1	15355.4
1040.61	446	15323.3
1040.71	445.9	15530.3
1040.81	445.8	15497.9
1040.91	445.7	15414.6
1041.01	445.6	15299.3
1041.11	445.5	15327.7
1041.21	445.4	15245.7
1041.31	445.3	15352.5
1041.41	445.2	15288.8
1041.51	445.1	15335.7
1041.61	445	15408.7
1041.71	444.9	15384.1
1041.81	444.8	15343.6
1041.91	444.7	15390.6
1042.01	444.6	15409.5
1042.11	444.5	15445.8
1042.21	444.4	15435.2
1042.31	444.3	15369
1042.41	444.2	15327.8
1042.51	444.1	15355.8
1042.61	444	15470.6
1042.71	443.9	15461.2
1042.81	443.8	15440.9
1042.91	443.7	15375.7
1043.01	443.6	15327.8
1043.11	443.5	15329.1
1043.21	443.4	15540
1043.31	443.3	15617.2
1043.41	443.2	15386.5
1043.51	443.1	15380.5
1043.61	443	15363
1043.71	442.9	15496
1043.81	442.8	15544.5
1043.91	442.7	15455.4
1044.01	442.6	15405.2
1044.11	442.5	15375.2
1044.21	442.4	15322.1
1044.31	442.3	15547.8
1044.41	442.2	15477.6
1044.51	442.1	15343
1044.61	442	15450.5
1044.71	441.9	15528.1
1044.81	441.8	15511.3
1044.91	441.7	15522.6
1045.01	441.6	15331.9
1045.11	441.5	15418.7
1045.21	441.4	15449.1
1045.31	441.3	15539.8
1045.41	441.2	15509.2
1045.51	441.1	15609.8
1045.61	441	15600.8
1045.71	440.9	15556.8
1045.81	440.8	15580.3
1045.91	440.7	15635.8
1046.01	440.6	15604.5
1046.11	440.5	15491.6
1046.21	440.4	15433.6
1046.31	440.3	15618.2
1046.41	440.2	15717.3
1046.51	440.1	15506.6
1046.61	440	15449.8
1046.71	439.9	15481
1046.81	439.8	15592.6
1046.91	439.7	15582.2
1047.01	439.6	15537.9
1047.11	439.5	15605.9
1047.21	439.4	15665.2
1047.31	439.3	15534.4
1047.41	439.2	15420.2
1047.51	439.1	15555.1
1047.61	439	15619.8
1047.71	438.9	15728.6
1047.81	438.8	15614.8
1047.91	438.7	15540.2
1048.01	438.6	15531.5
1048.11	438.5	15700.3
1048.21	438.4	15589.8
1048.31	438.3	15568.1
1048.41	438.2	15591.8
1048.51	438.1	15555.5
1048.61	438	15574.1
1048.71	437.9	15632.8
1048.81	437.8	15658.7
1048.91	437.7	15575.5
1049.01	437.6	15580.1
1049.11	437.5	15655.7
1049.21	437.4	15621.2
1049.31	437.3	15525.6
1049.41	437.2	15421.7
1049.51	437.1	15578.5
1049.61	437	15680.7
1049.71	436.9	15571.1
1049.81	436.8	15562.7
1049.91	436.7	15549.9
1050.01	436.6	15609.1
1050.11	436.5	15574.7
1050.21	436.4	15760.3
1050.31	436.3	15650.1
1050.41	436.2	15814.9
1050.51	436.1	15781.8
1050.61	436	15794.7
1050.71	435.9	15659.4
1050.81	435.8	15766.1
1050.91	435.7	15730.9
1051.01	435.6	15736.7
1051.11	435.5	15643.6
1051.21	435.4	15722.4
1051.31	435.3	15592.3
1051.41	435.2	15631.6
1051.51	435.1	15727.2
1051.61	435	15726.4
1051.71	434.9	15830.9
1051.81	434.8	15770.6
1051.91	434.7	15713.7
1052.01	434.6	15696.7
1052.11	434.5	15803.3
1052.21	434.4	15727.2
1052.31	434.3	15829.3
1052.41	434.2	15824.5
1052.51	434.1	15730.5
1052.61	434	15641.8
1052.71	433.9	15617.4
1052.81	433.8	15681.3
1052.91	433.7	15764.7
1053.01	433.6	15723.7
1053.11	433.5	15784.1
1053.21	433.4	15764.4
1053.31	433.3	15869.5
1053.41	433.2	15888.7
1053.51	433.1	15839
1053.61	433	15827.3
1053.71	432.9	15913.3
1053.81	432.8	15952.2
1053.91	432.7	15844.5
1054.01	432.6	15817.2
1054.11	432.5	15947.9
1054.21	432.4	15907.3
1054.31	432.3	15955.5
1054.41	432.2	15808.3
1054.51	432.1	15823.9
1054.61	432	15869.5
1054.71	431.9	15659.3
1054.81	431.8	15778.8
1054.91	431.7	15876.2
1055.01	431.6	15774.8
1055.11	431.5	15949.5
1055.21	431.4	15849.2
1055.31	431.3	15880.8
1055.41	431.2	15842.4
1055.51	431.1	15935.4
1055.61	431	15978.8
1055.71	430.9	15959.2
1055.81	430.8	15798.9
1055.91	430.7	15913.6
1056.01	430.6	15825.6
1056.11	430.5	15957.6
1056.21	430.4	15744.1
1056.31	430.3	15826.4
1056.41	430.2	15882.1
1056.51	430.1	15816.9
1056.61	430	15985.3
1056.71	429.9	15874.4
1056.81	429.8	15910.2
1056.91	429.7	16041.5
1057.01	429.6	16061.8
1057.11	429.5	15976.6
1057.21	429.4	15988.6
1057.31	429.3	15949.2
1057.41	429.2	15916.2
1057.51	429.1	15900.2
1057.61	429	16097.3
1057.71	428.9	15992.3
1057.81	428.8	16011.6
1057.91	428.7	15834.9
1058.01	428.6	15933.4
1058.11	428.5	15991.4
1058.21	428.4	15975
1058.31	428.3	16021.4
1058.41	428.2	15941.8
1058.51	428.1	15926.3
1058.61	428	15961.2
1058.71	427.9	16070.9
1058.81	427.8	15916.1
1058.91	427.7	16070.9
1059.01	427.6	15998.9
1059.11	427.5	16024.3
1059.21	427.4	16066.5
1059.31	427.3	16128.4
1059.41	427.2	16105.7
1059.51	427.1	16056.7
1059.61	427	16054.6
1059.71	426.9	16156.3
1059.81	426.8	16165.1
1059.91	426.7	16208.6
1060.01	426.6	16070.6
1060.11	426.5	16072.5
1060.21	426.4	16138.6
1060.31	426.3	16078.1
1060.41	426.2	16122.3
1060.51	426.1	16019.1
1060.61	426	16006.2
1060.71	425.9	16102.6
1060.81	425.8	16117.1
1060.91	425.7	16067.2
1061.01	425.6	16024.3
1061.11	425.5	16034.3
1061.21	425.4	16179.2
1061.31	425.3	16102.8
1061.41	425.2	15976.2
1061.51	425.1	16036.8
1061.61	425	16225.8
1061.71	424.9	16311.8
1061.81	424.8	16094.1
1061.91	424.7	16193.7
1062.01	424.6	16153.8
1062.11	424.5	16053.6
1062.21	424.4	16062.1
1062.31	424.3	16272.5
1062.41	424.2	16170.1
1062.51	424.1	16064.1
1062.61	424	16240.2
1062.71	423.9	16281.6
1062.81	423.8	16226.4
1062.91	423.7	16134.8
1063.01	423.6	16121.3
1063.11	423.5	16267.4
1063.21	423.4	16065
1063.31	423.3	16172.9
1063.41	423.2	16143.6
1063.51	423.1	16208.7
1063.61	423	16289.7
1063.71	422.9	16203.8
1063.81	422.8	16230.3
1063.91	422.7	16176.5
1064.01	422.6	16149.8
1064.11	422.5	16129.7
1064.21	422.4	16192.2
1064.31	422.3	16339.1
1064.41	422.2	16201.6
1064.51	422.1	16338.2
1064.61	422	16277.5
1064.71	421.9	16227.3
1064.81	421.8	16154.8
1064.91	421.7	16172.2
1065.01	421.6	16237.4
1065.11	421.5	16248.5
1065.21	421.4	16144.8
1065.31	421.3	16207.3
1065.41	421.2	16374.6
1065.51	421.1	16328.2
1065.61	421	16176.8
1065.71	420.9	16177.8
1065.81	420.8	16247.1
1065.91	420.7	16282.6
1066.01	420.6	16319.8
1066.11	420.5	16390.5
1066.21	420.4	16315.4
1066.31	420.3	16286.4
1066.41	420.2	16271.7
1066.51	420.1	16425.2
1066.61	420	16269.2
1066.71	419.9	16289.7
1066.81	419.8	16173.3
1066.91	419.7	16293.3
1067.01	419.6	16379.3
1067.11	419.5	16400.7
1067.21	419.4	16323.1
1067.31	419.3	16313.1
1067.41	419.2	16363.8
1067.51	419.1	16304.2
1067.61	419	16255.3
1067.71	418.9	16335.8
1067.81	418.8	16300.6
1067.91	418.7	16328.1
1068.01	418.6	16122.9
1068.11	418.5	16285.2
1068.21	418.4	16282
1068.31	418.3	16419
1068.41	418.2	16367.4
1068.51	418.1	16339.2
1068.61	418	16389.7
1068.71	417.9	16319.3
1068.81	417.8	16374.6
1068.91	417.7	16451.1
1069.01	417.6	16458
1069.11	417.5	16611.9
1069.21	417.4	16402.1
1069.31	417.3	16498.6
1069.41	417.2	16396.9
1069.51	417.1	16413.6
1069.61	417	16485.6
1069.71	416.9	16561.9
1069.81	416.8	16427.8
1069.91	416.7	16408.8
1070.01	416.6	16372.6
1070.11	416.5	16382.2
1070.21	416.4	16455.3
1070.31	416.3	16473.1
1070.41	416.2	16499.8
1070.51	416.1	16486.8
1070.61	416	16566.5
1070.71	415.9	16445
1070.81	415.8	16509.6
1070.91	415.7	16507.2
1071.01	415.6	16409.5
1071.11	415.5	16469.8
1071.21	415.4	16411.7
1071.31	415.3	16431.2
1071.41	415.2	16506.8
1071.51	415.1	16710.6
1071.61	415	16472.7
1071.71	414.9	16494.3
1071.81	414.8	16452.5
1071.91	414.7	16564.2
1072.01	414.6	16572.8
1072.11	414.5	16462.9
1072.21	414.4	16572.6
1072.31	414.3	16514.6
1072.41	414.2	16475.1
1072.51	414.1	16615.6
1072.61	414	16621.7
1072.71	413.9	16572.8
1072.81	413.8	16602.1
1072.91	413.7	16511.5
1073.01	413.6	16637.5
1073.11	413.5	16676.7
1073.21	413.4	16818.1
1073.31	413.3	16644.1
1073.41	413.2	16588.5
1073.51	413.1	16670.9
1073.61	413	16626
1073.71	412.9	16403.2
1073.81	412.8	16479.5
1073.91	412.7	16632.4
1074.01	412.6	16574.1
1074.11	412.5	16570
1074.21	412.4	16561.6
1074.31	412.3	16645.2
1074.41	412.2	16676.2
1074.51	412.1	16715.8
1074.61	412	16626.3
1074.71	411.9	16739.5
1074.81	411.8	16524.1
1074.91	411.7	16507.4
1075.01	411.6	16527.9
1075.11	411.5	16567.1
1075.21	411.4	16690.7
1075.31	411.3	16669.9
1075.41	411.2	16590.3
1075.51	411.1	16627.3
1075.61	411	16727.8
1075.71	410.9	16724.1
1075.81	410.8	16637
1075.91	410.7	16564.5
1076.01	410.6	16624.1
1076.11	410.5	16686.2
1076.21	410.4	16641.3
1076.31	410.3	16628.4
1076.41	410.2	16632.1
1076.51	410.1	16698.7
1076.61	410	16625.6
1076.71	409.9	16675.8
1076.81	409.8	16705.3
1076.91	409.7	16564
1077.01	409.6	16608.2
1077.11	409.5	16720.3
1077.21	409.4	16798.2
1077.31	409.3	16778.8
1077.41	409.2	16672.5
1077.51	409.1	16690.9
1077.61	409	16758.1
1077.71	408.9	16689.9
1077.81	408.8	16729.3
1077.91	408.7	16814.2
1078.01	408.6	16768.7
1078.11	408.5	16775
1078.21	408.4	16591.4
1078.31	408.3	16576.9
1078.41	408.2	16831
1078.51	408.1	16793.9
1078.61	408	16838.3
1078.71	407.9	16827.4
1078.81	407.8	16821.4
1078.91	407.7	16753.8
1079.01	407.6	16843.1
1079.11	407.5	16906.4
1079.21	407.4	16872.9
1079.31	407.3	16798.3
1079.41	407.2	16803.5
1079.51	407.1	16754.9
1079.61	407	16986.6
1079.71	406.9	16815.4
1079.81	406.8	16738.2
1079.91	406.7	16907.5
1080.01	406.6	16836.3
1080.11	406.5	16955.3
1080.21	406.4	16852
1080.31	406.3	16940.9
1080.41	406.2	16955.9
1080.51	406.1	16800.6
1080.61	406	16884.9
1080.71	405.9	17006.8
1080.81	405.8	16877.5
1080.91	405.7	16914.9
1081.01	405.6	16897.6
1081.11	405.5	16967.7
1081.21	405.4	16988.5
1081.31	405.3	16966.9
1081.41	405.2	16923.7
1081.51	405.1	16933.4
1081.61	405	16913.4
1081.71	404.9	16955.5
1081.81	404.8	16946.9
1081.91	404.7	16887.5
1082.01	404.6	17090.1
1082.11	404.5	17000.3
1082.21	404.4	17031.8
1082.31	404.3	16920.6
1082.41	404.2	16996.5
1082.51	404.1	17050.6
1082.61	404	17044.4
1082.71	403.9	17104.9
1082.81	403.8	17067.7
1082.91	403.7	16993.9
1083.01	403.6	17008.6
1083.11	403.5	16978.5
1083.21	403.4	17172.8
1083.31	403.3	17141.6
1083.41	403.2	17015
1083.51	403.1	17062.6
1083.61	403	17029.9
1083.71	402.9	17066.1
1083.81	402.8	16902.1
1083.91	402.7	17131.1
1084.01	402.6	17183.9
1084.11	402.5	17244.8
1084.21	402.4	17153.9
1084.31	402.3	17174.7
1084.41	402.2	17192.2
1084.51	402.1	17159.6
1084.61	402	17106.8
1084.71	401.9	17143.1
1084.81	401.8	17205.1
1084.91	401.7	17217.2
1085.01	401.6	17270.7
1085.11	401.5	17141.1
1085.21	401.4	17160
1085.31	401.3	17288.5
1085.41	401.2	17218.1
1085.51	401.1	17153.9
1085.61	401	17150.7
1085.71	400.9	17249.9
1085.81	400.8	17330.3
1085.91	400.7	17234.1
1086.01	400.6	17181.3
1086.11	400.5	17250.1
1086.21	400.4	17303.1
1086.31	400.3	17267.7
1086.41	400.2	17289.2
1086.51	400.1	17307.3
1086.61	400	17362.5
1086.71	399.9	17381.6
1086.81	399.8	17418.8
1086.91	399.7	17215.3
1087.01	399.6	17195.3
1087.11	399.5	17260
1087.21	399.4	17341.7
1087.31	399.3	17423.4
1087.41	399.2	17286.8
1087.51	399.1	17283.1
1087.61	399	17245.8
1087.71	398.9	17223.6
1087.81	398.8	17250.6
1087.91	398.7	17273.4
1088.01	398.6	17191.9
1088.11	398.5	17358.1
1088.21	398.4	17477.4
1088.31	398.3	17321.2
1088.41	398.2	17372.4
1088.51	398.1	17245.2
1088.61	398	17311.2
1088.71	397.9	17363.9
1088.81	397.8	17454.9
1088.91	397.7	17387.8
1089.01	397.6	17396.5
1089.11	397.5	17350.1
1089.21	397.4	17355.7
1089.31	397.3	17264.4
1089.41	397.2	17321.4
1089.51	397.1	17333.5
1089.61	397	17428
1089.71	396.9	17303.3
1089.81	396.8	17433.9
1089.91	396.7	17529.5
1090.01	396.6	17316.2
1090.11	396.5	17345.9
1090.21	396.4	17584.4
1090.31	396.3	17469.5
1090.41	396.2	17388.5
1090.51	396.1	17512.4
1090.61	396	17463.2
1090.71	395.9	17448.5
1090.81	395.8	17630.1
1090.91	395.7	17441
1091.01	395.6	17582.7
1091.11	395.5	17641.4
1091.21	395.4	17521.8
1091.31	395.3	17518.8
1091.41	395.2	17473.7
1091.51	395.1	17374.9
1091.61	395	17470.3
1091.71	394.9	17531.5
1091.81	394.8	17603.1
1091.91	394.7	17704.6
1092.01	394.6	17529.4
1092.11	394.5	17588.5
1092.21	394.4	17607
1092.31	394.3	17497.7
1092.41	394.2	17765.3
1092.51	394.1	17611.6
1092.61	394	17655.7
1092.71	393.9	17612.9
1092.81	393.8	17616.8
1092.91	393.7	17630.1
1093.01	393.6	17675.6
1093.11	393.5	17748.3
1093.21	393.4	17612.9
1093.31	393.3	17692.3
1093.41	393.2	17722.7
1093.51	393.1	17602
1093.61	393	17760.2
1093.71	392.9	17614.8
1093.81	392.8	17852
1093.91	392.7	17818.1
1094.01	392.6	17758.6
1094.11	392.5	17643.1
1094.21	392.4	17663.1
1094.31	392.3	17755.4
1094.41	392.2	17738.9
1094.51	392.1	17784.1
1094.61	392	17816.1
1094.71	391.9	17873.9
1094.81	391.8	17763.7
1094.91	391.7	17757.1
1095.01	391.6	17677.6
1095.11	391.5	17909.4
1095.21	391.4	17865
1095.31	391.3	17700.9
1095.41	391.2	17871.6
1095.51	391.1	17790.3
1095.61	391	17828.6
1095.71	390.9	17801.6
1095.81	390.8	17820.2
1095.91	390.7	17822.6
1096.01	390.6	17882.7
1096.11	390.5	17792.4
1096.21	390.4	17888.5
1096.31	390.3	17878.6
1096.41	390.2	17882.8
1096.51	390.1	17926.4
1096.61	390	17809.2
1096.71	389.9	17913
1096.81	389.8	17918.9
1096.91	389.7	17874.6
1097.01	389.6	17913.9
1097.11	389.5	17890.4
1097.21	389.4	17819.7
1097.31	389.3	17915.4
1097.41	389.2	17948.2
1097.51	389.1	17990.7
1097.61	389	18057.9
1097.71	388.9	18074
1097.81	388.8	17995.7
1097.91	388.7	17954.8
1098.01	388.6	18071.5
1098.11	388.5	17924.1
1098.21	388.4	18023.7
1098.31	388.3	18133.8
1098.41	388.2	18128.7
1098.51	388.1	18049.5
1098.61	388	17984.6
1098.71	387.9	18183.2
1098.81	387.8	18027.5
1098.91	387.7	18180.3
1099.01	387.6	18213.1
1099.11	387.5	18204.8
1099.21	387.4	18036.4
1099.31	387.3	18016
1099.41	387.2	18183.4
1099.51	387.1	18077.7
1099.61	387	18311.1
1099.71	386.9	18157.8
1099.81	386.8	18248.8
1099.91	386.7	18287.2
1100.01	386.6	18283
1100.11	386.5	18264.3
1100.21	386.4	18171.3
1100.31	386.3	18192.5
1100.41	386.2	18236.4
1100.51	386.1	18212.9
1100.61	386	18246.9
1100.71	385.9	18126.9
1100.81	385.8	18113.2
1100.91	385.7	18320.9
1101.01	385.6	18327.2
1101.11	385.5	18242.2
1101.21	385.4	18190.5
1101.31	385.3	18211.7
1101.41	385.2	18408.8
1101.51	385.1	18415.9
1101.61	385	18251.6
1101.71	384.9	18231.9
1101.81	384.8	18398.2
1101.91	384.7	18287
1102.01	384.6	18271.4
1102.11	384.5	18423.3
1102.21	384.4	18316.1
1102.31	384.3	18271.8
1102.41	384.2	18252.8
1102.51	384.1	18166.3
1102.61	384	18257
1102.71	383.9	18346.9
1102.81	383.8	18318.4
1102.91	383.7	18380.6
1103.01	383.6	18381.5
1103.11	383.5	18273.8
1103.21	383.4	18308.8
1103.31	383.3	18496.4
1103.41	383.2	18501.3
1103.51	383.1	18344.3
1103.61	383	18347
1103.71	382.9	18459.6
1103.81	382.8	18547.8
1103.91	382.7	18398.2
1104.01	382.6	18538.6
1104.11	382.5	18526.5
1104.21	382.4	18545.5
1104.31	382.3	18391.2
1104.41	382.2	18569.1
1104.51	382.1	18353.3
1104.61	382	18441.9
1104.71	381.9	18503.5
1104.81	381.8	18577.8
1104.91	381.7	18524.4
1105.01	381.6	18487.2
1105.11	381.5	18559.4
1105.21	381.4	18660
1105.31	381.3	18565.9
1105.41	381.2	18565.3
1105.51	381.1	18644.1
1105.61	381	18526
1105.71	380.9	18502.3
1105.81	380.8	18527.5
1105.91	380.7	18828.3
1106.01	380.6	18697.9
1106.11	380.5	18603.6
1106.21	380.4	18582.2
1106.31	380.3	18732.1
1106.41	380.2	18688.3
1106.51	380.1	18508.8
1106.61	380	18570.5
1106.71	379.9	18638.5
1106.81	379.8	18652.1
1106.91	379.7	18531.7
1107.01	379.6	18700.2
1107.11	379.5	18692.7
1107.21	379.4	18648.4
1107.31	379.3	18741.6
1107.41	379.2	18789.1
1107.51	379.1	18816.8
1107.61	379	18944.6
1107.71	378.9	18733.3
1107.81	378.8	18817.1
1107.91	378.7	18746.7
1108.01	378.6	18776.4
1108.11	378.5	18703.7
1108.21	378.4	18719.7
1108.31	378.3	18844.7
1108.41	378.2	18812.6
1108.51	378.1	18809.4
1108.61	378	18883.6
1108.71	377.9	18788.9
1108.81	377.8	18890.5
1108.91	377.7	18740.5
1109.01	377.6	18622
1109.11	377.5	18822.2
1109.21	377.4	18832.9
1109.31	377.3	18827.2
1109.41	377.2	18903.1
1109.51	377.1	18798.5
1109.61	377	18797.3
1109.71	376.9	19006.1
1109.81	376.8	18912.3
1109.91	376.7	18776.4
1110.01	376.6	18662.4
1110.11	376.5	18988.9
1110.21	376.4	18986
1110.31	376.3	18785.2
1110.41	376.2	18823.7
1110.51	376.1	18964.1
1110.61	376	19033
1110.71	375.9	18877.7
1110.81	375.8	18761.5
1110.91	375.7	18908.1
1111.01	375.6	18873.2
1111.11	375.5	18873.4
1111.21	375.4	19045.9
1111.31	375.3	18696.3
1111.41	375.2	18820.9
1111.51	375.1	18975.5
1111.61	375	18891.9
1111.71	374.9	18962.4
1111.81	374.8	18740.8
1111.91	374.7	18806.2
1112.01	374.6	19014.5
1112.11	374.5	18824.4
1112.21	374.4	18948.5
1112.31	374.3	18889
1112.41	374.2	19017.8
1112.51	374.1	19245.5
1112.61	374	19023.7
1112.71	373.9	19015.4
1112.81	373.8	18970.8
1112.91	373.7	19054.7
1113.01	373.6	19071.1
1113.11	373.5	19093.4
1113.21	373.4	18995.8
1113.31	373.3	18987.7
1113.41	373.2	19040.7
1113.51	373.1	19000.6
1113.61	373	19036.8
1113.71	372.9	19069.6
1113.81	372.8	19078
1113.91	372.7	19058
1114.01	372.6	19189.1
1114.11	372.5	19119.7
1114.21	372.4	19181
1114.31	372.3	19122.3
1114.41	372.2	19201.1
1114.51	372.1	19149.4
1114.61	372	19123.9
1114.71	371.9	19176.8
1114.81	371.8	19226
1114.91	371.7	19306.5
1115.01	371.6	19190.8
1115.11	371.5	19305.2
1115.21	371.4	19229.7
1115.31	371.3	19215.9
1115.41	371.2	19253.4
1115.51	371.1	19296.9
1115.61	371	19353.4
1115.71	370.9	19317.8
1115.81	370.8	19319.6
1115.91	370.7	19367.2
1116.01	370.6	19255.9
1116.11	370.5	19427.2
1116.21	370.4	19317.8
1116.31	370.3	19458.8
1116.41	370.2	19442.4
1116.51	370.1	19333.9
1116.61	370	19456.5
1116.71	369.9	19462.1
1116.81	369.8	19375.3
1116.91	369.7	19397.8
1117.01	369.6	19519.5
1117.11	369.5	19629.5
1117.21	369.4	19564.3
1117.31	369.3	19506.5
1117.41	369.2	19453.8
1117.51	369.1	19505.7
1117.61	369	19681.4
1117.71	368.9	19612.5
1117.81	368.8	19628.3
1117.91	368.7	19748.6
1118.01	368.6	19674.4
1118.11	368.5	19590.9
1118.21	368.4	19478.1
1118.31	368.3	19627.6
1118.41	368.2	19673.6
1118.51	368.1	19726.7
1118.61	368	19571.4
1118.71	367.9	19530.1
1118.81	367.8	19447.5
1118.91	367.7	19505.1
1119.01	367.6	19472.3
1119.11	367.5	19581.3
1119.21	367.4	19511
1119.31	367.3	19686.8
1119.41	367.2	19705.2
1119.51	367.1	19572.7
1119.61	367	19710
1119.71	366.9	19729
1119.81	366.8	19828
1119.91	366.7	19598.5
1120.01	366.6	19547.3
1120.11	366.5	19658.8
1120.21	366.4	19762.3
1120.31	366.3	19640.8
1120.41	366.2	19660.7
1120.51	366.1	19651.9
1120.61	366	19703.7
1120.71	365.9	19810.5
1120.81	365.8	19971.9
1120.91	365.7	19785.7
1121.01	365.6	19823
1121.11	365.5	19820.6
1121.21	365.4	19805.1
1121.31	365.3	19913.1
1121.41	365.2	19729.5
1121.51	365.1	19772.3
1121.61	365	19744.9
1121.71	364.9	19807.3
1121.81	364.8	19828.2
1121.91	364.7	19755.3
1122.01	364.6	19781.9
1122.11	364.5	19804.1
1122.21	364.4	19906.9
1122.31	364.3	20018.1
1122.41	364.2	19856.6
1122.51	364.1	19968.4
1122.61	364	19995.8
1122.71	363.9	19943.8
1122.81	363.8	19962.9
1122.91	363.7	19873.5
1123.01	363.6	20036.4
1123.11	363.5	19895.4
1123.21	363.4	19951.3
1123.31	363.3	19995.3
1123.41	363.2	20144.8
1123.51	363.1	20168.1
1123.61	363	20133.7
1123.71	362.9	20213.9
1123.81	362.8	19891.5
1123.91	362.7	20048.1
1124.01	362.6	20015.9
1124.11	362.5	20008.6
1124.21	362.4	20140.5
1124.31	362.3	20316.3
1124.41	362.2	20232.2
1124.51	362.1	20325.9
1124.61	362	20303.5
1124.71	361.9	20363.1
1124.81	361.8	20260.7
1124.91	361.7	20355.9
1125.01	361.6	20399.4
1125.11	361.5	20503.7
1125.21	361.4	20471.8
1125.31	361.3	20567.5
1125.41	361.2	20523.2
1125.51	361.1	20722.5
1125.61	361	20627.9
1125.71	360.9	20660.8
1125.81	360.8	20629.3
1125.91	360.7	20762.4
1126.01	360.6	20753.7
1126.11	360.5	20663.9
1126.21	360.4	20900.9
1126.31	360.3	20913.5
1126.41	360.2	20898.4
1126.51	360.1	21059.7
1126.61	360	21124.4
1126.71	359.9	21224
1126.81	359.8	21193.8
1126.91	359.7	21172.2
1127.01	359.6	21169.9
1127.11	359.5	21250.9
1127.21	359.4	21423.4
1127.31	359.3	21485.1
1127.41	359.2	21588.6
1127.51	359.1	21657.7
1127.61	359	21726.1
1127.71	358.9	21929.9
1127.81	358.8	21889.2
1127.91	358.7	21896.4
1128.01	358.6	21993.6
1128.11	358.5	22112.8
1128.21	358.4	22349
1128.31	358.3	22421.9
1128.41	358.2	22484.9
1128.51	358.1	22628.7
1128.61	358	22694.3
1128.71	357.9	22745.7
1128.81	357.8	22986.9
1128.91	357.7	23082.7
1129.01	357.6	23304.7
1129.11	357.5	23388.6
1129.21	357.4	23575.5
1129.31	357.3	23762.9
1129.41	357.2	23929.8
1129.51	357.1	23959.3
1129.61	357	24255.5
1129.71	356.9	24487.1
1129.81	356.8	24733.1
1129.91	356.7	24923.6
1130.01	356.6	25131.4
1130.11	356.5	25339.6
1130.21	356.4	25626.1
1130.31	356.3	26049.1
1130.41	356.2	26459.5
1130.51	356.1	26870.6
1130.61	356	27113.8
1130.71	355.9	27432.6
1130.81	355.8	27798.4
1130.91	355.7	28290.6
1131.01	355.6	28532.7
1131.11	355.5	29006.7
1131.21	355.4	29531.5
1131.31	355.3	29826.9
1131.41	355.2	30314.5
1131.51	355.1	30980.9
1131.61	355	31436.6
1131.71	354.9	31950.7
1131.81	354.8	32533.3
1131.91	354.7	33156.9
1132.01	354.6	33697.1
1132.11	354.5	34318.4
1132.21	354.4	34604.3
1132.31	354.3	35371.6
1132.41	354.2	35837.3
1132.51	354.1	36327.9
1132.61	354	36852.3
1132.71	353.9	37359.4
1132.81	353.8	37531.8
1132.91	353.7	37934.2
1133.01	353.6	38290.7
1133.11	353.5	38438.7
1133.21	353.4	38579.6
1133.31	353.3	38548.9
1133.41	353.2	38502.6
1133.51	353.1	38119.3
1133.61	353	37920.3
1133.71	352.9	37764
1133.81	352.8	37615.6
1133.91	352.7	37053.3
1134.01	352.6	36491.5
1134.11	352.5	36148.5
1134.21	352.4	35517.9
1134.31	352.3	34900.8
1134.41	352.2	34353.3
1134.51	352.1	33725.5
1134.61	352	33302.4
1134.71	351.9	32409
1134.81	351.8	31989.3
1134.91	351.7	31125.9
1135.01	351.6	30391
1135.11	351.5	29843.6
1135.21	351.4	29565.6
1135.31	351.3	28819.2
1135.41	351.2	27961.2
1135.51	351.1	27598
1135.61	351	26979.6
1135.71	350.9	26630.7
1135.81	350.8	26246.2
1135.91	350.7	25653.9
1136.01	350.6	25155.7
1136.11	350.5	24803.5
1136.21	350.4	24654.6
1136.31	350.3	24066.8
1136.41	350.2	23758.8
1136.51	350.1	23275.7
1136.61	350	23026.5
1136.71	349.9	22620.5
1136.81	349.8	22249.9
1136.91	349.7	21928.4
1137.01	349.6	21671.1
1137.11	349.5	21636.9
1137.21	349.4	21505.2
1137.31	349.3	21185.6
1137.41	349.2	20845.6
1137.51	349.1	20499.1
1137.61	349	20370.1
1137.71	348.9	20221.4
1137.81	348.8	20055.8
1137.91	348.7	19923.3
1138.01	348.6	19798.2
1138.11	348.5	19559.9
1138.21	348.4	19620.7
1138.31	348.3	19421.8
1138.41	348.2	19346.7
1138.51	348.1	19036.3
1138.61	348	18921.9
1138.71	347.9	19036.2
1138.81	347.8	18822.9
1138.91	347.7	18673.1
1139.01	347.6	18627.2
1139.11	347.5	18685.7
1139.21	347.4	18435.5
1139.31	347.3	18206.6
1139.41	347.2	18141.3
1139.51	347.1	18064.1
1139.61	347	18012.7
1139.71	346.9	18064.8
1139.81	346.8	18004.1
1139.91	346.7	17842.9
1140.01	346.6	17816.4
1140.11	346.5	17723.3
1140.21	346.4	17729.5
1140.31	346.3	17647.1
1140.41	346.2	17489.5
1140.51	346.1	17578.1
1140.61	346	17498.9
1140.71	345.9	17454
1140.81	345.8	17299.4
1140.91	345.7	17224.6
1141.01	345.6	17303.5
1141.11	345.5	17342.6
1141.21	345.4	17167.9
1141.31	345.3	17071.1
1141.41	345.2	17055.9
1141.51	345.1	17096.7
1141.61	345	17129.1
1141.71	344.9	17104.6
1141.81	344.8	17132.9
1141.91	344.7	16883.3
1142.01	344.6	17068.4
1142.11	344.5	17060.6
1142.21	344.4	16931.2
1142.31	344.3	16856.9
1142.41	344.2	16941.7
1142.51	344.1	16945.1
1142.61	344	16908.5
1142.71	343.9	16836.9
1142.81	343.8	16886.9
1142.91	343.7	16711.1
1143.01	343.6	16890.7
1143.11	343.5	16862.4
1143.21	343.4	16910.7
1143.31	343.3	16811.1
1143.41	343.2	16919.5
1143.51	343.1	16990.9
1143.61	343	16931
1143.71	342.9	17056.5
1143.81	342.8	16988.7
1143.91	342.7	17132.6
1144.01	342.6	17181.3
1144.11	342.5	17134.8
1144.21	342.4	17279.4
1144.31	342.3	17266.8
1144.41	342.2	17336.3
1144.51	342.1	17373.3
1144.61	342	17472.1
1144.71	341.9	17431.4
1144.81	341.8	17623.6
1144.91	341.7	17543.1
1145.01	341.6	17572.3
1145.11	341.5	17729.5
1145.21	341.4	17700.6
1145.31	341.3	18016.6
1145.41	341.2	18065.1
1145.51	341.1	18118.1
1145.61	341	18229.2
1145.71	340.9	18350.3
1145.81	340.8	18452.5
1145.91	340.7	18580.5
1146.01	340.6	18702.5
1146.11	340.5	18703.1
1146.21	340.4	19006.7
1146.31	340.3	19167.1
1146.41	340.2	19274.5
1146.51	340.1	19406.3
1146.61	340	19711.6
1146.71	339.9	19864
1146.81	339.8	20053.5
1146.91	339.7	20101.7
1147.01	339.6	20318
1147.11	339.5	20583
1147.21	339.4	20816.5
1147.31	339.3	21015.3
1147.41	339.2	21094.8
1147.51	339.1	21564.7
1147.61	339	21923.9
1147.71	338.9	22223.8
1147.81	338.8	22628.4
1147.91	338.7	22946.3
1148.01	338.6	23190.6
1148.11	338.5	23576.9
1148.21	338.4	23793.6
1148.31	338.3	24361.6
1148.41	338.2	24848.2
1148.51	338.1	25371.4
1148.61	338	25792.9
1148.71	337.9	26424.2
1148.81	337.8	26977.4
1148.91	337.7	27678.2
1149.01	337.6	28361.3
1149.11	337.5	28918.7
1149.21	337.4	29786.5
1149.31	337.3	30482
1149.41	337.2	31210.8
1149.51	337.1	32195.7
1149.61	337	32966.5
1149.71	336.9	33857.8
1149.81	336.8	34964.6
1149.91	336.7	35869.8
1150.01	336.6	36763.4
1150.11	336.5	37647.1
1150.21	336.4	38692.4
1150.31	336.3	39569.4
1150.41	336.2	40649.6
1150.51	336.1	41660.4
1150.61	336	42462.9
1150.71	335.9	43407
1150.81	335.8	43975.5
1150.91	335.7	44601.4
1151.01	335.6	45054.4
1151.11	335.5	45726.2
1151.21	335.4	46039.9
1151.31	335.3	46124.5
1151.41	335.2	45875.3
1151.51	335.1	46026.5
1151.61	335	45804.1
1151.71	334.9	45383.1
1151.81	334.8	44620.2
1151.91	334.7	43603.5
1152.01	334.6	42914.2
1152.11	334.5	42089.9
1152.21	334.4	41232.7
1152.31	334.3	40236.7
1152.41	334.2	39064
1152.51	334.1	37656.6
1152.61	334	36777.2
1152.71	333.9	35451.8
1152.81	333.8	34424.7
1152.91	333.7	33185.4
1153.01	333.6	32017.5
1153.11	333.5	30907.3
1153.21	333.4	30118.4
1153.31	333.3	29048.1
1153.41	333.2	27834.7
1153.51	333.1	27020.9
1153.61	333	26139.7
1153.71	332.9	25421
1153.81	332.8	24383.7
1153.91	332.7	23658.6
1154.01	332.6	23028.9
1154.11	332.5	22419.4
1154.21	332.4	21679
1154.31	332.3	21055.5
1154.41	332.2	20530.2
1154.51	332.1	19992.2
1154.61	332	19457.7
1154.71	331.9	18900.7
1154.81	331.8	18506.7
1154.91	331.7	17886.4
1155.01	331.6	17447.6
1155.11	331.5	17288.9
1155.21	331.4	16950.5
1155.31	331.3	16462
1155.41	331.2	16300.6
1155.51	331.1	15890.2
1155.61	331	15568.6
1155.71	330.9	15287
1155.81	330.8	15084.3
1155.91	330.7	14861.2
1156.01	330.6	14538.4
1156.11	330.5	14205.9
1156.21	330.4	13955.3
1156.31	330.3	13922.2
1156.41	330.2	13632.8
1156.51	330.1	13496.4
1156.61	330	13325.8
1156.71	329.9	13086.4
1156.81	329.8	12913.7
1156.91	329.7	12898.1
1157.01	329.6	12603.5
1157.11	329.5	12424.9
1157.21	329.4	12300
1157.31	329.3	12125.9
1157.41	329.2	12175
1157.51	329.1	12035.2
1157.61	329	11905.8
1157.71	328.9	11795.1
1157.81	328.8	11763.5
1157.91	328.7	11524.8
1158.01	328.6	11359.5
1158.11	328.5	11237.6
1158.21	328.4	11228.5
1158.31	328.3	11095.2
1158.41	328.2	10950.2
1158.51	328.1	10967.7
1158.61	328	10833.6
1158.71	327.9	10776.2
1158.81	327.8	10656.4
1158.91	327.7	10562.9
1159.01	327.6	10467.4
1159.11	327.5	10573.2
1159.21	327.4	10397.2
1159.31	327.3	10431.6
1159.41	327.2	10375.4
1159.51	327.1	10258.1
1159.61	327	10267.3
1159.71	326.9	10299.7
1159.81	326.8	10156.2
1159.91	326.7	10090.1
1160.01	326.6	10015.4
1160.11	326.5	9885
1160.21	326.4	9881.74
1160.31	326.3	9858.58
1160.41	326.2	9746.58
1160.51	326.1	9777.11
1160.61	326	9722.11
1160.71	325.9	9653.58
1160.81	325.8	9697.74
1160.91	325.7	9624.84
1161.01	325.6	9564.84
1161.11	325.5	9554.16
1161.21	325.4	9525.26
1161.31	325.3	9613.58
1161.41	325.2	9436.32
1161.51	325.1	9487.89
1161.61	325	9440.89
1161.71	324.9	9371.89
1161.81	324.8	9408.16
1161.91	324.7	9368.11
1162.01	324.6	9363.32
1162.11	324.5	9277.63
1162.21	324.4	9223.21
1162.31	324.3	9245.68
1162.41	324.2	9101.58
1162.51	324.1	9140.11
1162.61	324	9178.47
1162.71	323.9	9046.95
1162.81	323.8	8995.84
1162.91	323.7	9015.74
1163.01	323.6	9012.11
1163.11	323.5	9046.63
1163.21	323.4	8915.42
1163.31	323.3	8989.47
1163.41	323.2	8968.95
1163.51	323.1	8971.11
1163.61	323	9027.89
1163.71	322.9	9011.74
1163.81	322.8	8807.58
1163.91	322.7	8838.21
1164.01	322.6	8858.79
1164.11	322.5	8758.89
1164.21	322.4	8852.05
1164.31	322.3	8791.95
1164.41	322.2	8768.58
1164.51	322.1	8762.37
1164.61	322	8799.79
1164.71	321.9	8772.84
1164.81	321.8	8776.79
1164.91	321.7	8824.74
1165.01	321.6	8752.68
1165.11	321.5	8738.79
1165.21	321.4	8667.37
1165.31	321.3	8592.63
1165.41	321.2	8683.11
1165.51	321.1	8711.16
1165.61	321	8708.21
1165.71	320.9	8656.21
1165.81	320.8	8712.16
1165.91	320.7	8701.11
1166.01	320.6	8580.11
1166.11	320.5	8660.89
1166.21	320.4	8640.53
1166.31	320.3	8642.16
1166.41	320.2	8666.37
1166.51	320.1	8711.42
1166.61	320	8521.68
1166.71	319.9	8549.95
1166.81	319.8	8602.53
1166.91	319.7	8563.26
1167.01	319.6	8637.79
1167.11	319.5	8538.47
1167.21	319.4	8600.42
1167.31	319.3	8559.26
1167.41	319.2	8510.37
1167.51	319.1	8498.37
1167.61	319	8544.16
1167.71	318.9	8549.42
1167.81	318.8	8499.32
1167.91	318.7	8468.68
1168.01	318.6	8461.68
1168.11	318.5	8500.37
1168.21	318.4	8460
1168.31	318.3	8393.53
1168.41	318.2	8434.42
1168.51	318.1	8448
1168.61	318	8378.32
1168.71	317.9	8479.26
1168.81	317.8	8465.84
1168.91	317.7	8344.84
1169.01	317.6	8351.16
1169.11	317.5	8357.89
1169.21	317.4	8282.42
1169.31	317.3	8333.58
1169.41	317.2	8378.68
1169.51	317.1	8321.32
1169.61	317	8293.47
1169.71	316.9	8318.05
1169.81	316.8	8391.58
1169.91	316.7	8281.74
1170.01	316.6	8271.32
1170.11	316.5	8317.58
1170.21	316.4	8306.79
1170.31	316.3	8296.95
1170.41	316.2	8201.58
1170.51	316.1	8249.37
1170.61	316	8242
1170.71	315.9	8171.84
1170.81	315.8	8247.58
1170.91	315.7	8290.95
1171.01	315.6	8292.95
1171.11	315.5	8295.47
1171.21	315.4	8215.21
1171.31	315.3	8259.53
1171.41	315.2	8237
1171.51	315.1	8173.26
1171.61	315	8196.89
1171.71	314.9	8269.16
1171.81	314.8	8216.05
1171.91	314.7	8176.32
1172.01	314.6	8177.95
1172.11	314.5	8172.95
1172.21	314.4	8163.26
1172.31	314.3	8159.58
1172.41	314.2	8209.42
1172.51	314.1	8118.42
1172.61	314	8133.37
1172.71	313.9	8243.11
1172.81	313.8	8181.05
1172.91	313.7	8102.32
1173.01	313.6	8142.32
1173.11	313.5	8170.37
1173.21	313.4	8097.11
1173.31	313.3	8121.74
1173.41	313.2	8053.63
1173.51	313.1	8053.68
1173.61	313	8142.79
1173.71	312.9	8236.79
1173.81	312.8	8093.74
1173.91	312.7	8126.58
1174.01	312.6	8112.53
1174.11	312.5	8159.47
1174.21	312.4	8148.95
1174.31	312.3	8040.63
1174.41	312.2	8142.26
1174.51	312.1	8172.11
1174.61	312	8041.32
1174.71	311.9	8034.42
1174.81	311.8	8128.42
1174.91	311.7	8073.95
1175.01	311.6	8059.42
1175.11	311.5	8090.11
1175.21	311.4	8124.47
1175.31	311.3	8060.68
1175.41	311.2	8189.84
1175.51	311.1	8112.47
1175.61	311	8098.32
1175.71	310.9	8086.89
1175.81	310.8	8038.32
1175.91	310.7	8172.89
1176.01	310.6	8020.21
1176.11	310.5	8075.74
1176.21	310.4	8081.74
1176.31	310.3	8074.63
1176.41	310.2	8029.16
1176.51	310.1	8028.95
1176.61	310	8073.47
1176.71	309.9	8097.42
1176.81	309.8	8064.11
1176.91	309.7	8064.21
1177.01	309.6	8034.26
1177.11	309.5	8121.21
1177.21	309.4	8027.95
1177.31	309.3	8054.79
1177.41	309.2	8071.42
1177.51	309.1	8102.95
1177.61	309	8037.58
1177.71	308.9	8019.26
1177.81	308.8	8067.21
1177.91	308.7	8002.53
1178.01	308.6	7943
1178.11	308.5	8072.79
1178.21	308.4	7978.42
1178.31	308.3	7993.21
1178.41	308.2	8069.53
1178.51	308.1	8110
1178.61	308	8082.74
1178.71	307.9	8034.63
1178.81	307.8	8037.79
1178.91	307.7	8100
1179.01	307.6	8042.58
1179.11	307.5	8066.89
1179.21	307.4	7968.26
1179.31	307.3	8006.16
1179.41	307.2	8045.16
1179.51	307.1	8161.74
1179.61	307	8131.05
1179.71	306.9	8145.16
1179.81	306.8	8100.05
1179.91	306.7	8065.11
1180.01	306.6	8010.79
1180.11	306.5	8013.58
1180.21	306.4	7925
1180.31	306.3	7929.74
1180.41	306.2	7951.89
1180.51	306.1	8102.16
1180.61	306	8092.74
1180.71	305.9	7949.11
1180.81	305.8	8086.79
1180.91	305.7	7981.37
1181.01	305.6	7970.84
1181.11	305.5	7933.11
1181.21	305.4	8004.37
1181.31	305.3	7959.58
1181.41	305.2	7938.63
1181.51	305.1	7994.68
1181.61	305	7978.11
1181.71	304.9	7904.47
1181.81	304.8	8044.05
1181.91	304.7	7992.47
1182.01	304.6	7954.89
1182.11	304.5	7932.84
1182.21	304.4	8007.05
1182.31	304.3	8057.05
1182.41	304.2	7996.21
1182.51	304.1	8010.68
1182.61	304	7934.16
1182.71	303.9	7960.26
1182.81	303.8	8035.11
1182.91	303.7	8069.32
1183.01	303.6	8008.84
1183.11	303.5	8042.53
1183.21	303.4	7957.53
1183.31	303.3	8022.95
1183.41	303.2	8080.74
1183.51	303.1	8006.21
1183.61	303	7995.84
1183.71	302.9	7997.63
1183.81	302.8	7995.47
1183.91	302.7	8068.16
1184.01	302.6	7934.32
1184.11	302.5	7929.21
1184.21	302.4	7972.16
1184.31	302.3	8040.63
1184.41	302.2	8003.74
1184.51	302.1	7987.63
1184.61	302	7973.11
1184.71	301.9	7939.74
1184.81	301.8	7987.37
1184.91	301.7	8031.37
1185.01	301.6	7993.79
1185.11	301.5	7982.63
1185.21	301.4	7981.74
1185.31	301.3	8023.47
1185.41	301.2	8042.21
1185.51	301.1	8068.58
1185.61	301	7945.26
1185.71	300.9	8033.05
1185.81	300.8	8030.95
1185.91	300.7	8002.95
1186.01	300.6	7941.89
1186.11	300.5	7989.84
1186.21	300.4	7990.37
1186.31	300.3	7942.89
1186.41	300.2	7957.89
1186.51	300.1	7952.89
1186.61	300	8023.42
1186.71	299.9	8035.63
1186.81	299.8	7958.37
1186.91	299.7	8017.53
1187.01	299.6	8065.21
1187.11	299.5	7919.42
1187.21	299.4	8008.32
1187.31	299.3	7981.05
1187.41	299.2	8008.53
1187.51	299.1	7879.11
1187.61	299	7986.32
1187.71	298.9	8007.26
1187.81	298.8	7982.26
1187.91	298.7	7964.47
1188.01	298.6	7982.26
1188.11	298.5	7979.84
1188.21	298.4	7993.58
1188.31	298.3	7933.74
1188.41	298.2	8094.74
1188.51	298.1	8009.05
1188.61	298	7955.32
1188.71	297.9	7991.58
1188.81	297.8	7900.26
1188.91	297.7	8017.53
1189.01	297.6	8013.95
1189.11	297.5	7857.84
1189.21	297.4	7881.47
1189.31	297.3	7966.26
1189.41	297.2	7952.95
1189.51	297.1	7946.11
1189.61	297	8009.53
1189.71	296.9	7955.26
1189.81	296.8	7903.74
1189.91	296.7	7983.05
1190.01	296.6	7922.68
1190.11	296.5	7923.47
1190.21	296.4	7900.89
1190.31	296.3	7928.53
1190.41	296.2	7905
1190.51	296.1	7978.32
1190.61	296	8048.63
1190.71	295.9	7936.26
1190.81	295.8	7905.74
1190.91	295.7	7997.53
1191.01	295.6	8049.21
1191.11	295.5	8039.26
1191.21	295.4	7986.42
1191.31	295.3	7859.16
1191.41	295.2	7915.74
1191.51	295.1	7895.32
1191.61	295	7992.16
1191.71	294.9	8050.84
1191.81	294.8	7968.21
1191.91	294.7	7995.74
1192.01	294.6	8042.11
1192.11	294.5	8000.89
1192.21	294.4	7981.26
1192.31	294.3	8047.42
1192.41	294.2	8000.21
1192.51	294.1	8027.63
1192.61	294	7974.84
1192.71	293.9	7944.42
1192.81	293.8	7958.53
1192.91	293.7	7978.84
1193.01	293.6	7922.47
1193.11	293.5	7968.42
1193.21	293.4	8019.79
1193.31	293.3	7900.74
1193.41	293.2	7885.53
1193.51	293.1	7966.47
1193.61	293	8002.37
1193.71	292.9	8034.37
1193.81	292.8	8068.26
1193.91	292.7	7997
1194.01	292.6	7898.74
1194.11	292.5	8082.68
1194.21	292.4	8001.74
1194.31	292.3	8013.79
1194.41	292.2	8047.42
1194.51	292.1	8011.95
1194.61	292	7984.05
1194.71	291.9	7989.68
1194.81	291.8	8017.05
1194.91	291.7	8043.26
1195.01	291.6	8020
1195.11	291.5	8092.05
1195.21	291.4	8003.42
1195.31	291.3	8012.37
1195.41	291.2	7946
1195.51	291.1	7978.53
1195.61	291	7947.79
1195.71	290.9	8063.63
1195.81	290.8	8059.68
1195.91	290.7	8242.42
1196.01	290.6	8229.26
1196.11	290.5	8045.32
1196.21	290.4	8054.89
1196.31	290.3	8054.32
1196.41	290.2	8028.21
1196.51	290.1	7950.79
1196.61	290	8051.21