c:\users\mark\owncloud\muelheim group\projects\gas phase background\ex340_cec356_au n2 largearea.vms
Au4f
	Characteristic Energy eV	1486.61	Acquisition Time s	3
KE_Au4f	BE_Au4f	CPS_Au4f
1311.61	175	5298.23
1311.71	174.9	5336.1
1311.81	174.8	5266.6
1311.91	174.7	5298.7
1312.01	174.6	5312.7
1312.11	174.5	5256.3
1312.21	174.4	5296.5
1312.31	174.3	5267.03
1312.41	174.2	5323.6
1312.51	174.1	5337.27
1312.61	174	5361.83
1312.71	173.9	5269.63
1312.81	173.8	5319.43
1312.91	173.7	5351.47
1313.01	173.6	5276.77
1313.11	173.5	5320.83
1313.21	173.4	5280.53
1313.31	173.3	5345.9
1313.41	173.2	5332.53
1313.51	173.1	5282.77
1313.61	173	5350.2
1313.71	172.9	5307.47
1313.81	172.8	5301
1313.91	172.7	5344.43
1314.01	172.6	5382.8
1314.11	172.5	5354.37
1314.21	172.4	5384.9
1314.31	172.3	5358.6
1314.41	172.2	5336.3
1314.51	172.1	5383.27
1314.61	172	5397.67
1314.71	171.9	5336.27
1314.81	171.8	5318.07
1314.91	171.7	5388.07
1315.01	171.6	5358.53
1315.11	171.5	5362.27
1315.21	171.4	5317.73
1315.31	171.3	5324.77
1315.41	171.2	5400.3
1315.51	171.1	5396.57
1315.61	171	5331.13
1315.71	170.9	5366.1
1315.81	170.8	5353.03
1315.91	170.7	5403.47
1316.01	170.6	5402.47
1316.11	170.5	5361.43
1316.21	170.4	5367.7
1316.31	170.3	5431.43
1316.41	170.2	5391.6
1316.51	170.1	5384.8
1316.61	170	5412.13
1316.71	169.9	5370.37
1316.81	169.8	5346.37
1316.91	169.7	5390.3
1317.01	169.6	5333.37
1317.11	169.5	5409.93
1317.21	169.4	5423.6
1317.31	169.3	5352.23
1317.41	169.2	5353.87
1317.51	169.1	5384.17
1317.61	169	5368
1317.71	168.9	5404.27
1317.81	168.8	5350.6
1317.91	168.7	5371.17
1318.01	168.6	5412.67
1318.11	168.5	5348.7
1318.21	168.4	5430.77
1318.31	168.3	5432.77
1318.41	168.2	5426.57
1318.51	168.1	5420.17
1318.61	168	5397.63
1318.71	167.9	5434.27
1318.81	167.8	5467.07
1318.91	167.7	5505.8
1319.01	167.6	5453.4
1319.11	167.5	5375
1319.21	167.4	5406.5
1319.31	167.3	5454.63
1319.41	167.2	5450.3
1319.51	167.1	5437.27
1319.61	167	5392.47
1319.71	166.9	5338.67
1319.81	166.8	5378.9
1319.91	166.7	5419.9
1320.01	166.6	5507.33
1320.11	166.5	5475.5
1320.21	166.4	5418.7
1320.31	166.3	5374.1
1320.41	166.2	5397.93
1320.51	166.1	5451.87
1320.61	166	5447.07
1320.71	165.9	5436.7
1320.81	165.8	5380.57
1320.91	165.7	5467.43
1321.01	165.6	5394.67
1321.11	165.5	5494.2
1321.21	165.4	5462.7
1321.31	165.3	5463.27
1321.41	165.2	5471.57
1321.51	165.1	5527.6
1321.61	165	5466.23
1321.71	164.9	5465.8
1321.81	164.8	5466.23
1321.91	164.7	5480.3
1322.01	164.6	5550.17
1322.11	164.5	5484.27
1322.21	164.4	5494.27
1322.31	164.3	5418.83
1322.41	164.2	5418.53
1322.51	164.1	5480.3
1322.61	164	5469.93
1322.71	163.9	5459.73
1322.81	163.8	5431.73
1322.91	163.7	5477.27
1323.01	163.6	5513.1
1323.11	163.5	5526.33
1323.21	163.4	5588.07
1323.31	163.3	5550.9
1323.41	163.2	5487.3
1323.51	163.1	5454.63
1323.61	163	5548.13
1323.71	162.9	5477.17
1323.81	162.8	5477.1
1323.91	162.7	5564.1
1324.01	162.6	5619.3
1324.11	162.5	5565
1324.21	162.4	5562.97
1324.31	162.3	5564.33
1324.41	162.2	5514.47
1324.51	162.1	5574.5
1324.61	162	5470.73
1324.71	161.9	5555.9
1324.81	161.8	5518
1324.91	161.7	5568.27
1325.01	161.6	5599.23
1325.11	161.5	5535.77
1325.21	161.4	5548.87
1325.31	161.3	5523.63
1325.41	161.2	5536
1325.51	161.1	5580.43
1325.61	161	5512.8
1325.71	160.9	5511.37
1325.81	160.8	5540.53
1325.91	160.7	5552.47
1326.01	160.6	5540.3
1326.11	160.5	5583.53
1326.21	160.4	5549.87
1326.31	160.3	5537.1
1326.41	160.2	5548
1326.51	160.1	5489.27
1326.61	160	5531.63
1326.71	159.9	5531.67
1326.81	159.8	5559.27
1326.91	159.7	5612.93
1327.01	159.6	5563.83
1327.11	159.5	5566.77
1327.21	159.4	5610.8
1327.31	159.3	5598.9
1327.41	159.2	5621.13
1327.51	159.1	5575.83
1327.61	159	5524.67
1327.71	158.9	5551.23
1327.81	158.8	5556.3
1327.91	158.7	5571.43
1328.01	158.6	5593.97
1328.11	158.5	5544.67
1328.21	158.4	5499.47
1328.31	158.3	5577.83
1328.41	158.2	5566.03
1328.51	158.1	5621.43
1328.61	158	5640.03
1328.71	157.9	5620.8
1328.81	157.8	5590.07
1328.91	157.7	5564.67
1329.01	157.6	5592.8
1329.11	157.5	5604.23
1329.21	157.4	5604.2
1329.31	157.3	5587.77
1329.41	157.2	5542.1
1329.51	157.1	5561.97
1329.61	157	5631.23
1329.71	156.9	5616.07
1329.81	156.8	5621.47
1329.91	156.7	5612.87
1330.01	156.6	5591.03
1330.11	156.5	5654.73
1330.21	156.4	5685.4
1330.31	156.3	5665.7
1330.41	156.2	5638.07
1330.51	156.1	5606.07
1330.61	156	5611.33
1330.71	155.9	5629.6
1330.81	155.8	5612.93
1330.91	155.7	5676.93
1331.01	155.6	5674.17
1331.11	155.5	5690.17
1331.21	155.4	5668.93
1331.31	155.3	5718.17
1331.41	155.2	5692.33
1331.51	155.1	5662.63
1331.61	155	5645.27
1331.71	154.9	5737.53
1331.81	154.8	5694.33
1331.91	154.7	5614.57
1332.01	154.6	5629.87
1332.11	154.5	5627.63
1332.21	154.4	5671.77
1332.31	154.3	5705.8
1332.41	154.2	5639.77
1332.51	154.1	5743.33
1332.61	154	5714.07
1332.71	153.9	5608.7
1332.81	153.8	5695.87
1332.91	153.7	5690.77
1333.01	153.6	5681.53
1333.11	153.5	5688.03
1333.21	153.4	5653.4
1333.31	153.3	5671.6
1333.41	153.2	5728.7
1333.51	153.1	5700.83
1333.61	153	5629.5
1333.71	152.9	5724.63
1333.81	152.8	5716.07
1333.91	152.7	5727.2
1334.01	152.6	5700.83
1334.11	152.5	5783.4
1334.21	152.4	5708.57
1334.31	152.3	5786.53
1334.41	152.2	5712.67
1334.51	152.1	5699.97
1334.61	152	5691.17
1334.71	151.9	5790.67
1334.81	151.8	5717.03
1334.91	151.7	5727.93
1335.01	151.6	5761.03
1335.11	151.5	5773.43
1335.21	151.4	5797.5
1335.31	151.3	5699.23
1335.41	151.2	5766.5
1335.51	151.1	5734.33
1335.61	151	5746.5
1335.71	150.9	5725.77
1335.81	150.8	5734.87
1335.91	150.7	5759.97
1336.01	150.6	5811.8
1336.11	150.5	5770.47
1336.21	150.4	5777.13
1336.31	150.3	5771.77
1336.41	150.2	5792.03
1336.51	150.1	5787.87
1336.61	150	5765.9
1336.71	149.9	5761.83
1336.81	149.8	5739.63
1336.91	149.7	5745.17
1337.01	149.6	5833.87
1337.11	149.5	5804.83
1337.21	149.4	5858.43
1337.31	149.3	5772.8
1337.41	149.2	5809.17
1337.51	149.1	5756.47
1337.61	149	5795.43
1337.71	148.9	5841.47
1337.81	148.8	5842.53
1337.91	148.7	5775.4
1338.01	148.6	5812.87
1338.11	148.5	5778.2
1338.21	148.4	5838.73
1338.31	148.3	5805.23
1338.41	148.2	5784.73
1338.51	148.1	5822.6
1338.61	148	5820.87
1338.71	147.9	5779.9
1338.81	147.8	5870.73
1338.91	147.7	5831.27
1339.01	147.6	5829.13
1339.11	147.5	5846.2
1339.21	147.4	5755.9
1339.31	147.3	5866.77
1339.41	147.2	5839.87
1339.51	147.1	5817.6
1339.61	147	5823.53
1339.71	146.9	5808.2
1339.81	146.8	5810.37
1339.91	146.7	5846.77
1340.01	146.6	5779.17
1340.11	146.5	5795.77
1340.21	146.4	5847.43
1340.31	146.3	5916.43
1340.41	146.2	5850.77
1340.51	146.1	5863.93
1340.61	146	5891.7
1340.71	145.9	5888
1340.81	145.8	5905.23
1340.91	145.7	5863.53
1341.01	145.6	5922.93
1341.11	145.5	5900.03
1341.21	145.4	5944.3
1341.31	145.3	5927.03
1341.41	145.2	5924.43
1341.51	145.1	5911.43
1341.61	145	5855.83
1341.71	144.9	5886.37
1341.81	144.8	5811.9
1341.91	144.7	5862.77
1342.01	144.6	5862.23
1342.11	144.5	5884.77
1342.21	144.4	5884.77
1342.31	144.3	5907.03
1342.41	144.2	5926.67
1342.51	144.1	5894.23
1342.61	144	5918.67
1342.71	143.9	5954
1342.81	143.8	5928.87
1342.91	143.7	5905.37
1343.01	143.6	5923.27
1343.11	143.5	5865.97
1343.21	143.4	5791.77
1343.31	143.3	5868.5
1343.41	143.2	5979.67
1343.51	143.1	5998.7
1343.61	143	5896.5
1343.71	142.9	5906.7
1343.81	142.8	5918.07
1343.91	142.7	5866.83
1344.01	142.6	5939.8
1344.11	142.5	5960.27
1344.21	142.4	5882.83
1344.31	142.3	5934.43
1344.41	142.2	5928.77
1344.51	142.1	5889.53
1344.61	142	5969.43
1344.71	141.9	5960.6
1344.81	141.8	5963.83
1344.91	141.7	5993.3
1345.01	141.6	5952.5
1345.11	141.5	5907.97
1345.21	141.4	5908.37
1345.31	141.3	5908.57
1345.41	141.2	5910.13
1345.51	141.1	5870.47
1345.61	141	5920.63
1345.71	140.9	5960.6
1345.81	140.8	5943.23
1345.91	140.7	5950.07
1346.01	140.6	5939.03
1346.11	140.5	5962.97
1346.21	140.4	6002.33
1346.31	140.3	6054.67
1346.41	140.2	5946.1
1346.51	140.1	5991.7
1346.61	140	5993.23
1346.71	139.9	5948
1346.81	139.8	5957.83
1346.91	139.7	5979.37
1347.01	139.6	5953.17
1347.11	139.5	5951.83
1347.21	139.4	5949
1347.31	139.3	6021.9
1347.41	139.2	5979.17
1347.51	139.1	5968.77
1347.61	139	5955.03
1347.71	138.9	5970.17
1347.81	138.8	6065.9
1347.91	138.7	5969.17
1348.01	138.6	5997
1348.11	138.5	6014.43
1348.21	138.4	6053.73
1348.31	138.3	5997.23
1348.41	138.2	6040.87
1348.51	138.1	6106.43
1348.61	138	6002.8
1348.71	137.9	6027.17
1348.81	137.8	5983.97
1348.91	137.7	6047.1
1349.01	137.6	6022.7
1349.11	137.5	5970.53
1349.21	137.4	5986.5
1349.31	137.3	6010.87
1349.41	137.2	6059.9
1349.51	137.1	6060.57
1349.61	137	6048.07
1349.71	136.9	6025.97
1349.81	136.8	6029.43
1349.91	136.7	6109.9
1350.01	136.6	6073.13
1350.11	136.5	6034.8
1350.21	136.4	6070.93
1350.31	136.3	6080.97
1350.41	136.2	6008.83
1350.51	136.1	6059.83
1350.61	136	6076.77
1350.71	135.9	6102.27
1350.81	135.8	6017.57
1350.91	135.7	6075.27
1351.01	135.6	6128.33
1351.11	135.5	6038.1
1351.21	135.4	6015.5
1351.31	135.3	6036.73
1351.41	135.2	6059.33
1351.51	135.1	6015.67
1351.61	135	6074.87
1351.71	134.9	6093.67
1351.81	134.8	6092.43
1351.91	134.7	6077.03
1352.01	134.6	6133.33
1352.11	134.5	6130.67
1352.21	134.4	6147.3
1352.31	134.3	6118
1352.41	134.2	6097.93
1352.51	134.1	6086.37
1352.61	134	6069.2
1352.71	133.9	6115.5
1352.81	133.8	6090.43
1352.91	133.7	6120.33
1353.01	133.6	6135.47
1353.11	133.5	6113.23
1353.21	133.4	6092.7
1353.31	133.3	6133.77
1353.41	133.2	6100.4
1353.51	133.1	6104
1353.61	133	6099.8
1353.71	132.9	6156.67
1353.81	132.8	6132.43
1353.91	132.7	6164.53
1354.01	132.6	6098.37
1354.11	132.5	6137.4
1354.21	132.4	6100.33
1354.31	132.3	6097.3
1354.41	132.2	6212.03
1354.51	132.1	6206.63
1354.61	132	6124.7
1354.71	131.9	6144.63
1354.81	131.8	6133.27
1354.91	131.7	6143.1
1355.01	131.6	6118.2
1355.11	131.5	6166.03
1355.21	131.4	6174.73
1355.31	131.3	6165.27
1355.41	131.2	6096.67
1355.51	131.1	6214.87
1355.61	131	6186.7
1355.71	130.9	6160.33
1355.81	130.8	6155.83
1355.91	130.7	6164.67
1356.01	130.6	6190.73
1356.11	130.5	6177.53
1356.21	130.4	6184.03
1356.31	130.3	6148.97
1356.41	130.2	6205.53
1356.51	130.1	6133.87
1356.61	130	6186.73
1356.71	129.9	6165.53
1356.81	129.8	6290.23
1356.91	129.7	6172.93
1357.01	129.6	6185.9
1357.11	129.5	6221.7
1357.21	129.4	6207.4
1357.31	129.3	6206.63
1357.41	129.2	6243.2
1357.51	129.1	6238.17
1357.61	129	6215.2
1357.71	128.9	6213.03
1357.81	128.8	6286.13
1357.91	128.7	6243.97
1358.01	128.6	6227.9
1358.11	128.5	6170.83
1358.21	128.4	6255.87
1358.31	128.3	6166.13
1358.41	128.2	6260.8
1358.51	128.1	6310.03
1358.61	128	6189.63
1358.71	127.9	6176.33
1358.81	127.8	6182.2
1358.91	127.7	6234.67
1359.01	127.6	6177.47
1359.11	127.5	6196.43
1359.21	127.4	6210.6
1359.31	127.3	6256.8
1359.41	127.2	6248.37
1359.51	127.1	6242.03
1359.61	127	6260.17
1359.71	126.9	6242.1
1359.81	126.8	6203.7
1359.91	126.7	6196.53
1360.01	126.6	6239
1360.11	126.5	6266.9
1360.21	126.4	6255.43
1360.31	126.3	6276.57
1360.41	126.2	6277.3
1360.51	126.1	6233.3
1360.61	126	6253.3
1360.71	125.9	6273.1
1360.81	125.8	6338
1360.91	125.7	6261.6
1361.01	125.6	6286.7
1361.11	125.5	6361.37
1361.21	125.4	6265.27
1361.31	125.3	6243.27
1361.41	125.2	6326.43
1361.51	125.1	6344.03
1361.61	125	6338.13
1361.71	124.9	6315.57
1361.81	124.8	6298.5
1361.91	124.7	6426.77
1362.01	124.6	6327.73
1362.11	124.5	6324.83
1362.21	124.4	6352.97
1362.31	124.3	6343.37
1362.41	124.2	6326.6
1362.51	124.1	6379
1362.61	124	6308.63
1362.71	123.9	6309.07
1362.81	123.8	6283.8
1362.91	123.7	6333.2
1363.01	123.6	6382.37
1363.11	123.5	6425.5
1363.21	123.4	6397.03
1363.31	123.3	6386.67
1363.41	123.2	6345.43
1363.51	123.1	6383.53
1363.61	123	6345.7
1363.71	122.9	6394.6
1363.81	122.8	6281.5
1363.91	122.7	6416.5
1364.01	122.6	6374.17
1364.11	122.5	6400.93
1364.21	122.4	6394.53
1364.31	122.3	6451.9
1364.41	122.2	6455.77
1364.51	122.1	6442.7
1364.61	122	6486.4
1364.71	121.9	6526.37
1364.81	121.8	6470.9
1364.91	121.7	6406.23
1365.01	121.6	6413.9
1365.11	121.5	6382.53
1365.21	121.4	6432.83
1365.31	121.3	6438.27
1365.41	121.2	6529.37
1365.51	121.1	6497.53
1365.61	121	6519.6
1365.71	120.9	6442.93
1365.81	120.8	6470.17
1365.91	120.7	6432.57
1366.01	120.6	6491.57
1366.11	120.5	6470.73
1366.21	120.4	6506.87
1366.31	120.3	6450.4
1366.41	120.2	6460.6
1366.51	120.1	6511.3
1366.61	120	6579.23
1366.71	119.9	6529.13
1366.81	119.8	6539.67
1366.91	119.7	6572.27
1367.01	119.6	6529.43
1367.11	119.5	6553.9
1367.21	119.4	6564.77
1367.31	119.3	6537.43
1367.41	119.2	6571.43
1367.51	119.1	6565.2
1367.61	119	6572.07
1367.71	118.9	6513.77
1367.81	118.8	6548.67
1367.91	118.7	6605.27
1368.01	118.6	6602.27
1368.11	118.5	6629.2
1368.21	118.4	6575.6
1368.31	118.3	6591.23
1368.41	118.2	6533.93
1368.51	118.1	6546.97
1368.61	118	6529.63
1368.71	117.9	6560.63
1368.81	117.8	6568.9
1368.91	117.7	6567.93
1369.01	117.6	6529.93
1369.11	117.5	6612.37
1369.21	117.4	6629.53
1369.31	117.3	6633.77
1369.41	117.2	6623.1
1369.51	117.1	6668.87
1369.61	117	6653.57
1369.71	116.9	6641.2
1369.81	116.8	6676.5
1369.91	116.7	6640.2
1370.01	116.6	6632.3
1370.11	116.5	6703.2
1370.21	116.4	6637.67
1370.31	116.3	6655.03
1370.41	116.2	6687.17
1370.51	116.1	6634.8
1370.61	116	6668.17
1370.71	115.9	6706.03
1370.81	115.8	6654.37
1370.91	115.7	6681.13
1371.01	115.6	6697.37
1371.11	115.5	6679.03
1371.21	115.4	6698.83
1371.31	115.3	6657.03
1371.41	115.2	6679.6
1371.51	115.1	6683.97
1371.61	115	6663.37
1371.71	114.9	6721.97
1371.81	114.8	6755.03
1371.91	114.7	6768.1
1372.01	114.6	6779.27
1372.11	114.5	6737.2
1372.21	114.4	6760.67
1372.31	114.3	6700.57
1372.41	114.2	6763.8
1372.51	114.1	6704.1
1372.61	114	6725.37
1372.71	113.9	6720.73
1372.81	113.8	6780.37
1372.91	113.7	6745.8
1373.01	113.6	6763.7
1373.11	113.5	6735.83
1373.21	113.4	6770.43
1373.31	113.3	6762.8
1373.41	113.2	6777.37
1373.51	113.1	6705.53
1373.61	113	6737.17
1373.71	112.9	6686.7
1373.81	112.8	6799.43
1373.91	112.7	6726.63
1374.01	112.6	6709.4
1374.11	112.5	6804.03
1374.21	112.4	6741.07
1374.31	112.3	6730.73
1374.41	112.2	6799.13
1374.51	112.1	6773.97
1374.61	112	6730.63
1374.71	111.9	6685.77
1374.81	111.8	6788.23
1374.91	111.7	6868.8
1375.01	111.6	6843.63
1375.11	111.5	6880.57
1375.21	111.4	6811.57
1375.31	111.3	6837.7
1375.41	111.2	6808.4
1375.51	111.1	6818.1
1375.61	111	6810.4
1375.71	110.9	6781.7
1375.81	110.8	6792.9
1375.91	110.7	6773
1376.01	110.6	6813.67
1376.11	110.5	6801.63
1376.21	110.4	6818.83
1376.31	110.3	6828.53
1376.41	110.2	6761.83
1376.51	110.1	6745.67
1376.61	110	6733.87
1376.71	109.9	6733.97
1376.81	109.8	6757.93
1376.91	109.7	6700.6
1377.01	109.6	6686.2
1377.11	109.5	6710.27
1377.21	109.4	6659.73
1377.31	109.3	6595.27
1377.41	109.2	6659.13
1377.51	109.1	6625.97
1377.61	109	6636.17
1377.71	108.9	6555.73
1377.81	108.8	6541.87
1377.91	108.7	6561.9
1378.01	108.6	6525.67
1378.11	108.5	6521.67
1378.21	108.4	6554.3
1378.31	108.3	6577.87
1378.41	108.2	6605.07
1378.51	108.1	6544.83
1378.61	108	6553.77
1378.71	107.9	6558.27
1378.81	107.8	6589.63
1378.91	107.7	6610.9
1379.01	107.6	6591.77
1379.11	107.5	6683.27
1379.21	107.4	6586.07
1379.31	107.3	6571.53
1379.41	107.2	6557.2
1379.51	107.1	6529.33
1379.61	107	6519.9
1379.71	106.9	6453.47
1379.81	106.8	6496.7
1379.91	106.7	6478.13
1380.01	106.6	6416.03
1380.11	106.5	6532.1
1380.21	106.4	6504.97
1380.31	106.3	6532.33
1380.41	106.2	6419.33
1380.51	106.1	6456.13
1380.61	106	6434.4
1380.71	105.9	6478.17
1380.81	105.8	6480.27
1380.91	105.7	6480.77
1381.01	105.6	6490.2
1381.11	105.5	6464.87
1381.21	105.4	6499.37
1381.31	105.3	6414.43
1381.41	105.2	6475.3
1381.51	105.1	6408.4
1381.61	105	6495.3
1381.71	104.9	6481.9
1381.81	104.8	6546.23
1381.91	104.7	6538.17
1382.01	104.6	6467.5
1382.11	104.5	6488.97
1382.21	104.4	6553.5
1382.31	104.3	6564.07
1382.41	104.2	6613.07
1382.51	104.1	6656.97
1382.61	104	6650.93
1382.71	103.9	6696.9
1382.81	103.8	6702.97
1382.91	103.7	6705.63
1383.01	103.6	6730.07
1383.11	103.5	6603.53
1383.21	103.4	6645.5
1383.31	103.3	6599.23
1383.41	103.2	6554.57
1383.51	103.1	6592.47
1383.61	103	6626.17
1383.71	102.9	6519.57
1383.81	102.8	6589.43
1383.91	102.7	6732.73
1384.01	102.6	6715.47
1384.11	102.5	6813.67
1384.21	102.4	6973.73
1384.31	102.3	7097.83
1384.41	102.2	7157.1
1384.51	102.1	7358.87
1384.61	102	7411.4
1384.71	101.9	7542.77
1384.81	101.8	7587.2
1384.91	101.7	7611.67
1385.01	101.6	7615.57
1385.11	101.5	7657.43
1385.21	101.4	7623.23
1385.31	101.3	7631.53
1385.41	101.2	7746
1385.51	101.1	7858.93
1385.61	101	7969.4
1385.71	100.9	8136.43
1385.81	100.8	8265.87
1385.91	100.7	8312.93
1386.01	100.6	8228.8
1386.11	100.5	8081.5
1386.21	100.4	7818.9
1386.31	100.3	7519.53
1386.41	100.2	7143.6
1386.51	100.1	6851.8
1386.61	100	6574.67
1386.71	99.9	6396.87
1386.81	99.8	6211.77
1386.91	99.7	6098.23
1387.01	99.6	5972.57
1387.11	99.5	5931.6
1387.21	99.4	5849.37
1387.31	99.3	5726.27
1387.41	99.2	5725.5
1387.51	99.1	5753.27
1387.61	99	5801.4
1387.71	98.9	5834.13
1387.81	98.8	5986.03
1387.91	98.7	6134
1388.01	98.6	6302.8
1388.11	98.5	6515.07
1388.21	98.4	6686.7
1388.31	98.3	6845.1
1388.41	98.2	6914.73
1388.51	98.1	6963.03
1388.61	98	6988.37
1388.71	97.9	6929.13
1388.81	97.8	6878.33
1388.91	97.7	6952.5
1389.01	97.6	6942.87
1389.11	97.5	7063.47
1389.21	97.4	7162.8
1389.31	97.3	7331.93
1389.41	97.2	7483.33
1389.51	97.1	7550.47
1389.61	97	7548.87
1389.71	96.9	7439.4
1389.81	96.8	7136.27
1389.91	96.7	6642.67
1390.01	96.6	6133.1
1390.11	96.5	5572.53
1390.21	96.4	5194.67
1390.31	96.3	4893.57
1390.41	96.2	4687.37
1390.51	96.1	4511.17
1390.61	96	4376.37
1390.71	95.9	4257.6
1390.81	95.8	4179.03
1390.91	95.7	4191.83
1391.01	95.6	4219
1391.11	95.5	4153.93
1391.21	95.4	4177.23
1391.31	95.3	4161.57
1391.41	95.2	4144.13
1391.51	95.1	4123
1391.61	95	4156.87
1391.71	94.9	4164.93
1391.81	94.8	4182.67
1391.91	94.7	4205.4
1392.01	94.6	4188.47
1392.11	94.5	4194.03
1392.21	94.4	4187.77
1392.31	94.3	4221.03
1392.41	94.2	4212.07
1392.51	94.1	4218.37
1392.61	94	4247.9
1392.71	93.9	4267.63
1392.81	93.8	4176.3
1392.91	93.7	4205.63
1393.01	93.6	4233.73
1393.11	93.5	4236.7
1393.21	93.4	4216.6
1393.31	93.3	4191.83
1393.41	93.2	4163.87
1393.51	93.1	4140.8
1393.61	93	4138.2
1393.71	92.9	4109.37
1393.81	92.8	4069.83
1393.91	92.7	3986.83
1394.01	92.6	4004.27
1394.11	92.5	3937.57
1394.21	92.4	3893.1
1394.31	92.3	3935.13
1394.41	92.2	4004.37
1394.51	92.1	4066.47
1394.61	92	4009.83
1394.71	91.9	4040.4
1394.81	91.8	4059.27
1394.91	91.7	4114.97
1395.01	91.6	4035.93
1395.11	91.5	4101.9
1395.21	91.4	4168.87
1395.31	91.3	4163.6
1395.41	91.2	4190.87
1395.51	91.1	4246.63
1395.61	91	4350.8
1395.71	90.9	4309.03
1395.81	90.8	4312.67
1395.91	90.7	4385.67
1396.01	90.6	4447.27
1396.11	90.5	4452.27
1396.21	90.4	4479.63
1396.31	90.3	4503.83
1396.41	90.2	4562.17
1396.51	90.1	4525.2
1396.61	90	4536.87
1396.71	89.9	4593.4
1396.81	89.8	4596.7
1396.91	89.7	4642.73
1397.01	89.6	4765.93
1397.11	89.5	4955.37
1397.21	89.4	5043.1
1397.31	89.3	5239.17
1397.41	89.2	5551.4
1397.51	89.1	5852.2
1397.61	89	6423.3
1397.71	88.9	7040.4
1397.81	88.8	7871.43
1397.91	88.7	8964
1398.01	88.6	10450
1398.11	88.5	12403
1398.21	88.4	14945
1398.31	88.3	18287.1
1398.41	88.2	22322
1398.51	88.1	27090.8
1398.61	88	32507.1
1398.71	87.9	37606
1398.81	87.8	41208
1398.91	87.7	41919.7
1399.01	87.6	38897
1399.11	87.5	33101.9
1399.21	87.4	26214
1399.31	87.3	19801.2
1399.41	87.2	14790.9
1399.51	87.1	11226.8
1399.61	87	8877.43
1399.71	86.9	7318.83
1399.81	86.8	6319.83
1399.91	86.7	5757.63
1400.01	86.6	5280.73
1400.11	86.5	4990.57
1400.21	86.4	4698.1
1400.31	86.3	4484.7
1400.41	86.2	4441.67
1400.51	86.1	4388.9
1400.61	86	4342.23
1400.71	85.9	4363.23
1400.81	85.8	4477.07
1400.91	85.7	4612.07
1401.01	85.6	4864.93
1401.11	85.5	5136.9
1401.21	85.4	5634.13
1401.31	85.3	6238.7
1401.41	85.2	7135.47
1401.51	85.1	8172.27
1401.61	85	9691.77
1401.71	84.9	11594.3
1401.81	84.8	14231.3
1401.91	84.7	17602.7
1402.01	84.6	22010.7
1402.11	84.5	27657.6
1402.21	84.4	34205
1402.31	84.3	41116.7
1402.41	84.2	47745
1402.51	84.1	51979.7
1402.61	84	51749.7
1402.71	83.9	46893
1402.81	83.8	38442
1402.91	83.7	28972
1403.01	83.6	21038.8
1403.11	83.5	14879.5
1403.21	83.4	10632.4
1403.31	83.3	7815.37
1403.41	83.2	5968.63
1403.51	83.1	4800.17
1403.61	83	4026.13
1403.71	82.9	3483.17
1403.81	82.8	3116.68
1403.91	82.7	2832.33
1404.01	82.6	2611.78
1404.11	82.5	2409.49
1404.21	82.4	2282.2
1404.31	82.3	2169.25
1404.41	82.2	2095.14
1404.51	82.1	1992.18
1404.61	82	1949.76
1404.71	81.9	1850.02
1404.81	81.8	1839.27
1404.91	81.7	1770.2
1405.01	81.6	1721.41
1405.11	81.5	1650.75
1405.21	81.4	1629.46
1405.31	81.3	1604.21
1405.41	81.2	1576.51
1405.51	81.1	1509.71
1405.61	81	1491.71
1405.71	80.9	1473.33
1405.81	80.8	1488.5
1405.91	80.7	1439.16
1406.01	80.6	1410.28
1406.11	80.5	1374.97
1406.21	80.4	1392.28
1406.31	80.3	1377.48
1406.41	80.2	1373.93
1406.51	80.1	1350.82
1406.61	80	1350.24
1406.71	79.9	1362.38
1406.81	79.8	1336.48
1406.91	79.7	1321.86
1407.01	79.6	1314.34
1407.11	79.5	1315.95
1407.21	79.4	1295.64
1407.31	79.3	1302.61
1407.41	79.2	1279.65
1407.51	79.1	1312.54
1407.61	79	1299.74
1407.71	78.9	1291.27
1407.81	78.8	1286.63
1407.91	78.7	1284.65
1408.01	78.6	1304.05
1408.11	78.5	1278.98
1408.21	78.4	1271.72
1408.31	78.3	1278.8
1408.41	78.2	1279.61
1408.51	78.1	1249.46
1408.61	78	1270.63
1408.71	77.9	1262.99
1408.81	77.8	1260.88
1408.91	77.7	1280.73
1409.01	77.6	1298.55
1409.11	77.5	1290.49
1409.21	77.4	1286.16
1409.31	77.3	1280.91
1409.41	77.2	1300.14
1409.51	77.1	1301.71
1409.61	77	1325.14
1409.71	76.9	1298.19
1409.81	76.8	1300.78
1409.91	76.7	1287.94
1410.01	76.6	1304.79
1410.11	76.5	1330.01
1410.21	76.4	1341.72
1410.31	76.3	1338.38
1410.41	76.2	1347.5
1410.51	76.1	1383.06
1410.61	76	1354.93
1410.71	75.9	1336.18
1410.81	75.8	1363.52
1410.91	75.7	1366.35
1411.01	75.6	1373.67
1411.11	75.5	1376.15
1411.21	75.4	1343.91
1411.31	75.3	1388.92
1411.41	75.2	1356.85
1411.51	75.1	1356.5
1411.61	75	1360.2