c:\users\mark\owncloud\muelheim group\projects\gas phase background\ex340_cec356_au n2 largearea.vms
Pr:Au4p
	Characteristic Energy eV	1486.61	Acquisition Time s	3
KE_Pr:Au4p	BE_Pr:Au4p	CPS_Pr:Au4p
661.21	825.4	1298.74
661.31	825.3	1338.2
661.41	825.2	1361.19
661.51	825.1	1369.51
661.61	825	1359.84
661.71	824.9	1390.5
661.81	824.8	1367.22
661.91	824.7	1306.68
662.01	824.6	1337.47
662.11	824.5	1321.5
662.21	824.4	1340.65
662.31	824.3	1383.05
662.41	824.2	1352.1
662.51	824.1	1341.4
662.61	824	1345.59
662.71	823.9	1324.15
662.81	823.8	1359.04
662.91	823.7	1352.53
663.01	823.6	1359.05
663.11	823.5	1359.05
663.21	823.4	1355.54
663.31	823.3	1355.76
663.41	823.2	1364.39
663.51	823.1	1304.58
663.61	823	1320.6
663.71	822.9	1331.93
663.81	822.8	1350.65
663.91	822.7	1414.38
664.01	822.6	1408.57
664.11	822.5	1328.46
664.21	822.4	1308.92
664.31	822.3	1304.98
664.41	822.2	1325.04
664.51	822.1	1380.8
664.61	822	1433.29
664.71	821.9	1374.15
664.81	821.8	1377.87
664.91	821.7	1359.16
665.01	821.6	1315.59
665.11	821.5	1344.11
665.21	821.4	1354.97
665.31	821.3	1385.66
665.41	821.2	1317.92
665.51	821.1	1327.21
665.61	821	1361.87
665.71	820.9	1365.39
665.81	820.8	1397.09
665.91	820.7	1380.21
666.01	820.6	1403.17
666.11	820.5	1369.53
666.21	820.4	1389.15
666.31	820.3	1373.58
666.41	820.2	1327
666.51	820.1	1355.23
666.61	820	1349.82
666.71	819.9	1357.74
666.81	819.8	1340.17
666.91	819.7	1280.26
667.01	819.6	1373.65
667.11	819.5	1328.98
667.21	819.4	1300.2
667.31	819.3	1381.56
667.41	819.2	1375.28
667.51	819.1	1362.18
667.61	819	1405.87
667.71	818.9	1411.33
667.81	818.8	1375.68
667.91	818.7	1375.47
668.01	818.6	1406.7
668.11	818.5	1355.22
668.21	818.4	1325.92
668.31	818.3	1345.07
668.41	818.2	1342.66
668.51	818.1	1340.49
668.61	818	1406.11
668.71	817.9	1394.51
668.81	817.8	1388.73
668.91	817.7	1405.76
669.01	817.6	1331.81
669.11	817.5	1419.3
669.21	817.4	1402.8
669.31	817.3	1388.35
669.41	817.2	1343.55
669.51	817.1	1330.14
669.61	817	1378.69
669.71	816.9	1358.82
669.81	816.8	1334.04
669.91	816.7	1397.8
670.01	816.6	1385.36
670.11	816.5	1391.62
670.21	816.4	1372.51
670.31	816.3	1372.03
670.41	816.2	1386.56
670.51	816.1	1327.58
670.61	816	1407.57
670.71	815.9	1376.26
670.81	815.8	1364.79
670.91	815.7	1398.95
671.01	815.6	1389.64
671.11	815.5	1405.46
671.21	815.4	1373.82
671.31	815.3	1380.44
671.41	815.2	1365.7
671.51	815.1	1361.09
671.61	815	1406.05
671.71	814.9	1360.58
671.81	814.8	1406.9
671.91	814.7	1345.59
672.01	814.6	1376.02
672.11	814.5	1358.91
672.21	814.4	1413.46
672.31	814.3	1315.52
672.41	814.2	1385.41
672.51	814.1	1354.14
672.61	814	1342.33
672.71	813.9	1365.65
672.81	813.8	1338.34
672.91	813.7	1326.63
673.01	813.6	1431.06
673.11	813.5	1382.28
673.21	813.4	1412.84
673.31	813.3	1371.06
673.41	813.2	1360.82
673.51	813.1	1344.75
673.61	813	1326.24
673.71	812.9	1345.96
673.81	812.8	1377.25
673.91	812.7	1334.71
674.01	812.6	1341.27
674.11	812.5	1410.39
674.21	812.4	1367.68
674.31	812.3	1396.97
674.41	812.2	1435.4
674.51	812.1	1374.35
674.61	812	1392.08
674.71	811.9	1395.47
674.81	811.8	1358.83
674.91	811.7	1336.92
675.01	811.6	1323.97
675.11	811.5	1338.56
675.21	811.4	1370.35
675.31	811.3	1391.65
675.41	811.2	1413.17
675.51	811.1	1455.16
675.61	811	1322.25
675.71	810.9	1334.81
675.81	810.8	1458.46
675.91	810.7	1424.29
676.01	810.6	1405.78
676.11	810.5	1408.34
676.21	810.4	1393.63
676.31	810.3	1386.98
676.41	810.2	1418.34
676.51	810.1	1397.56
676.61	810	1369.59
676.71	809.9	1334.28
676.81	809.8	1381.57
676.91	809.7	1357.26
677.01	809.6	1389.55
677.11	809.5	1406.61
677.21	809.4	1391.3
677.31	809.3	1377.05
677.41	809.2	1357.81
677.51	809.1	1403.97
677.61	809	1377.92
677.71	808.9	1351.21
677.81	808.8	1392.04
677.91	808.7	1406.93
678.01	808.6	1344.72
678.11	808.5	1375.94
678.21	808.4	1312.86
678.31	808.3	1372.12
678.41	808.2	1398.98
678.51	808.1	1357.13
678.61	808	1343.89
678.71	807.9	1379.75
678.81	807.8	1349.74
678.91	807.7	1347.93
679.01	807.6	1369.72
679.11	807.5	1388.57
679.21	807.4	1373.76
679.31	807.3	1407.69
679.41	807.2	1325.94
679.51	807.1	1358.43
679.61	807	1369.32
679.71	806.9	1351.05
679.81	806.8	1387.44
679.91	806.7	1382.36
680.01	806.6	1358.38
680.11	806.5	1392.27
680.21	806.4	1417.09
680.31	806.3	1330.35
680.41	806.2	1393.84
680.51	806.1	1359.76
680.61	806	1324.49
680.71	805.9	1372.58
680.81	805.8	1391.47
680.91	805.7	1392.92
681.01	805.6	1422.64
681.11	805.5	1425.07
681.21	805.4	1358.99
681.31	805.3	1453.78
681.41	805.2	1392.1
681.51	805.1	1325.03
681.61	805	1333.68
681.71	804.9	1372.6
681.81	804.8	1376.89
681.91	804.7	1393.52
682.01	804.6	1364.17
682.11	804.5	1441.23
682.21	804.4	1393.02
682.31	804.3	1362.54
682.41	804.2	1346.86
682.51	804.1	1356.38
682.61	804	1349.21
682.71	803.9	1376.53
682.81	803.8	1426.02
682.91	803.7	1436.71
683.01	803.6	1384.23
683.11	803.5	1410.75
683.21	803.4	1415.21
683.31	803.3	1403.3
683.41	803.2	1362.59
683.51	803.1	1367.64
683.61	803	1379
683.71	802.9	1361.65
683.81	802.8	1350.61
683.91	802.7	1391.83
684.01	802.6	1391.88
684.11	802.5	1367.74
684.21	802.4	1369.3
684.31	802.3	1408.12
684.41	802.2	1367.11
684.51	802.1	1422.5
684.61	802	1412.42
684.71	801.9	1380.84
684.81	801.8	1385.99
684.91	801.7	1328.35
685.01	801.6	1381.54
685.11	801.5	1352.23
685.21	801.4	1361.35
685.31	801.3	1450.7
685.41	801.2	1409.09
685.51	801.1	1416.61
685.61	801	1400.84
685.71	800.9	1378.19
685.81	800.8	1393.41
685.91	800.7	1421.07
686.01	800.6	1443.79
686.11	800.5	1446.48
686.21	800.4	1417.53
686.31	800.3	1342.19
686.41	800.2	1337.34
686.51	800.1	1385.46
686.61	800	1349.45
686.71	799.9	1372.74
686.81	799.8	1372.36
686.91	799.7	1373.95
687.01	799.6	1391.74
687.11	799.5	1400.99
687.21	799.4	1431.81
687.31	799.3	1386.2
687.41	799.2	1446.12
687.51	799.1	1359.14
687.61	799	1400.56
687.71	798.9	1415.18
687.81	798.8	1370.14
687.91	798.7	1432.26
688.01	798.6	1409.55
688.11	798.5	1415.77
688.21	798.4	1452.96
688.31	798.3	1414.08
688.41	798.2	1426.5
688.51	798.1	1385.88
688.61	798	1404.27
688.71	797.9	1437.76
688.81	797.8	1440.21
688.91	797.7	1358.07
689.01	797.6	1395.86
689.11	797.5	1389.51
689.21	797.4	1385.06
689.31	797.3	1434.22
689.41	797.2	1420.54
689.51	797.1	1360.49
689.61	797	1349.45
689.71	796.9	1445.83
689.81	796.8	1379.89
689.91	796.7	1452.04
690.01	796.6	1383.56
690.11	796.5	1384.55
690.21	796.4	1415.87
690.31	796.3	1409.19
690.41	796.2	1423.74
690.51	796.1	1442.26
690.61	796	1463.32
690.71	795.9	1453.27
690.81	795.8	1454.12
690.91	795.7	1439.48
691.01	795.6	1416.5
691.11	795.5	1410.95
691.21	795.4	1369.57
691.31	795.3	1412.22
691.41	795.2	1434.94
691.51	795.1	1399.53
691.61	795	1401.31
691.71	794.9	1427.07
691.81	794.8	1384.99
691.91	794.7	1377.54
692.01	794.6	1430.89
692.11	794.5	1394.31
692.21	794.4	1385.07
692.31	794.3	1363.02
692.41	794.2	1452.91
692.51	794.1	1383.53
692.61	794	1382.58
692.71	793.9	1413.1
692.81	793.8	1414.08
692.91	793.7	1473.17
693.01	793.6	1437.99
693.11	793.5	1423.14
693.21	793.4	1447.56
693.31	793.3	1413.55
693.41	793.2	1417.57
693.51	793.1	1405.05
693.61	793	1427.34
693.71	792.9	1462.69
693.81	792.8	1460.38
693.91	792.7	1465.06
694.01	792.6	1440.25
694.11	792.5	1481.57
694.21	792.4	1483.98
694.31	792.3	1464.67
694.41	792.2	1410.89
694.51	792.1	1372.34
694.61	792	1405.59
694.71	791.9	1367.21
694.81	791.8	1425.96
694.91	791.7	1458.92
695.01	791.6	1472.23
695.11	791.5	1514.95
695.21	791.4	1415.17
695.31	791.3	1424.92
695.41	791.2	1409.58
695.51	791.1	1471.76
695.61	791	1390.45
695.71	790.9	1422.63
695.81	790.8	1398.38
695.91	790.7	1406.1
696.01	790.6	1397.22
696.11	790.5	1414.4
696.21	790.4	1467.29
696.31	790.3	1417.04
696.41	790.2	1394.19
696.51	790.1	1436.31
696.61	790	1383.99
696.71	789.9	1414.51
696.81	789.8	1413.8
696.91	789.7	1415.68
697.01	789.6	1469.8
697.11	789.5	1467.45
697.21	789.4	1352.33
697.31	789.3	1393.79
697.41	789.2	1376.57
697.51	789.1	1408.62
697.61	789	1450.01
697.71	788.9	1384.09
697.81	788.8	1406.51
697.91	788.7	1389.86
698.01	788.6	1431.04
698.11	788.5	1410.63
698.21	788.4	1416.91
698.31	788.3	1428.09
698.41	788.2	1427.34
698.51	788.1	1413.66
698.61	788	1407.75
698.71	787.9	1416.73
698.81	787.8	1417.85
698.91	787.7	1402.3
699.01	787.6	1399.31
699.11	787.5	1400.8
699.21	787.4	1395.51
699.31	787.3	1427.93
699.41	787.2	1426.01
699.51	787.1	1445.76
699.61	787	1413.78
699.71	786.9	1408.5
699.81	786.8	1390.65
699.91	786.7	1446.03
700.01	786.6	1446.55
700.11	786.5	1442
700.21	786.4	1494.78
700.31	786.3	1490.6
700.41	786.2	1429.51
700.51	786.1	1507.9
700.61	786	1441.95
700.71	785.9	1443.06
700.81	785.8	1469.81
700.91	785.7	1464.9
701.01	785.6	1433.54
701.11	785.5	1378.63
701.21	785.4	1446.94
701.31	785.3	1373.16
701.41	785.2	1385.08
701.51	785.1	1409.32
701.61	785	1440.91
701.71	784.9	1405.09
701.81	784.8	1386.77
701.91	784.7	1469.09
702.01	784.6	1504.14
702.11	784.5	1495.39
702.21	784.4	1499.37
702.31	784.3	1412.52
702.41	784.2	1368.23
702.51	784.1	1463.01
702.61	784	1470.03
702.71	783.9	1434.18
702.81	783.8	1415.33
702.91	783.7	1408.04
703.01	783.6	1475.32
703.11	783.5	1419.74
703.21	783.4	1442.29
703.31	783.3	1399.34
703.41	783.2	1378.18
703.51	783.1	1442.17
703.61	783	1453.78
703.71	782.9	1405.66
703.81	782.8	1423.18
703.91	782.7	1416.46
704.01	782.6	1452.71
704.11	782.5	1468.56
704.21	782.4	1429.44
704.31	782.3	1435.08
704.41	782.2	1426.37
704.51	782.1	1460.48
704.61	782	1505.36
704.71	781.9	1465.38
704.81	781.8	1473.16
704.91	781.7	1408.87
705.01	781.6	1472.25
705.11	781.5	1403.6
705.21	781.4	1431.85
705.31	781.3	1420.06
705.41	781.2	1406.14
705.51	781.1	1442.06
705.61	781	1447.74
705.71	780.9	1461.78
705.81	780.8	1491.4
705.91	780.7	1448.04
706.01	780.6	1445.06
706.11	780.5	1459.04
706.21	780.4	1449.55
706.31	780.3	1386.53
706.41	780.2	1441.31
706.51	780.1	1401.66
706.61	780	1397.67
706.71	779.9	1435.79
706.81	779.8	1450.3
706.91	779.7	1450.11
707.01	779.6	1404.26
707.11	779.5	1415.24
707.21	779.4	1402.15
707.31	779.3	1446
707.41	779.2	1481.98
707.51	779.1	1401.29
707.61	779	1407.91
707.71	778.9	1398.12
707.81	778.8	1445.46
707.91	778.7	1491.68
708.01	778.6	1499.56
708.11	778.5	1461.1
708.21	778.4	1444.75
708.31	778.3	1443.59
708.41	778.2	1392.27
708.51	778.1	1479.49
708.61	778	1475.47
708.71	777.9	1464.14
708.81	777.8	1468.76
708.91	777.7	1519.7
709.01	777.6	1473.28
709.11	777.5	1422.73
709.21	777.4	1463.27
709.31	777.3	1456.48
709.41	777.2	1454.53
709.51	777.1	1433.67
709.61	777	1424.79
709.71	776.9	1367.9
709.81	776.8	1420.51
709.91	776.7	1455.22
710.01	776.6	1463.37
710.11	776.5	1414.04
710.21	776.4	1440.26
710.31	776.3	1430.23
710.41	776.2	1467.41
710.51	776.1	1502.86
710.61	776	1444.94
710.71	775.9	1428.98
710.81	775.8	1453.79
710.91	775.7	1436.64
711.01	775.6	1469.28
711.11	775.5	1472.32
711.21	775.4	1479.87
711.31	775.3	1487.48
711.41	775.2	1492.29
711.51	775.1	1423.43
711.61	775	1424.45
711.71	774.9	1385.36
711.81	774.8	1448.23
711.91	774.7	1439.91
712.01	774.6	1430.49
712.11	774.5	1397.47
712.21	774.4	1423.01
712.31	774.3	1446.92
712.41	774.2	1389.53
712.51	774.1	1475.11
712.61	774	1492.78
712.71	773.9	1447.99
712.81	773.8	1445.57
712.91	773.7	1397.68
713.01	773.6	1416.06
713.11	773.5	1384.93
713.21	773.4	1415.98
713.31	773.3	1474.49
713.41	773.2	1419.93
713.51	773.1	1381.71
713.61	773	1426.02
713.71	772.9	1436.53
713.81	772.8	1460.7
713.91	772.7	1409.31
714.01	772.6	1464.95
714.11	772.5	1461.43
714.21	772.4	1476.67
714.31	772.3	1392.85
714.41	772.2	1422.22
714.51	772.1	1436.93
714.61	772	1392.28
714.71	771.9	1460.28
714.81	771.8	1413.19
714.91	771.7	1442.74
715.01	771.6	1399.01
715.11	771.5	1381.95
715.21	771.4	1398.19
715.31	771.3	1447.5
715.41	771.2	1436.21
715.51	771.1	1476.25
715.61	771	1401.1
715.71	770.9	1377.17
715.81	770.8	1415.38
715.91	770.7	1387.15
716.01	770.6	1389.63
716.11	770.5	1402.57
716.21	770.4	1383.11
716.31	770.3	1424.35
716.41	770.2	1426.43
716.51	770.1	1392.97
716.61	770	1427.01
716.71	769.9	1385.32
716.81	769.8	1429.89
716.91	769.7	1391.6
717.01	769.6	1435.04
717.11	769.5	1471.48
717.21	769.4	1446.65
717.31	769.3	1384.8
717.41	769.2	1400.6
717.51	769.1	1420.44
717.61	769	1389.58
717.71	768.9	1438.79
717.81	768.8	1435.9
717.91	768.7	1412.94
718.01	768.6	1398.98
718.11	768.5	1401.12
718.21	768.4	1427.06
718.31	768.3	1417.63
718.41	768.2	1400.64
718.51	768.1	1411.15
718.61	768	1458.92
718.71	767.9	1442.96
718.81	767.8	1448.9
718.91	767.7	1468.07
719.01	767.6	1418.41
719.11	767.5	1475.95
719.21	767.4	1432.86
719.31	767.3	1436.63
719.41	767.2	1436.24
719.51	767.1	1441.97
719.61	767	1466.08
719.71	766.9	1441.65
719.81	766.8	1467.39
719.91	766.7	1499.03
720.01	766.6	1532.57
720.11	766.5	1441.08
720.21	766.4	1469.75
720.31	766.3	1448.39
720.41	766.2	1472.36
720.51	766.1	1453.6
720.61	766	1458.1
720.71	765.9	1484.21
720.81	765.8	1456.41
720.91	765.7	1444.65
721.01	765.6	1417.76
721.11	765.5	1480.63
721.21	765.4	1437.17
721.31	765.3	1449.6
721.41	765.2	1453.84
721.51	765.1	1460.78
721.61	765	1547.65
721.71	764.9	1454.16
721.81	764.8	1514.73
721.91	764.7	1501.83
722.01	764.6	1518.37
722.11	764.5	1482.11
722.21	764.4	1504.88
722.31	764.3	1535.01
722.41	764.2	1469.25
722.51	764.1	1453.92
722.61	764	1491.89
722.71	763.9	1503.6
722.81	763.8	1541.87
722.91	763.7	1554
723.01	763.6	1522.41
723.11	763.5	1556.01
723.21	763.4	1518.11
723.31	763.3	1516.32
723.41	763.2	1529.52
723.51	763.1	1535.79
723.61	763	1600.13
723.71	762.9	1576.73
723.81	762.8	1573.97
723.91	762.7	1526.27
724.01	762.6	1565.11
724.11	762.5	1493.98
724.21	762.4	1575.71
724.31	762.3	1525.91
724.41	762.2	1557.42
724.51	762.1	1536.42
724.61	762	1541.76
724.71	761.9	1549.69
724.81	761.8	1538.26
724.91	761.7	1573.26
725.01	761.6	1573.5
725.11	761.5	1593.7
725.21	761.4	1619.87
725.31	761.3	1536.1
725.41	761.2	1543.54
725.51	761.1	1575.94
725.61	761	1537.38
725.71	760.9	1532.91
725.81	760.8	1519.91
725.91	760.7	1554.91
726.01	760.6	1546.12
726.11	760.5	1483.82
726.21	760.4	1470.45
726.31	760.3	1537.42
726.41	760.2	1546.79
726.51	760.1	1558.82
726.61	760	1568.69
726.71	759.9	1546.12
726.81	759.8	1428.06
726.91	759.7	1443.16
727.01	759.6	1498.79
727.11	759.5	1526.06
727.21	759.4	1449.39
727.31	759.3	1476.46
727.41	759.2	1492.93
727.51	759.1	1443.43
727.61	759	1427.26
727.71	758.9	1439.83
727.81	758.8	1471.86
727.91	758.7	1414.33
728.01	758.6	1462.86
728.11	758.5	1462.73
728.21	758.4	1438.76
728.31	758.3	1493.56
728.41	758.2	1416.16
728.51	758.1	1436.06
728.61	758	1423.86
728.71	757.9	1374.23
728.81	757.8	1385.03
728.91	757.7	1436.69
729.01	757.6	1354.39
729.11	757.5	1370.62
729.21	757.4	1380.12
729.31	757.3	1343.65
729.41	757.2	1463.95
729.51	757.1	1387.55
729.61	757	1376.58
729.71	756.9	1409.25
729.81	756.8	1378.11
729.91	756.7	1366.88
730.01	756.6	1390.51
730.11	756.5	1394.27
730.21	756.4	1370.61
730.31	756.3	1407.9
730.41	756.2	1364.77
730.51	756.1	1350.87
730.61	756	1372.66
730.71	755.9	1366.63
730.81	755.8	1365.33
730.91	755.7	1396.82
731.01	755.6	1395.79
731.11	755.5	1381.25
731.21	755.4	1371.05
731.31	755.3	1302.01
731.41	755.2	1327.41
731.51	755.1	1417.64
731.61	755	1349.67
731.71	754.9	1307.36
731.81	754.8	1332.36
731.91	754.7	1357.86
732.01	754.6	1312.39
732.11	754.5	1359.45
732.21	754.4	1371.91
732.31	754.3	1355.58
732.41	754.2	1340.4
732.51	754.1	1283.57
732.61	754	1306.93
732.71	753.9	1330.66
732.81	753.8	1368.32
732.91	753.7	1346.48
733.01	753.6	1352.25
733.11	753.5	1411.17
733.21	753.4	1331.84
733.31	753.3	1380.1
733.41	753.2	1337.86
733.51	753.1	1284.72
733.61	753	1328.98
733.71	752.9	1326.04
733.81	752.8	1309.24
733.91	752.7	1296.6
734.01	752.6	1338.39
734.11	752.5	1381.75
734.21	752.4	1363.01
734.31	752.3	1315.71
734.41	752.2	1337.97
734.51	752.1	1344.5
734.61	752	1286.76
734.71	751.9	1281.82
734.81	751.8	1362.94
734.91	751.7	1333
735.01	751.6	1285.86
735.11	751.5	1312.56
735.21	751.4	1266.25
735.31	751.3	1326.94
735.41	751.2	1306.03
735.51	751.1	1238.33
735.61	751	1279.75
735.71	750.9	1312.31
735.81	750.8	1278.7
735.91	750.7	1282.4
736.01	750.6	1308.59
736.11	750.5	1273.58
736.21	750.4	1339.97
736.31	750.3	1284.5
736.41	750.2	1328.35
736.51	750.1	1277.55
736.61	750	1268.9
736.71	749.9	1334.2
736.81	749.8	1343.55
736.91	749.7	1319.78
737.01	749.6	1304.3
737.11	749.5	1306.59
737.21	749.4	1305.65
737.31	749.3	1359.04
737.41	749.2	1353.23
737.51	749.1	1351.15
737.61	749	1294.28
737.71	748.9	1225.9
737.81	748.8	1286.92
737.91	748.7	1257.35
738.01	748.6	1291.3
738.11	748.5	1327.99
738.21	748.4	1351.05
738.31	748.3	1334.47
738.41	748.2	1321.26
738.51	748.1	1333.68
738.61	748	1304.64
738.71	747.9	1293.13
738.81	747.8	1301.38
738.91	747.7	1305.34
739.01	747.6	1279.33
739.11	747.5	1271.51
739.21	747.4	1290.13
739.31	747.3	1309.89
739.41	747.2	1341.61
739.51	747.1	1310.26
739.61	747	1338.72
739.71	746.9	1338.61
739.81	746.8	1262.33
739.91	746.7	1206.15
740.01	746.6	1269.77
740.11	746.5	1279.02
740.21	746.4	1330.11
740.31	746.3	1276.36
740.41	746.2	1300.15
740.51	746.1	1323.37
740.61	746	1303.12
740.71	745.9	1279.77
740.81	745.8	1230.73
740.91	745.7	1297.41
741.01	745.6	1310.06
741.11	745.5	1334.22
741.21	745.4	1299.13
741.31	745.3	1308.25
741.41	745.2	1343.04
741.51	745.1	1294.46
741.61	745	1298.74
741.71	744.9	1344.16
741.81	744.8	1347.41
741.91	744.7	1281.43
742.01	744.6	1325.65
742.11	744.5	1329.7
742.21	744.4	1280.85
742.31	744.3	1307.4
742.41	744.2	1322.45
742.51	744.1	1313.43
742.61	744	1260.81
742.71	743.9	1294.76
742.81	743.8	1304.75
742.91	743.7	1265.3
743.01	743.6	1243.18
743.11	743.5	1266.7
743.21	743.4	1292.01
743.31	743.3	1273.26
743.41	743.2	1316.48
743.51	743.1	1348.89
743.61	743	1343.34
743.71	742.9	1292.59
743.81	742.8	1355.2
743.91	742.7	1337.42
744.01	742.6	1266.67
744.11	742.5	1295.15
744.21	742.4	1315.16
744.31	742.3	1276.58
744.41	742.2	1259.52
744.51	742.1	1294.64
744.61	742	1300.38
744.71	741.9	1337.86
744.81	741.8	1276.81
744.91	741.7	1278.46
745.01	741.6	1316.67
745.11	741.5	1336.28
745.21	741.4	1327.8
745.31	741.3	1286.51
745.41	741.2	1333.89
745.51	741.1	1369.07
745.61	741	1329.68
745.71	740.9	1309.09
745.81	740.8	1291.17
745.91	740.7	1275.58
746.01	740.6	1347.93
746.11	740.5	1293.4
746.21	740.4	1370.45
746.31	740.3	1351.49
746.41	740.2	1284.57
746.51	740.1	1287.31
746.61	740	1286.56
746.71	739.9	1273.24
746.81	739.8	1237.61
746.91	739.7	1217.79
747.01	739.6	1252.43
747.11	739.5	1304.31
747.21	739.4	1283.72
747.31	739.3	1254.79
747.41	739.2	1330.7
747.51	739.1	1338.98
747.61	739	1292.15
747.71	738.9	1290
747.81	738.8	1328.04
747.91	738.7	1297.71
748.01	738.6	1312.69
748.11	738.5	1318.16
748.21	738.4	1250.04
748.31	738.3	1280.01
748.41	738.2	1307.09
748.51	738.1	1272.63
748.61	738	1305.23
748.71	737.9	1284.27
748.81	737.8	1311.11
748.91	737.7	1297.25
749.01	737.6	1280.69
749.11	737.5	1288.1
749.21	737.4	1258.71
749.31	737.3	1312.38
749.41	737.2	1285.82
749.51	737.1	1298.29
749.61	737	1290.73
749.71	736.9	1255.47
749.81	736.8	1340.71
749.91	736.7	1312.88
750.01	736.6	1227.85
750.11	736.5	1324.49
750.21	736.4	1308.63
750.31	736.3	1321.73
750.41	736.2	1329.5
750.51	736.1	1308
750.61	736	1294.51
750.71	735.9	1316.74
750.81	735.8	1286.91
750.91	735.7	1319.95
751.01	735.6	1347.85
751.11	735.5	1259.16
751.21	735.4	1237.53
751.31	735.3	1318.29
751.41	735.2	1324.5
751.51	735.1	1366.23
751.61	735	1325.67
751.71	734.9	1330.34
751.81	734.8	1342.2
751.91	734.7	1324.37
752.01	734.6	1312.31
752.11	734.5	1371.54
752.21	734.4	1357.01
752.31	734.3	1345.04
752.41	734.2	1374.41
752.51	734.1	1357.51
752.61	734	1255.74
752.71	733.9	1303.27
752.81	733.8	1319.21
752.91	733.7	1243.54
753.01	733.6	1288.04
753.11	733.5	1328.84
753.21	733.4	1311.37
753.31	733.3	1318.57
753.41	733.2	1349.83
753.51	733.1	1294.97
753.61	733	1270.96
753.71	732.9	1333.26
753.81	732.8	1358.43
753.91	732.7	1276.42
754.01	732.6	1328.89
754.11	732.5	1395.12
754.21	732.4	1343.75
754.31	732.3	1364.94
754.41	732.2	1322.57
754.51	732.1	1336.94
754.61	732	1324.57
754.71	731.9	1248
754.81	731.8	1314.19
754.91	731.7	1326.05
755.01	731.6	1269.45
755.11	731.5	1281.41
755.21	731.4	1317.04
755.31	731.3	1344.77
755.41	731.2	1251.96
755.51	731.1	1326.76
755.61	731	1327.48
755.71	730.9	1346.48
755.81	730.8	1332.74
755.91	730.7	1298.23
756.01	730.6	1311.02
756.11	730.5	1313.15
756.21	730.4	1348.61
756.31	730.3	1311.67
756.41	730.2	1336.53
756.51	730.1	1291.49
756.61	730	1352.01
756.71	729.9	1376
756.81	729.8	1302.56
756.91	729.7	1323.92
757.01	729.6	1274.64
757.11	729.5	1280.7
757.21	729.4	1306.93
757.31	729.3	1312.08
757.41	729.2	1303.81
757.51	729.1	1290.9
757.61	729	1362.89
757.71	728.9	1289.21
757.81	728.8	1259.67
757.91	728.7	1302.29
758.01	728.6	1343.64
758.11	728.5	1287.93
758.21	728.4	1333.79
758.31	728.3	1378.04
758.41	728.2	1311.13
758.51	728.1	1332.52
758.61	728	1305.57
758.71	727.9	1331.76
758.81	727.8	1362.35
758.91	727.7	1361.34
759.01	727.6	1380.62
759.11	727.5	1364.18
759.21	727.4	1313.4
759.31	727.3	1296.12
759.41	727.2	1282.07
759.51	727.1	1304.22
759.61	727	1328.44
759.71	726.9	1389.86
759.81	726.8	1411.98
759.91	726.7	1336.59
760.01	726.6	1338.01
760.11	726.5	1360.13
760.21	726.4	1329.11
760.31	726.3	1279.5
760.41	726.2	1319.72
760.51	726.1	1332.3
760.61	726	1350.25
760.71	725.9	1369.93
760.81	725.8	1312.12
760.91	725.7	1310.63
761.01	725.6	1309.61
761.11	725.5	1311.26
761.21	725.4	1328.84
761.31	725.3	1305.89
761.41	725.2	1338.14
761.51	725.1	1312.02
761.61	725	1326.94
761.71	724.9	1358.28
761.81	724.8	1338.03
761.91	724.7	1299.55
762.01	724.6	1299.49
762.11	724.5	1329.57
762.21	724.4	1375.32
762.31	724.3	1366.8
762.41	724.2	1304.64
762.51	724.1	1379.12
762.61	724	1342.43
762.71	723.9	1351.68
762.81	723.8	1370.26
762.91	723.7	1317.84
763.01	723.6	1368.41
763.11	723.5	1324.42
763.21	723.4	1307.07
763.31	723.3	1332.15
763.41	723.2	1383.32
763.51	723.1	1314.73
763.61	723	1316.44
763.71	722.9	1330.52
763.81	722.8	1412.73
763.91	722.7	1444.64
764.01	722.6	1374.75
764.11	722.5	1323.02
764.21	722.4	1333.26
764.31	722.3	1326.04
764.41	722.2	1346.54
764.51	722.1	1328.25
764.61	722	1352.93
764.71	721.9	1312
764.81	721.8	1273.54
764.91	721.7	1319.81
765.01	721.6	1327.69
765.11	721.5	1332.36
765.21	721.4	1285.73
765.31	721.3	1302.87
765.41	721.2	1347.38
765.51	721.1	1373.81
765.61	721	1319.82
765.71	720.9	1342.66
765.81	720.8	1354.96
765.91	720.7	1346.9
766.01	720.6	1389.44
766.11	720.5	1350.37
766.21	720.4	1313.84
766.31	720.3	1298.05
766.41	720.2	1325.55
766.51	720.1	1345.62
766.61	720	1332.85
766.71	719.9	1283.86
766.81	719.8	1308.42
766.91	719.7	1324.29
767.01	719.6	1328.23
767.11	719.5	1327.13
767.21	719.4	1307.2
767.31	719.3	1354.43
767.41	719.2	1371.13
767.51	719.1	1349.4
767.61	719	1265.6
767.71	718.9	1277.3
767.81	718.8	1302.8
767.91	718.7	1376.26
768.01	718.6	1387.46
768.11	718.5	1409.86
768.21	718.4	1336.86
768.31	718.3	1398.72
768.41	718.2	1327.75
768.51	718.1	1306.78
768.61	718	1274.88
768.71	717.9	1302.11
768.81	717.8	1319.57
768.91	717.7	1373.77
769.01	717.6	1303.1
769.11	717.5	1337.4
769.21	717.4	1378.46
769.31	717.3	1390.99
769.41	717.2	1329.08
769.51	717.1	1326.74
769.61	717	1393.17
769.71	716.9	1365.67
769.81	716.8	1346.46
769.91	716.7	1365.35
770.01	716.6	1389.05
770.11	716.5	1338.07
770.21	716.4	1334.7
770.31	716.3	1326.53
770.41	716.2	1381.72
770.51	716.1	1358.68
770.61	716	1383.77
770.71	715.9	1376.5
770.81	715.8	1340.02
770.91	715.7	1346.31
771.01	715.6	1372.4
771.11	715.5	1386.43
771.21	715.4	1403.05
771.31	715.3	1313.41
771.41	715.2	1362.96
771.51	715.1	1381.22
771.61	715	1424.24
771.71	714.9	1361.43
771.81	714.8	1362.39
771.91	714.7	1307.54
772.01	714.6	1255.56
772.11	714.5	1393.75
772.21	714.4	1334.24
772.31	714.3	1386.49
772.41	714.2	1399.98
772.51	714.1	1351.83
772.61	714	1357.89
772.71	713.9	1367.8
772.81	713.8	1364.12
772.91	713.7	1356.11
773.01	713.6	1340.6
773.11	713.5	1343.11
773.21	713.4	1387.23
773.31	713.3	1388.58
773.41	713.2	1344.77
773.51	713.1	1417.62
773.61	713	1401.2
773.71	712.9	1358.28
773.81	712.8	1351.43
773.91	712.7	1341.82
774.01	712.6	1371.23
774.11	712.5	1362.75
774.21	712.4	1422.3
774.31	712.3	1335.58
774.41	712.2	1379.96
774.51	712.1	1356.81
774.61	712	1358.56
774.71	711.9	1374.3
774.81	711.8	1365.92
774.91	711.7	1400.6
775.01	711.6	1379.54
775.11	711.5	1378.39
775.21	711.4	1376.47
775.31	711.3	1396.08
775.41	711.2	1387.36
775.51	711.1	1370.2
775.61	711	1291.91
775.71	710.9	1328.39
775.81	710.8	1370.14
775.91	710.7	1381.95
776.01	710.6	1413.66
776.11	710.5	1371.3
776.21	710.4	1307.41
776.31	710.3	1302.72
776.41	710.2	1407.93
776.51	710.1	1315.97
776.61	710	1343.88
776.71	709.9	1396.22
776.81	709.8	1383.26
776.91	709.7	1355.07
777.01	709.6	1320.27
777.11	709.5	1406.21
777.21	709.4	1349.92
777.31	709.3	1359.93
777.41	709.2	1357.6
777.51	709.1	1370.94
777.61	709	1341.38
777.71	708.9	1415.22
777.81	708.8	1331.45
777.91	708.7	1355.09
778.01	708.6	1403.86
778.11	708.5	1409.2
778.21	708.4	1377.47
778.31	708.3	1387.14
778.41	708.2	1410.64
778.51	708.1	1376.38
778.61	708	1354.58
778.71	707.9	1371.85
778.81	707.8	1343.15
778.91	707.7	1356.35
779.01	707.6	1351.15
779.11	707.5	1376.45
779.21	707.4	1354.59
779.31	707.3	1361.26
779.41	707.2	1388.79
779.51	707.1	1391.85
779.61	707	1413.92
779.71	706.9	1372.95
779.81	706.8	1397.72
779.91	706.7	1401.65
780.01	706.6	1415.28
780.11	706.5	1414.25
780.21	706.4	1354.41
780.31	706.3	1400.54
780.41	706.2	1407.4
780.51	706.1	1330.8
780.61	706	1381.93
780.71	705.9	1380.69
780.81	705.8	1333.02
780.91	705.7	1372.95
781.01	705.6	1381.11
781.11	705.5	1446.31
781.21	705.4	1430.8
781.31	705.3	1413.73
781.41	705.2	1366.65
781.51	705.1	1375.48
781.61	705	1348.31
781.71	704.9	1369.13
781.81	704.8	1313.62
781.91	704.7	1356.05
782.01	704.6	1392.54
782.11	704.5	1418.93
782.21	704.4	1414.42
782.31	704.3	1389.35
782.41	704.2	1425.51
782.51	704.1	1414.63
782.61	704	1405.19
782.71	703.9	1371.34
782.81	703.8	1408.5
782.91	703.7	1371.65
783.01	703.6	1372.54
783.11	703.5	1407.2
783.21	703.4	1353.22
783.31	703.3	1347.37
783.41	703.2	1372.66
783.51	703.1	1373.85
783.61	703	1386.3
783.71	702.9	1380.75
783.81	702.8	1388.14
783.91	702.7	1445.16
784.01	702.6	1403.61
784.11	702.5	1368.59
784.21	702.4	1399.78
784.31	702.3	1427.23
784.41	702.2	1454.15
784.51	702.1	1431.86
784.61	702	1418.01
784.71	701.9	1433.33
784.81	701.8	1402.64
784.91	701.7	1442.93
785.01	701.6	1425.68
785.11	701.5	1377.99
785.21	701.4	1429.64
785.31	701.3	1390.49
785.41	701.2	1407.07
785.51	701.1	1403.71
785.61	701	1359.29
785.71	700.9	1425.54
785.81	700.8	1384.35
785.91	700.7	1372.83
786.01	700.6	1409.14
786.11	700.5	1413.79
786.21	700.4	1374.03
786.31	700.3	1423.71
786.41	700.2	1442.05
786.51	700.1	1429.76
786.61	700	1361.87
786.71	699.9	1425.68
786.81	699.8	1389.03
786.91	699.7	1323.43
787.01	699.6	1371.91
787.11	699.5	1312.82
787.21	699.4	1358.76
787.31	699.3	1374.37
787.41	699.2	1413.87
787.51	699.1	1459.45
787.61	699	1436.09
787.71	698.9	1421.59
787.81	698.8	1403.66
787.91	698.7	1421.37
788.01	698.6	1454.41
788.11	698.5	1416.78
788.21	698.4	1408.08
788.31	698.3	1401.76
788.41	698.2	1443.59
788.51	698.1	1354.93
788.61	698	1376.33
788.71	697.9	1389.7
788.81	697.8	1347.37
788.91	697.7	1425.34
789.01	697.6	1422.97
789.11	697.5	1425.54
789.21	697.4	1388.68
789.31	697.3	1373.91
789.41	697.2	1393.08
789.51	697.1	1353.58
789.61	697	1373.41
789.71	696.9	1398.04
789.81	696.8	1416.61
789.91	696.7	1369.97
790.01	696.6	1396.84
790.11	696.5	1351.43
790.21	696.4	1386.53
790.31	696.3	1493.33
790.41	696.2	1469.69
790.51	696.1	1379.69
790.61	696	1415.75
790.71	695.9	1347.61
790.81	695.8	1388.34
790.91	695.7	1392.57
791.01	695.6	1491.3
791.11	695.5	1372.59
791.21	695.4	1444.58
791.31	695.3	1503.04
791.41	695.2	1450.17
791.51	695.1	1377.06
791.61	695	1384.12
791.71	694.9	1410.18
791.81	694.8	1353.34
791.91	694.7	1349.8
792.01	694.6	1358.02
792.11	694.5	1390.35
792.21	694.4	1406.5
792.31	694.3	1380.29
792.41	694.2	1417.38
792.51	694.1	1407.84
792.61	694	1405.33
792.71	693.9	1377.08
792.81	693.8	1418.3
792.91	693.7	1425.49
793.01	693.6	1448.14
793.11	693.5	1422.97
793.21	693.4	1387.05
793.31	693.3	1342.34
793.41	693.2	1443.06
793.51	693.1	1451.71
793.61	693	1387.26
793.71	692.9	1383.01
793.81	692.8	1343.2
793.91	692.7	1381.88
794.01	692.6	1420.87
794.11	692.5	1425.12
794.21	692.4	1449.93
794.31	692.3	1422.22
794.41	692.2	1413.2
794.51	692.1	1422.05
794.61	692	1449.43
794.71	691.9	1408.11
794.81	691.8	1380.16
794.91	691.7	1442.11
795.01	691.6	1440.22
795.11	691.5	1415.7
795.21	691.4	1365.41
795.31	691.3	1396.63
795.41	691.2	1401.54
795.51	691.1	1410.62
795.61	691	1422.76
795.71	690.9	1450.94
795.81	690.8	1417.82
795.91	690.7	1402.83
796.01	690.6	1442.84
796.11	690.5	1341.88
796.21	690.4	1408.93
796.31	690.3	1438.6
796.41	690.2	1471.58
796.51	690.1	1416.26
796.61	690	1415.13
796.71	689.9	1425.27
796.81	689.8	1398.51
796.91	689.7	1439.32
797.01	689.6	1426.56
797.11	689.5	1448.8
797.21	689.4	1497.31
797.31	689.3	1455.98
797.41	689.2	1427.52
797.51	689.1	1409.96
797.61	689	1472.1
797.71	688.9	1487.74
797.81	688.8	1446.08
797.91	688.7	1495.88
798.01	688.6	1409.35
798.11	688.5	1437.82
798.21	688.4	1452.46
798.31	688.3	1432.93
798.41	688.2	1410.47
798.51	688.1	1468.74
798.61	688	1474.9
798.71	687.9	1468.37
798.81	687.8	1452.74
798.91	687.7	1441.34
799.01	687.6	1477.54
799.11	687.5	1449.28
799.21	687.4	1437.91
799.31	687.3	1454.91
799.41	687.2	1495.21
799.51	687.1	1407.38
799.61	687	1388.58
799.71	686.9	1404.98
799.81	686.8	1535.14
799.91	686.7	1469.31
800.01	686.6	1437.11
800.11	686.5	1451.47
800.21	686.4	1435.44
800.31	686.3	1441.17
800.41	686.2	1430.06
800.51	686.1	1356.06
800.61	686	1379.12
800.71	685.9	1450.08
800.81	685.8	1466.31
800.91	685.7	1380.44
801.01	685.6	1412.9
801.11	685.5	1391.7
801.21	685.4	1400.53
801.31	685.3	1389.86
801.41	685.2	1391.85
801.51	685.1	1404.61
801.61	685	1467.44
801.71	684.9	1476.6
801.81	684.8	1395.92
801.91	684.7	1456.02
802.01	684.6	1469.31
802.11	684.5	1355.6
802.21	684.4	1400.12
802.31	684.3	1476.35
802.41	684.2	1447.97
802.51	684.1	1515.36
802.61	684	1450.39
802.71	683.9	1442.98
802.81	683.8	1445.64
802.91	683.7	1394.66
803.01	683.6	1421.92
803.11	683.5	1429.44
803.21	683.4	1424.03
803.31	683.3	1419.02
803.41	683.2	1382.54
803.51	683.1	1387.83
803.61	683	1379.05
803.71	682.9	1420.07
803.81	682.8	1493.02
803.91	682.7	1440.54
804.01	682.6	1458.13
804.11	682.5	1468.78
804.21	682.4	1417.17
804.31	682.3	1410.12
804.41	682.2	1389.27
804.51	682.1	1454.43
804.61	682	1396.11
804.71	681.9	1423.63
804.81	681.8	1444.15
804.91	681.7	1457.76
805.01	681.6	1448.88
805.11	681.5	1479.3
805.21	681.4	1436.55
805.31	681.3	1424.43
805.41	681.2	1417.42
805.51	681.1	1407.83
805.61	681	1433.11
805.71	680.9	1461.3
805.81	680.8	1443.25
805.91	680.7	1476.59
806.01	680.6	1425.41
806.11	680.5	1419.66
806.21	680.4	1451.1
806.31	680.3	1401.79
806.41	680.2	1350.6
806.51	680.1	1450.51
806.61	680	1457.63
806.71	679.9	1406.57
806.81	679.8	1441.02
806.91	679.7	1438.8
807.01	679.6	1445.24
807.11	679.5	1403.09
807.21	679.4	1360.97
807.31	679.3	1426.48
807.41	679.2	1467.52
807.51	679.1	1497.47
807.61	679	1491.31
807.71	678.9	1435.36
807.81	678.8	1377.6
807.91	678.7	1480.31
808.01	678.6	1467.72
808.11	678.5	1473.26
808.21	678.4	1475.97
808.31	678.3	1545.98
808.41	678.2	1486.99
808.51	678.1	1474.57
808.61	678	1475.34
808.71	677.9	1445.52
808.81	677.8	1389.52
808.91	677.7	1462.66
809.01	677.6	1516.41
809.11	677.5	1477.38
809.21	677.4	1402.85
809.31	677.3	1435.86
809.41	677.2	1421.4
809.51	677.1	1420.51
809.61	677	1440.18
809.71	676.9	1410.55
809.81	676.8	1422.49
809.91	676.7	1438.13
810.01	676.6	1428.9
810.11	676.5	1450.67
810.21	676.4	1430.31
810.31	676.3	1480.88
810.41	676.2	1429.89
810.51	676.1	1454.06
810.61	676	1412.09
810.71	675.9	1522.6
810.81	675.8	1494.74
810.91	675.7	1415.24
811.01	675.6	1429.37
811.11	675.5	1418.78
811.21	675.4	1441.75
811.31	675.3	1460.08
811.41	675.2	1457.32
811.51	675.1	1465.92
811.61	675	1465.05
811.71	674.9	1418.02
811.81	674.8	1424.56
811.91	674.7	1423.22
812.01	674.6	1433.63
812.11	674.5	1488.46
812.21	674.4	1500.46
812.31	674.3	1446.26
812.41	674.2	1519.33
812.51	674.1	1440.06
812.61	674	1473.63
812.71	673.9	1469.26
812.81	673.8	1444.42
812.91	673.7	1462.92
813.01	673.6	1508.49
813.11	673.5	1414.55
813.21	673.4	1528.45
813.31	673.3	1428.05
813.41	673.2	1442.75
813.51	673.1	1478.41
813.61	673	1433.64
813.71	672.9	1423.81
813.81	672.8	1452.54
813.91	672.7	1475.87
814.01	672.6	1479.96
814.11	672.5	1431.19
814.21	672.4	1402.06
814.31	672.3	1465.12
814.41	672.2	1467.28
814.51	672.1	1465.61
814.61	672	1407.91
814.71	671.9	1450.3
814.81	671.8	1489.06
814.91	671.7	1492.99
815.01	671.6	1490.65
815.11	671.5	1448.48
815.21	671.4	1491.64
815.31	671.3	1483.84
815.41	671.2	1522.73
815.51	671.1	1490.22
815.61	671	1468.35
815.71	670.9	1423.51
815.81	670.8	1481.14
815.91	670.7	1485.83
816.01	670.6	1542.39
816.11	670.5	1544.05
816.21	670.4	1509.01
816.31	670.3	1510.2
816.41	670.2	1451.73
816.51	670.1	1514.62
816.61	670	1488.31
816.71	669.9	1461.5
816.81	669.8	1448.46
816.91	669.7	1432.52
817.01	669.6	1437.08
817.11	669.5	1410.8
817.21	669.4	1419.29
817.31	669.3	1447.61
817.41	669.2	1547.2
817.51	669.1	1463.46
817.61	669	1458.32
817.71	668.9	1484.84
817.81	668.8	1440.36
817.91	668.7	1472.29
818.01	668.6	1461.08
818.11	668.5	1434.1
818.21	668.4	1431.75
818.31	668.3	1490.11
818.41	668.2	1417.1
818.51	668.1	1440.65
818.61	668	1479.74
818.71	667.9	1463.13
818.81	667.8	1493.95
818.91	667.7	1448.87
819.01	667.6	1496.63
819.11	667.5	1494.81
819.21	667.4	1461.97
819.31	667.3	1473.45
819.41	667.2	1456.27
819.51	667.1	1529.43
819.61	667	1497.28
819.71	666.9	1433.33
819.81	666.8	1443.62
819.91	666.7	1479.11
820.01	666.6	1422.06
820.11	666.5	1441.28
820.21	666.4	1524.03
820.31	666.3	1569.82
820.41	666.2	1446.77
820.51	666.1	1500.95
820.61	666	1563.74
820.71	665.9	1494.32
820.81	665.8	1418.71
820.91	665.7	1397.49
821.01	665.6	1487.61
821.11	665.5	1481.36
821.21	665.4	1519.65
821.31	665.3	1471.33
821.41	665.2	1423.85
821.51	665.1	1504.96
821.61	665	1531.68
821.71	664.9	1468.23
821.81	664.8	1496.95
821.91	664.7	1458.7
822.01	664.6	1395.01
822.11	664.5	1469.26
822.21	664.4	1474.88
822.31	664.3	1473.96
822.41	664.2	1462.24
822.51	664.1	1491.13
822.61	664	1555.64
822.71	663.9	1505.06
822.81	663.8	1462.04
822.91	663.7	1493.09
823.01	663.6	1435.47
823.11	663.5	1434.62
823.21	663.4	1514.5
823.31	663.3	1427.58
823.41	663.2	1413.93
823.51	663.1	1481.01
823.61	663	1476.56
823.71	662.9	1471.34
823.81	662.8	1518.32
823.91	662.7	1426.46
824.01	662.6	1519.48
824.11	662.5	1497.16
824.21	662.4	1476.84
824.31	662.3	1530.05
824.41	662.2	1430.03
824.51	662.1	1473.58
824.61	662	1470.62
824.71	661.9	1473.74
824.81	661.8	1554.41
824.91	661.7	1482.16
825.01	661.6	1459.77
825.11	661.5	1488.79
825.21	661.4	1507.4
825.31	661.3	1461.88
825.41	661.2	1495.29
825.51	661.1	1481.23
825.61	661	1466.38
825.71	660.9	1472.42
825.81	660.8	1445.63
825.91	660.7	1493.91
826.01	660.6	1524.79
826.11	660.5	1499.2
826.21	660.4	1425.95
826.31	660.3	1518.32
826.41	660.2	1471.13
826.51	660.1	1455.98
826.61	660	1494.02
826.71	659.9	1475.8
826.81	659.8	1516.34
826.91	659.7	1479.75
827.01	659.6	1436.93
827.11	659.5	1475.97
827.21	659.4	1457.25
827.31	659.3	1488.12
827.41	659.2	1510.2
827.51	659.1	1503.21
827.61	659	1479.12
827.71	658.9	1507.06
827.81	658.8	1453.14
827.91	658.7	1532.51
828.01	658.6	1519.06
828.11	658.5	1511.77
828.21	658.4	1449.41
828.31	658.3	1480.28
828.41	658.2	1437.06
828.51	658.1	1447.13
828.61	658	1424.44
828.71	657.9	1454.28
828.81	657.8	1451.59
828.91	657.7	1491.77
829.01	657.6	1562.97
829.11	657.5	1507.38
829.21	657.4	1538.39
829.31	657.3	1474.56
829.41	657.2	1477.34
829.51	657.1	1440.48
829.61	657	1539.65
829.71	656.9	1518.36
829.81	656.8	1525.64
829.91	656.7	1530.31
830.01	656.6	1503.78
830.11	656.5	1525.19
830.21	656.4	1534.9
830.31	656.3	1469.1
830.41	656.2	1450.38
830.51	656.1	1452.55
830.61	656	1468.72
830.71	655.9	1440.3
830.81	655.8	1489.04
830.91	655.7	1433.38
831.01	655.6	1533.58
831.11	655.5	1507.12
831.21	655.4	1458.03
831.31	655.3	1484.67
831.41	655.2	1433.01
831.51	655.1	1459.71
831.61	655	1451.12
831.71	654.9	1407.19
831.81	654.8	1499.7
831.91	654.7	1491.74
832.01	654.6	1486.98
832.11	654.5	1458.95
832.21	654.4	1459.79
832.31	654.3	1441.69
832.41	654.2	1464.3
832.51	654.1	1512.93
832.61	654	1504.81
832.71	653.9	1468.85
832.81	653.8	1451.18
832.91	653.7	1496.56
833.01	653.6	1504.86
833.11	653.5	1394.56
833.21	653.4	1422.67
833.31	653.3	1427.01
833.41	653.2	1474.11
833.51	653.1	1448.02
833.61	653	1400.59
833.71	652.9	1462.39
833.81	652.8	1439.73
833.91	652.7	1385.47
834.01	652.6	1370.64
834.11	652.5	1441.64
834.21	652.4	1421.35
834.31	652.3	1500.75
834.41	652.2	1466.52
834.51	652.1	1465.03
834.61	652	1400.36
834.71	651.9	1410.27
834.81	651.8	1444.97
834.91	651.7	1435.14
835.01	651.6	1400.21
835.11	651.5	1406.21
835.21	651.4	1403.58
835.31	651.3	1407.72
835.41	651.2	1397.82
835.51	651.1	1462.13
835.61	651	1420.5
835.71	650.9	1422.74
835.81	650.8	1449.74
835.91	650.7	1446.17
836.01	650.6	1457.84
836.11	650.5	1463.15
836.21	650.4	1380.32
836.31	650.3	1372.79
836.41	650.2	1441.22
836.51	650.1	1435.56
836.61	650	1468.16
836.71	649.9	1434.57
836.81	649.8	1412.37
836.91	649.7	1411.97
837.01	649.6	1430.17
837.11	649.5	1434.81
837.21	649.4	1373.41
837.31	649.3	1426.72
837.41	649.2	1426.95
837.51	649.1	1423.12
837.61	649	1413.69
837.71	648.9	1411.26
837.81	648.8	1491.46
837.91	648.7	1467.96
838.01	648.6	1468.97
838.11	648.5	1464.64
838.21	648.4	1452.04
838.31	648.3	1490.67
838.41	648.2	1492.18
838.51	648.1	1486.81
838.61	648	1504.35
838.71	647.9	1448.08
838.81	647.8	1491.55
838.91	647.7	1516.92
839.01	647.6	1476.42
839.11	647.5	1525.63
839.21	647.4	1512.29
839.31	647.3	1505.16
839.41	647.2	1490.23
839.51	647.1	1475.1
839.61	647	1504.1
839.71	646.9	1549.87
839.81	646.8	1528.81
839.91	646.7	1485.78
840.01	646.6	1532.38
840.11	646.5	1573.85
840.21	646.4	1525.11
840.31	646.3	1484.92
840.41	646.2	1517.39
840.51	646.1	1594.39
840.61	646	1589.62
840.71	645.9	1605.62
840.81	645.8	1561.76
840.91	645.7	1558.76
841.01	645.6	1590.16
841.11	645.5	1636.73
841.21	645.4	1663.27
841.31	645.3	1592.87
841.41	645.2	1585.77
841.51	645.1	1653.41
841.61	645	1670.47
841.71	644.9	1655.08
841.81	644.8	1660.61
841.91	644.7	1639.65
842.01	644.6	1695.08
842.11	644.5	1663.75
842.21	644.4	1649.05
842.31	644.3	1622.15
842.41	644.2	1601.82
842.51	644.1	1708.72
842.61	644	1722.79
842.71	643.9	1670.99
842.81	643.8	1760.23
842.91	643.7	1727.76
843.01	643.6	1662.9
843.11	643.5	1717.23
843.21	643.4	1693.84
843.31	643.3	1647.07
843.41	643.2	1706.01
843.51	643.1	1675.31
843.61	643	1664.41
843.71	642.9	1787.05
843.81	642.8	1718.78
843.91	642.7	1738.25
844.01	642.6	1730.85
844.11	642.5	1705.89
844.21	642.4	1769.15
844.31	642.3	1803.72
844.41	642.2	1763.56
844.51	642.1	1733.86
844.61	642	1718.6
844.71	641.9	1743.6
844.81	641.8	1752.9
844.91	641.7	1671.5
845.01	641.6	1655.14
845.11	641.5	1668.74
845.21	641.4	1659.94
845.31	641.3	1735.38
845.41	641.2	1685.51
845.51	641.1	1650.61
845.61	641	1647.62
845.71	640.9	1619.65
845.81	640.8	1681.22
845.91	640.7	1677.42
846.01	640.6	1601.96
846.11	640.5	1592.73
846.21	640.4	1632.6
846.31	640.3	1587.77
846.41	640.2	1568.07
846.51	640.1	1550.14
846.61	640	1472.44
846.71	639.9	1566.51
846.81	639.8	1500.45
846.91	639.7	1536.21
847.01	639.6	1500.18
847.11	639.5	1528.92
847.21	639.4	1493.09
847.31	639.3	1458.86
847.41	639.2	1436.63
847.51	639.1	1464.3
847.61	639	1443.67
847.71	638.9	1477
847.81	638.8	1465.81
847.91	638.7	1489.34
848.01	638.6	1518.31
848.11	638.5	1375.78
848.21	638.4	1451.25
848.31	638.3	1428.29
848.41	638.2	1392.79
848.51	638.1	1471.99
848.61	638	1341.36
848.71	637.9	1371.67
848.81	637.8	1399.9
848.91	637.7	1390.67
849.01	637.6	1377.78
849.11	637.5	1375.81
849.21	637.4	1335.22
849.31	637.3	1304.62
849.41	637.2	1383.82
849.51	637.1	1349.19
849.61	637	1396.06
849.71	636.9	1346.03
849.81	636.8	1366.54
849.91	636.7	1403.41
850.01	636.6	1301.15
850.11	636.5	1313.32
850.21	636.4	1392.85
850.31	636.3	1375.89
850.41	636.2	1304.76
850.51	636.1	1311.17
850.61	636	1359.67
850.71	635.9	1258.21
850.81	635.8	1281.15
850.91	635.7	1301.85
851.01	635.6	1304.42
851.11	635.5	1249.83
851.21	635.4	1274.6
851.31	635.3	1292.93
851.41	635.2	1278.47
851.51	635.1	1272.68
851.61	635	1281.38
851.71	634.9	1349.99
851.81	634.8	1315.43
851.91	634.7	1349.36
852.01	634.6	1290.37
852.11	634.5	1322.31
852.21	634.4	1329.41
852.31	634.3	1320.32
852.41	634.2	1270.02
852.51	634.1	1345.46
852.61	634	1277.27
852.71	633.9	1301.14
852.81	633.8	1269.75
852.91	633.7	1312.45
853.01	633.6	1363.56
853.11	633.5	1283.73
853.21	633.4	1270.4
853.31	633.3	1216.78
853.41	633.2	1254.18
853.51	633.1	1349.89
853.61	633	1272.73
853.71	632.9	1283.7
853.81	632.8	1215.41
853.91	632.7	1286.91
854.01	632.6	1288.62
854.11	632.5	1276.49
854.21	632.4	1239.93
854.31	632.3	1241.94
854.41	632.2	1280.25
854.51	632.1	1267.92
854.61	632	1241.96
854.71	631.9	1226.57
854.81	631.8	1330.91
854.91	631.7	1324.65
855.01	631.6	1238.92
855.11	631.5	1192.9
855.21	631.4	1198.27
855.31	631.3	1219.05
855.41	631.2	1248.75
855.51	631.1	1259.4
855.61	631	1295.04
855.71	630.9	1281.08
855.81	630.8	1266.65
855.91	630.7	1235.2
856.01	630.6	1218.64
856.11	630.5	1203.68
856.21	630.4	1200.42
856.31	630.3	1258.33
856.41	630.2	1258.41
856.51	630.1	1268.88
856.61	630	1224.39
856.71	629.9	1216.07
856.81	629.8	1176.47
856.91	629.7	1179.05
857.01	629.6	1263.66
857.11	629.5	1299.6
857.21	629.4	1218.38
857.31	629.3	1256.19
857.41	629.2	1203.53
857.51	629.1	1274.94
857.61	629	1256.32
857.71	628.9	1254.46
857.81	628.8	1274.14
857.91	628.7	1230.88
858.01	628.6	1202.66
858.11	628.5	1212.03
858.21	628.4	1200.54
858.31	628.3	1274.35
858.41	628.2	1234.53
858.51	628.1	1257.44
858.61	628	1199.28
858.71	627.9	1225.7
858.81	627.8	1237.61
858.91	627.7	1239.95
859.01	627.6	1256.76
859.11	627.5	1224.04
859.21	627.4	1311.62
859.31	627.3	1268.59
859.41	627.2	1215.34
859.51	627.1	1239.55
859.61	627	1184.03
859.71	626.9	1186.47
859.81	626.8	1156.08
859.91	626.7	1189.36
860.01	626.6	1231.7
860.11	626.5	1195.41
860.21	626.4	1234.52
860.31	626.3	1186.07
860.41	626.2	1201.65
860.51	626.1	1258.43
860.61	626	1202.47
860.71	625.9	1200.18
860.81	625.8	1246.93
860.91	625.7	1231.17
861.01	625.6	1265.32
861.11	625.5	1233.56
861.21	625.4	1176.44
861.31	625.3	1187.72
861.41	625.2	1235.79
861.51	625.1	1321.51
861.61	625	1245.58
861.71	624.9	1229.46
861.81	624.8	1206.57
861.91	624.7	1299.78
862.01	624.6	1227.13
862.11	624.5	1217.17
862.21	624.4	1248.29
862.31	624.3	1266.33
862.41	624.2	1302.88
862.51	624.1	1279.15
862.61	624	1239.93
862.71	623.9	1228.98
862.81	623.8	1226.02
862.91	623.7	1218.23
863.01	623.6	1171.08
863.11	623.5	1211.69
863.21	623.4	1221.5
863.31	623.3	1237.65
863.41	623.2	1215.56
863.51	623.1	1262.94
863.61	623	1193.21
863.71	622.9	1151.62
863.81	622.8	1272.54
863.91	622.7	1222.28
864.01	622.6	1248.56
864.11	622.5	1170.37
864.21	622.4	1220.11
864.31	622.3	1231.79
864.41	622.2	1264.9
864.51	622.1	1279.11
864.61	622	1258.13
864.71	621.9	1241.44
864.81	621.8	1197.65
864.91	621.7	1291.49
865.01	621.6	1227.74
865.11	621.5	1187.55
865.21	621.4	1224.82
865.31	621.3	1260.37
865.41	621.2	1248.41
865.51	621.1	1229.66
865.61	621	1207.3
865.71	620.9	1204.05
865.81	620.8	1148.82
865.91	620.7	1153.63
866.01	620.6	1218.94
866.11	620.5	1231.55
866.21	620.4	1225.16
866.31	620.3	1214.51
866.41	620.2	1208.45
866.51	620.1	1285.16
866.61	620	1237.21
866.71	619.9	1187.75
866.81	619.8	1185.39
866.91	619.7	1255.77
867.01	619.6	1290.18
867.11	619.5	1241.32
867.21	619.4	1221.7
867.31	619.3	1261.51
867.41	619.2	1186.15
867.51	619.1	1252.33
867.61	619	1276.17
867.71	618.9	1240.38
867.81	618.8	1281.96
867.91	618.7	1228.7
868.01	618.6	1243.47
868.11	618.5	1236.25
868.21	618.4	1220.92
868.31	618.3	1262.73
868.41	618.2	1211.41
868.51	618.1	1281.65
868.61	618	1340.59
868.71	617.9	1260.97
868.81	617.8	1191.21
868.91	617.7	1216.85
869.01	617.6	1225.26
869.11	617.5	1297.63
869.21	617.4	1286.54
869.31	617.3	1355.85
869.41	617.2	1234.62
869.51	617.1	1231.43
869.61	617	1206.07
869.71	616.9	1213.61
869.81	616.8	1280.25
869.91	616.7	1330.76
870.01	616.6	1278.5
870.11	616.5	1258.24
870.21	616.4	1253.02
870.31	616.3	1235.29
870.41	616.2	1225.03
870.51	616.1	1230.37
870.61	616	1239.27
870.71	615.9	1237.61
870.81	615.8	1205.72
870.91	615.7	1264.43
871.01	615.6	1243.67
871.11	615.5	1207.34
871.21	615.4	1179.98
871.31	615.3	1275.05
871.41	615.2	1269.39
871.51	615.1	1269.66
871.61	615	1199.93
871.71	614.9	1245.37
871.81	614.8	1249.24
871.91	614.7	1258.04
872.01	614.6	1237.92
872.11	614.5	1230.72
872.21	614.4	1291.66
872.31	614.3	1301.76
872.41	614.2	1262.87
872.51	614.1	1297.2
872.61	614	1216.11
872.71	613.9	1272.74
872.81	613.8	1199.51
872.91	613.7	1242.68
873.01	613.6	1264.59
873.11	613.5	1278.92
873.21	613.4	1271.29
873.31	613.3	1277.53
873.41	613.2	1232.26
873.51	613.1	1229.56
873.61	613	1284.3
873.71	612.9	1261.83
873.81	612.8	1255.27
873.91	612.7	1266.94
874.01	612.6	1329.74
874.11	612.5	1249.64
874.21	612.4	1286.11
874.31	612.3	1280.51
874.41	612.2	1198.64
874.51	612.1	1172.11
874.61	612	1233.34
874.71	611.9	1254.34
874.81	611.8	1220.97
874.91	611.7	1283.01
875.01	611.6	1261.84
875.11	611.5	1222.91
875.21	611.4	1291.27
875.31	611.3	1241.7
875.41	611.2	1272.87
875.51	611.1	1354.6
875.61	611	1311.6
875.71	610.9	1343.66
875.81	610.8	1282.36
875.91	610.7	1248.39
876.01	610.6	1257.86
876.11	610.5	1243.95
876.21	610.4	1249.48
876.31	610.3	1239.58
876.41	610.2	1289.21
876.51	610.1	1335.31
876.61	610	1321.07
876.71	609.9	1323.36
876.81	609.8	1264.63
876.91	609.7	1275.49
877.01	609.6	1273.55
877.11	609.5	1362.11
877.21	609.4	1220.87
877.31	609.3	1250.47
877.41	609.2	1228.33
877.51	609.1	1203.86
877.61	609	1345.08
877.71	608.9	1337.48
877.81	608.8	1273.9
877.91	608.7	1313.4
878.01	608.6	1360.09
878.11	608.5	1342.81
878.21	608.4	1268.27
878.31	608.3	1294.07
878.41	608.2	1308.39
878.51	608.1	1314.82
878.61	608	1348.94
878.71	607.9	1269.17
878.81	607.8	1216.46
878.91	607.7	1242.45
879.01	607.6	1291.77
879.11	607.5	1253.59
879.21	607.4	1259.05
879.31	607.3	1283.54
879.41	607.2	1268.53
879.51	607.1	1249.69
879.61	607	1251.47
879.71	606.9	1272.1
879.81	606.8	1292.85
879.91	606.7	1281.01
880.01	606.6	1246.76
880.11	606.5	1351.05
880.21	606.4	1352.47
880.31	606.3	1273.99
880.41	606.2	1259.67
880.51	606.1	1288.56
880.61	606	1273.98
880.71	605.9	1281.73
880.81	605.8	1239.72
880.91	605.7	1228.54
881.01	605.6	1304.46
881.11	605.5	1339.61
881.21	605.4	1297.46
881.31	605.3	1266.24
881.41	605.2	1265.03
881.51	605.1	1340.88
881.61	605	1292.83
881.71	604.9	1217.74
881.81	604.8	1244.26
881.91	604.7	1359.27
882.01	604.6	1308.49
882.11	604.5	1297.94
882.21	604.4	1321.39
882.31	604.3	1271.53
882.41	604.2	1301.41
882.51	604.1	1258.2
882.61	604	1321.44
882.71	603.9	1295.09
882.81	603.8	1299.07
882.91	603.7	1309.95
883.01	603.6	1275.79
883.11	603.5	1338.34
883.21	603.4	1290.78
883.31	603.3	1327.83
883.41	603.2	1239.34
883.51	603.1	1257.65
883.61	603	1287.43
883.71	602.9	1330.24
883.81	602.8	1295.31
883.91	602.7	1297.76
884.01	602.6	1344.1
884.11	602.5	1305.54
884.21	602.4	1326.75
884.31	602.3	1293.56
884.41	602.2	1358.2
884.51	602.1	1294.77
884.61	602	1294.85
884.71	601.9	1284.75
884.81	601.8	1360.16
884.91	601.7	1329.93
885.01	601.6	1289.1
885.11	601.5	1285.48
885.21	601.4	1280.58
885.31	601.3	1265.92
885.41	601.2	1268.06
885.51	601.1	1304.93
885.61	601	1280.3
885.71	600.9	1364.93
885.81	600.8	1333.07
885.91	600.7	1292.47
886.01	600.6	1283.28
886.11	600.5	1336.98
886.21	600.4	1275.81
886.31	600.3	1250.08
886.41	600.2	1332.88
886.51	600.1	1199.18
886.61	600	1229.51
886.71	599.9	1341.88
886.81	599.8	1307.08
886.91	599.7	1248.88
887.01	599.6	1259.18
887.11	599.5	1358.18
887.21	599.4	1390.84
887.31	599.3	1308.67
887.41	599.2	1321.63
887.51	599.1	1286.36
887.61	599	1302.06
887.71	598.9	1382.16
887.81	598.8	1325.65
887.91	598.7	1237.01
888.01	598.6	1328.87
888.11	598.5	1333.5
888.21	598.4	1314.56
888.31	598.3	1294.49
888.41	598.2	1263.42
888.51	598.1	1301.21
888.61	598	1330.87
888.71	597.9	1347.96
888.81	597.8	1231.78
888.91	597.7	1283.21
889.01	597.6	1255.93
889.11	597.5	1256.39
889.21	597.4	1301.78
889.31	597.3	1330.97
889.41	597.2	1349.09
889.51	597.1	1285.88
889.61	597	1352.83
889.71	596.9	1328.32
889.81	596.8	1346.14
889.91	596.7	1293.63
890.01	596.6	1294.72
890.11	596.5	1315.34
890.21	596.4	1300.09
890.31	596.3	1350.44
890.41	596.2	1338.12
890.51	596.1	1334.88
890.61	596	1335.06
890.71	595.9	1329.61
890.81	595.8	1333.43
890.91	595.7	1357.21
891.01	595.6	1309.52
891.11	595.5	1328.84
891.21	595.4	1268.95
891.31	595.3	1285.23
891.41	595.2	1359.31
891.51	595.1	1332.03
891.61	595	1325.07
891.71	594.9	1353.95
891.81	594.8	1326.37
891.91	594.7	1292.51
892.01	594.6	1274.55
892.11	594.5	1287.23
892.21	594.4	1376.68
892.31	594.3	1344.99
892.41	594.2	1252.93
892.51	594.1	1260.7
892.61	594	1340.24
892.71	593.9	1320.45
892.81	593.8	1307.49
892.91	593.7	1319.53
893.01	593.6	1316.31
893.11	593.5	1341.48
893.21	593.4	1401.12
893.31	593.3	1377.52
893.41	593.2	1424.53
893.51	593.1	1430.3
893.61	593	1381.54
893.71	592.9	1291.07
893.81	592.8	1276.91
893.91	592.7	1289.61
894.01	592.6	1263.91
894.11	592.5	1306.58
894.21	592.4	1349.41
894.31	592.3	1342.85
894.41	592.2	1351.25
894.51	592.1	1357.31
894.61	592	1357.55
894.71	591.9	1289.38
894.81	591.8	1268.37
894.91	591.7	1262.44
895.01	591.6	1310.8
895.11	591.5	1342.8
895.21	591.4	1367.53
895.31	591.3	1280.26
895.41	591.2	1310.68
895.51	591.1	1330.85
895.61	591	1365.44
895.71	590.9	1323.8
895.81	590.8	1342.39
895.91	590.7	1319.25
896.01	590.6	1272.04
896.11	590.5	1279.27
896.21	590.4	1306.19
896.31	590.3	1261.65
896.41	590.2	1330.37
896.51	590.1	1396.03
896.61	590	1379.82
896.71	589.9	1358.84
896.81	589.8	1358.39
896.91	589.7	1267.71
897.01	589.6	1341.8
897.11	589.5	1325.05
897.21	589.4	1344.67
897.31	589.3	1317.02
897.41	589.2	1315.6
897.51	589.1	1326.29
897.61	589	1298.91
897.71	588.9	1260.19
897.81	588.8	1287.24
897.91	588.7	1295.82
898.01	588.6	1386.17
898.11	588.5	1358.21
898.21	588.4	1327.76
898.31	588.3	1355.87
898.41	588.2	1348.95
898.51	588.1	1328.4
898.61	588	1399.71
898.71	587.9	1322.92
898.81	587.8	1355.46
898.91	587.7	1341.57
899.01	587.6	1337.88
899.11	587.5	1343.86
899.21	587.4	1379.8
899.31	587.3	1379
899.41	587.2	1323.81
899.51	587.1	1380.55
899.61	587	1380.66
899.71	586.9	1312.26
899.81	586.8	1258.33
899.91	586.7	1316.44
900.01	586.6	1238.47
900.11	586.5	1325.44
900.21	586.4	1381.14
900.31	586.3	1409.51
900.41	586.2	1274.45
900.51	586.1	1362.81
900.61	586	1372.08
900.71	585.9	1406.28
900.81	585.8	1297.11
900.91	585.7	1311.78
901.01	585.6	1323.37
901.11	585.5	1305.44
901.21	585.4	1330.37
901.31	585.3	1433.9
901.41	585.2	1360.76
901.51	585.1	1339.75
901.61	585	1351.68
901.71	584.9	1426.47
901.81	584.8	1437.13
901.91	584.7	1382.96
902.01	584.6	1333.65
902.11	584.5	1326.17
902.21	584.4	1314
902.31	584.3	1366.32
902.41	584.2	1298.61
902.51	584.1	1349.56
902.61	584	1388.98
902.71	583.9	1383.9
902.81	583.8	1403.56
902.91	583.7	1390.74
903.01	583.6	1401.83
903.11	583.5	1483.05
903.21	583.4	1384.2
903.31	583.3	1360.28
903.41	583.2	1374.8
903.51	583.1	1389.58
903.61	583	1374.59
903.71	582.9	1322.51
903.81	582.8	1344.82
903.91	582.7	1361.64
904.01	582.6	1351.95
904.11	582.5	1304.16
904.21	582.4	1351.14
904.31	582.3	1420.11
904.41	582.2	1399.96
904.51	582.1	1397.57
904.61	582	1361.41
904.71	581.9	1380.42
904.81	581.8	1348.89
904.91	581.7	1273.63
905.01	581.6	1357.54
905.11	581.5	1417.57
905.21	581.4	1345.55
905.31	581.3	1347.05
905.41	581.2	1353.15
905.51	581.1	1296.02
905.61	581	1378.02
905.71	580.9	1368.56
905.81	580.8	1326.96
905.91	580.7	1340.39
906.01	580.6	1358.89
906.11	580.5	1335.66
906.21	580.4	1373.16
906.31	580.3	1412.22
906.41	580.2	1345.62
906.51	580.1	1335.35
906.61	580	1379.37
906.71	579.9	1349.17
906.81	579.8	1361
906.91	579.7	1401.42
907.01	579.6	1300.68
907.11	579.5	1329.14
907.21	579.4	1320.67
907.31	579.3	1312.62
907.41	579.2	1382.71
907.51	579.1	1339.93
907.61	579	1348.19
907.71	578.9	1379.08
907.81	578.8	1380.66
907.91	578.7	1357.52
908.01	578.6	1406.3
908.11	578.5	1377.42
908.21	578.4	1382.81
908.31	578.3	1366.09
908.41	578.2	1309.84
908.51	578.1	1360.85
908.61	578	1356.04
908.71	577.9	1359.15
908.81	577.8	1388.26
908.91	577.7	1334.04
909.01	577.6	1389.09
909.11	577.5	1310.03
909.21	577.4	1359.68
909.31	577.3	1346.72
909.41	577.2	1403.1
909.51	577.1	1367.24
909.61	577	1391.84
909.71	576.9	1419.98
909.81	576.8	1357.59
909.91	576.7	1335.43
910.01	576.6	1359.07
910.11	576.5	1357.97
910.21	576.4	1468.58
910.31	576.3	1353.88
910.41	576.2	1364.28
910.51	576.1	1426.11
910.61	576	1353.91
910.71	575.9	1302.35
910.81	575.8	1366.68
910.91	575.7	1386.11
911.01	575.6	1447.58
911.11	575.5	1417.17
911.21	575.4	1413.7
911.31	575.3	1342.3
911.41	575.2	1317.99
911.51	575.1	1343.65
911.61	575	1415.31
911.71	574.9	1374.5
911.81	574.8	1365.79
911.91	574.7	1378.95
912.01	574.6	1361.61
912.11	574.5	1306.73
912.21	574.4	1332.92
912.31	574.3	1415.91
912.41	574.2	1465.56
912.51	574.1	1296.71
912.61	574	1231.4
912.71	573.9	1402.55
912.81	573.8	1402.87
912.91	573.7	1388.55
913.01	573.6	1354.1
913.11	573.5	1341.01
913.21	573.4	1418.39
913.31	573.3	1365.57
913.41	573.2	1409.09
913.51	573.1	1381.36
913.61	573	1467.64
913.71	572.9	1376.52
913.81	572.8	1292.16
913.91	572.7	1392.6
914.01	572.6	1438.91
914.11	572.5	1393.25
914.21	572.4	1421.29
914.31	572.3	1366.23
914.41	572.2	1373.17
914.51	572.1	1416.64
914.61	572	1432.04
914.71	571.9	1402.41
914.81	571.8	1299.84
914.91	571.7	1374.41
915.01	571.6	1410.81
915.11	571.5	1334.08
915.21	571.4	1416.01
915.31	571.3	1376.17
915.41	571.2	1386.83
915.51	571.1	1346.8
915.61	571	1342.39
915.71	570.9	1290.29
915.81	570.8	1366.88
915.91	570.7	1398.07
916.01	570.6	1356.5
916.11	570.5	1345.89
916.21	570.4	1391.28
916.31	570.3	1362.33
916.41	570.2	1365.42
916.51	570.1	1313.18
916.61	570	1325.36
916.71	569.9	1340.15
916.81	569.8	1316.63
916.91	569.7	1426.98
917.01	569.6	1426.2
917.11	569.5	1335.48
917.21	569.4	1280.47
917.31	569.3	1256.75
917.41	569.2	1362.93
917.51	569.1	1351.01
917.61	569	1324.28
917.71	568.9	1349.39
917.81	568.8	1413.27
917.91	568.7	1335.55
918.01	568.6	1349.82
918.11	568.5	1362.43
918.21	568.4	1342.97
918.31	568.3	1356.51
918.41	568.2	1374.25
918.51	568.1	1344.75
918.61	568	1327.35
918.71	567.9	1382.59
918.81	567.8	1357.79
918.91	567.7	1347.89
919.01	567.6	1337.92
919.11	567.5	1306.66
919.21	567.4	1299.85
919.31	567.3	1317.35
919.41	567.2	1308.25
919.51	567.1	1342.34
919.61	567	1403
919.71	566.9	1362.33
919.81	566.8	1393.89
919.91	566.7	1429.45
920.01	566.6	1343.37
920.11	566.5	1295.36
920.21	566.4	1260.59
920.31	566.3	1314.67
920.41	566.2	1315.26
920.51	566.1	1267.18
920.61	566	1272.67
920.71	565.9	1334.88
920.81	565.8	1384.4
920.91	565.7	1325.35
921.01	565.6	1370.97
921.11	565.5	1377.98
921.21	565.4	1351.63
921.31	565.3	1359.47
921.41	565.2	1333.75
921.51	565.1	1357.46
921.61	565	1346.91
921.71	564.9	1344.05
921.81	564.8	1348.89
921.91	564.7	1277.6
922.01	564.6	1243.57
922.11	564.5	1316.01
922.21	564.4	1326.48
922.31	564.3	1372.22
922.41	564.2	1353.25
922.51	564.1	1299.89
922.61	564	1336.92
922.71	563.9	1395.76
922.81	563.8	1354.19
922.91	563.7	1319.49
923.01	563.6	1425.29
923.11	563.5	1411.12
923.21	563.4	1397.15
923.31	563.3	1441.44
923.41	563.2	1472.37
923.51	563.1	1424.83
923.61	563	1408.72
923.71	562.9	1349.98
923.81	562.8	1312.5
923.91	562.7	1402.73
924.01	562.6	1371.45
924.11	562.5	1335.04
924.21	562.4	1388.06
924.31	562.3	1444.48
924.41	562.2	1397.2
924.51	562.1	1475.05
924.61	562	1384.97
924.71	561.9	1385.32
924.81	561.8	1434.07
924.91	561.7	1435.88
925.01	561.6	1440.09
925.11	561.5	1446.24
925.21	561.4	1474.82
925.31	561.3	1408.83
925.41	561.2	1413.47
925.51	561.1	1417.72
925.61	561	1418.53
925.71	560.9	1452.9
925.81	560.8	1468.04
925.91	560.7	1429.58
926.01	560.6	1534.92
926.11	560.5	1439.09
926.21	560.4	1431.53
926.31	560.3	1393
926.41	560.2	1385.43
926.51	560.1	1401.1
926.61	560	1453.94
926.71	559.9	1394.4
926.81	559.8	1346.97
926.91	559.7	1374.77
927.01	559.6	1458.4
927.11	559.5	1415.36
927.21	559.4	1341.92
927.31	559.3	1332.18
927.41	559.2	1301.28
927.51	559.1	1238
927.61	559	1291.8
927.71	558.9	1291.92
927.81	558.8	1245.68
927.91	558.7	1252.47
928.01	558.6	1273.59
928.11	558.5	1223.88
928.21	558.4	1231.07
928.31	558.3	1204.06
928.41	558.2	1247.04
928.51	558.1	1191.06
928.61	558	1249.11
928.71	557.9	1257.03
928.81	557.8	1142.41
928.91	557.7	1189.13
929.01	557.6	1144.81
929.11	557.5	1192.85
929.21	557.4	1166.63
929.31	557.3	1205.01
929.41	557.2	1144.59
929.51	557.1	1123.44
929.61	557	1017.01
929.71	556.9	1063.99
929.81	556.8	1049.8
929.91	556.7	1138.4
930.01	556.6	1123.31
930.11	556.5	1124.22
930.21	556.4	1032.59
930.31	556.3	1081.46
930.41	556.2	1119.43
930.51	556.1	1070.53
930.61	556	1035.3
930.71	555.9	1083.14
930.81	555.8	1114.44
930.91	555.7	1085.3
931.01	555.6	1034.94
931.11	555.5	1011.93
931.21	555.4	1014
931.31	555.3	955.163
931.41	555.2	1035.73
931.51	555.1	1036.45
931.61	555	1039.15
931.71	554.9	1066.84
931.81	554.8	1089.57
931.91	554.7	1043.63
932.01	554.6	1055.95
932.11	554.5	1022.51
932.21	554.4	1000.6
932.31	554.3	1029.99
932.41	554.2	1010.61
932.51	554.1	972.1
932.61	554	1046.22
932.71	553.9	1004.27
932.81	553.8	1040.13
932.91	553.7	1099.58
933.01	553.6	1106.1
933.11	553.5	1032.31
933.21	553.4	963.395
933.31	553.3	977.81
933.41	553.2	1069.29
933.51	553.1	1016.41
933.61	553	1059.65
933.71	552.9	1040.9
933.81	552.8	1005.41
933.91	552.7	1064.85
934.01	552.6	1057.7
934.11	552.5	1114.54
934.21	552.4	1057.28
934.31	552.3	1093.69
934.41	552.2	1060
934.51	552.1	1076.9
934.61	552	1100.88
934.71	551.9	1124.95
934.81	551.8	1201.69
934.91	551.7	1148.26
935.01	551.6	1236.39
935.11	551.5	1193.8
935.21	551.4	1172.7
935.31	551.3	1174.8
935.41	551.2	1213.37
935.51	551.1	1240.13
935.61	551	1338.83
935.71	550.9	1288
935.81	550.8	1306.69
935.91	550.7	1318.09
936.01	550.6	1324.52
936.11	550.5	1298.22
936.21	550.4	1341.88
936.31	550.3	1388.44
936.41	550.2	1410.8
936.51	550.1	1353.53
936.61	550	1442.75
936.71	549.9	1452.34
936.81	549.8	1476.57
936.91	549.7	1530.89
937.01	549.6	1508.28
937.11	549.5	1602.53
937.21	549.4	1621.09
937.31	549.3	1648.18
937.41	549.2	1775.83
937.51	549.1	1818.72
937.61	549	1812.17
937.71	548.9	1837.29
937.81	548.8	1811.67
937.91	548.7	1854.72
938.01	548.6	1938.8
938.11	548.5	1951.05
938.21	548.4	2035.7
938.31	548.3	2107.85
938.41	548.2	2168.33
938.51	548.1	2213.17
938.61	548	2189.55
938.71	547.9	2256.1
938.81	547.8	2340.81
938.91	547.7	2312.92
939.01	547.6	2397.23
939.11	547.5	2441.57
939.21	547.4	2529.04
939.31	547.3	2543.32
939.41	547.2	2560.96
939.51	547.1	2625.5
939.61	547	2614.94
939.71	546.9	2657.44
939.81	546.8	2592.38
939.91	546.7	2682.08
940.01	546.6	2672.58
940.11	546.5	2639.45
940.21	546.4	2713.39
940.31	546.3	2684.09
940.41	546.2	2683.09
940.51	546.1	2593.36
940.61	546	2630.52
940.71	545.9	2605.92
940.81	545.8	2557.65
940.91	545.7	2510.18
941.01	545.6	2415.58
941.11	545.5	2377.91
941.21	545.4	2461.01
941.31	545.3	2271.5
941.41	545.2	2250.26
941.51	545.1	2205.79
941.61	545	2118.01
941.71	544.9	2070.44
941.81	544.8	2116.13
941.91	544.7	1987.96
942.01	544.6	1845.95
942.11	544.5	1846.6
942.21	544.4	1835.79
942.31	544.3	1757.01
942.41	544.2	1681.67
942.51	544.1	1595.59
942.61	544	1502.08
942.71	543.9	1521.16
942.81	543.8	1469.42
942.91	543.7	1378.33
943.01	543.6	1344.12
943.11	543.5	1326.24
943.21	543.4	1274.15
943.31	543.3	1201.04
943.41	543.2	1237.32
943.51	543.1	1165.1
943.61	543	1132.88
943.71	542.9	1065.43
943.81	542.8	1030.54
943.91	542.7	968.087
944.01	542.6	961.099
944.11	542.5	933.244
944.21	542.4	949.222
944.31	542.3	1003.77
944.41	542.2	932.275
944.51	542.1	870.617
944.61	542	912.459
944.71	541.9	826.134
944.81	541.8	826.775
944.91	541.7	765.815
945.01	541.6	717.721
945.11	541.5	673.994
945.21	541.4	663.299
945.31	541.3	678.037
945.41	541.2	702.974
945.51	541.1	720.877
945.61	541	671.414
945.71	540.9	657.716
945.81	540.8	676.585
945.91	540.7	642.552
946.01	540.6	594.953
946.11	540.5	494.153
946.21	540.4	517.953
946.31	540.3	622.519
946.41	540.2	606.217
946.51	540.1	582.982
946.61	540	519.612
946.71	539.9	526.309
946.81	539.8	458.205
946.91	539.7	470.235
947.01	539.6	448.796
947.11	539.5	495.491
947.21	539.4	505.085
947.31	539.3	480.012
947.41	539.2	443.805
947.51	539.1	446.631
947.61	539	423.423
947.71	538.9	408.581
947.81	538.8	356.572
947.91	538.7	374.563
948.01	538.6	362.686
948.11	538.5	367.109
948.21	538.4	344.131
948.31	538.3	366.686
948.41	538.2	385.107
948.51	538.1	341.861
948.61	538	363.114
948.71	537.9	272.001
948.81	537.8	363.12
948.91	537.7	290.638
949.01	537.6	309.323
949.11	537.5	308.141
949.21	537.4	308.124
949.31	537.3	330.941
949.41	537.2	347.59
949.51	537.1	392.506
949.61	537	318.921
949.71	536.9	355.169
949.81	536.8	288.716
949.91	536.7	342.496
950.01	536.6	248.042
950.11	536.5	296.555
950.21	536.4	316.134
950.31	536.3	263.545
950.41	536.2	277.656
950.51	536.1	295.133
950.61	536	315.41
950.71	535.9	271.353
950.81	535.8	269.562
950.91	535.7	209.537
951.01	535.6	254.279
951.11	535.5	209.72
951.21	535.4	194.194
951.31	535.3	182.6
951.41	535.2	207.506
951.51	535.1	316.545
951.61	535	277.517
951.71	534.9	190.122
951.81	534.8	284.06
951.91	534.7	313.963
952.01	534.6	310.767
952.11	534.5	276.236
952.21	534.4	234.505
952.31	534.3	206.307
952.41	534.2	252.509
952.51	534.1	245.243
952.61	534	266.444
952.71	533.9	251.177
952.81	533.8	243.177
952.91	533.7	261.176
953.01	533.6	261.274
953.11	533.5	246.106
953.21	533.4	274.237
953.31	533.3	265.735
953.41	533.2	249.365
953.51	533.1	270.494
953.61	533	370.057
953.71	532.9	323.686
953.81	532.8	258.748
953.91	532.7	247.309
954.01	532.6	236.737
954.11	532.5	247.83
954.21	532.4	217.424
954.31	532.3	302.65
954.41	532.2	311.376
954.51	532.1	268.034
954.61	532	246.959
954.71	531.9	127.484
954.81	531.8	197.341
954.91	531.7	227.598
955.01	531.6	231.988
955.11	531.5	239.077
955.21	531.4	297.333
955.31	531.3	303.255
955.41	531.2	202.71
955.51	531.1	267.297
955.61	531	227.418
955.71	530.9	186.405
955.81	530.8	197.025
955.91	530.7	208.044
956.01	530.6	265.596
956.11	530.5	184.848
956.21	530.4	241.267
956.31	530.3	192.484
956.41	530.2	181.735
956.51	530.1	162.385
956.61	530	171.435
956.71	529.9	147.651
956.81	529.8	150.367
956.91	529.7	183.449
957.01	529.6	140.13
957.11	529.5	162.578
957.21	529.4	177.392
957.31	529.3	166.873
957.41	529.2	147.686
957.51	529.1	175.599
957.61	529	203.745
957.71	528.9	184.39
957.81	528.8	114.268
957.91	528.7	153.146
958.01	528.6	164.991
958.11	528.5	114.535
958.21	528.4	132.545
958.31	528.3	135.021
958.41	528.2	176.531
958.51	528.1	153.506
958.61	528	113.048
958.71	527.9	99.5566
958.81	527.8	177.531
958.91	527.7	121.572
959.01	527.6	145.112
959.11	527.5	136.186
959.21	527.4	110.626
959.31	527.3	200.665
959.41	527.2	211.904
959.51	527.1	192.776
959.61	527	118.748
959.71	526.9	127.652
959.81	526.8	105.356
959.91	526.7	162.293
960.01	526.6	166.597
960.11	526.5	94.6334
960.21	526.4	112.336
960.31	526.3	122.939
960.41	526.2	137.341
960.51	526.1	76.109
960.61	526	153.044
960.71	525.9	136.978
960.81	525.8	142.879
960.91	525.7	109.479
961.01	525.6	90.1789
961.11	525.5	96.6451
961.21	525.4	109.044
961.31	525.3	44.2433
961.41	525.2	120.809
961.51	525.1	131.24
961.61	525	120.438
961.71	524.9	125.902
961.81	524.8	36.6995
961.91	524.7	175.363
962.01	524.6	87.8596
962.11	524.5	96.9225
962.21	524.4	102.018
962.31	524.3	120.681
962.41	524.2	137.443
962.51	524.1	125.271
962.61	524	29.0321
962.71	523.9	85.4264
962.81	523.8	129.287
962.91	523.7	132.581
963.01	523.6	96.2072
963.11	523.5	60.1669
963.21	523.4	76.5263
963.31	523.3	155.219
963.41	523.2	152.944
963.51	523.1	117.869
963.61	523	195.894
963.71	522.9	133.485
963.81	522.8	60.9424
963.91	522.7	104.133
964.01	522.6	85.7231
964.11	522.5	104.88
964.21	522.4	156.803
964.31	522.3	160.092
964.41	522.2	131.714
964.51	522.1	58.9362
964.61	522	64.6913
964.71	521.9	51.8127
964.81	521.8	129.401
964.91	521.7	116.288
965.01	521.6	188.675
965.11	521.5	116.196
965.21	521.4	1.98219
965.31	521.3	33.1352
965.41	521.2	149.821
965.51	521.1	81.7404
965.61	521	81.2259
965.71	520.9	47.5778
965.81	520.8	99.0961
965.91	520.7	37.1474
966.01	520.6	143.098
966.11	520.5	141.916
966.21	520.4	153.966
966.31	520.3	137.917
966.41	520.2	92.0666
966.51	520.1	72.5163
966.61	520	108.599
966.71	519.9	94.3815
966.81	519.8	58.7304
966.91	519.7	53.3457
967.01	519.6	89.5607
967.11	519.5	113.709
967.21	519.4	147.823
967.31	519.3	58.9375
967.41	519.2	41.6182
967.51	519.1	52.1986
967.61	519	75.3454
967.71	518.9	91.1919
967.81	518.8	128.972
967.91	518.7	81.1176
968.01	518.6	96.83
968.11	518.5	49.4089
968.21	518.4	107.288
968.31	518.3	1.96592
968.41	518.2	75.0441
968.51	518.1	83.922
968.61	518	83.7663
968.71	517.9	77.477
968.81	517.8	85.5542
968.91	517.7	30.2311
969.01	517.6	70.3078
969.11	517.5	81.0177
969.21	517.4	32.6939
969.31	517.3	78.6699
969.41	517.2	67.879
969.51	517.1	97.5545
969.61	517	28.5299
969.71	516.9	98.9716
969.81	516.8	110.18
969.91	516.7	139.388
970.01	516.6	69.5289
970.11	516.5	67.1697
970.21	516.4	106.344
970.31	516.3	26.2841
970.41	516.2	54.3243
970.51	516.1	75.831
970.61	516	113.937
970.71	515.9	47.077
970.81	515.8	21.7831
970.91	515.7	39.8222
971.01	515.6	-1.83886
971.11	515.5	24.4999
971.21	515.4	135.538
971.31	515.3	119.01
971.41	515.2	76.9815
971.51	515.1	71.8194
971.61	515	23.9238
971.71	514.9	67.328
971.81	514.8	50.5653
971.91	514.7	58.8024
972.01	514.6	34.3394
972.11	514.5	68.0094
972.21	514.4	29.446
972.31	514.3	90.549
972.41	514.2	20.8852
972.51	514.1	2.38781
972.61	514	119.057
972.71	513.9	44.6592
972.81	513.8	48.7613
972.91	513.7	69.3632
973.01	513.6	98.1649
973.11	513.5	79.6665
973.21	513.4	87.3345
973.31	513.3	55.669
973.41	513.2	49.0034
973.51	513.1	38.4042
973.61	513	99.3382
973.71	512.9	10.1387
973.81	512.8	-13.0609
973.91	512.7	23.4059
974.01	512.6	25.0392
974.11	512.5	37.439
974.21	512.4	5.8387
974.31	512.3	24.7715
974.41	512.2	29.7042
974.51	512.1	102.837
974.61	512	58.6691
974.71	511.9	81.6679
974.81	511.8	93
974.91	511.7	116.499
975.01	511.6	56.4969
975.11	511.5	114.429
975.21	511.4	73.3599
975.31	511.3	98.8246
975.41	511.2	76.1557
975.51	511.1	77.8867
975.61	511	15.0175
975.71	510.9	59.2816
975.81	510.8	71.5121
975.91	510.7	16.2759
976.01	510.6	2.83947
976.11	510.5	-7.79706
976.21	510.4	-6.70039
976.31	510.3	53.9628
976.41	510.2	53.3592
976.51	510.1	46.0221
976.61	510	79.1849
976.71	509.9	26.8143
976.81	509.8	92.6102
976.91	509.7	50.4392
977.01	509.6	113.335
977.11	509.5	39.8637
977.21	509.4	15.7924
977.31	509.3	52.821
977.41	509.2	35.4828
977.51	509.1	31.2778
977.61	509	54.6061
977.71	508.9	40.2342
977.81	508.8	34.8288
977.91	508.7	54.8901
978.01	508.6	79.2512
978.11	508.5	21.1455
978.21	508.4	-10.3269
978.31	508.3	-4.66615
978.41	508.2	31.4279
978.51	508.1	57.6884
978.61	508	36.6489
978.71	507.9	-2.9574
978.81	507.8	54.2362
978.91	507.7	73.9297
979.01	507.6	65.5231
979.11	507.5	8.54974
979.21	507.4	-24.5904
979.31	507.3	1.2694
979.41	507.2	30.6291
979.51	507.1	80.3554
979.61	507	66.5482
979.71	506.9	35.0076
979.81	506.8	11.067
979.91	506.7	-33.7071
980.01	506.6	43.1854
980.11	506.5	68.1111
980.21	506.4	19.6701
980.31	506.3	51.6624
980.41	506.2	15.3212
980.51	506.1	106.747
980.61	506	62.972
980.71	505.9	78.7639
980.81	505.8	83.7225
980.91	505.7	104.581
981.01	505.6	29.806
981.11	505.5	73.6977
981.21	505.4	46.5226
981.31	505.3	-9.9192
981.41	505.2	-5.7944
981.51	505.1	-2.13634
981.61	505	-4.51166
981.71	504.9	52.1796
981.81	504.8	-36.2292
981.91	504.7	-20.7713
982.01	504.6	-22.0136
982.11	504.5	68.4441
982.21	504.4	58.6351
982.31	504.3	41.1927
982.41	504.2	77.1836
982.51	504.1	85.9411
982.61	504	75.3319
982.71	503.9	60.9227
982.81	503.8	76.7134
982.91	503.7	30.704
983.01	503.6	128.228
983.11	503.5	39.3186
983.21	503.4	59.6091
983.31	503.3	44.3662
983.41	503.2	71.0234
983.51	503.1	18.9805
983.61	503	52.6042
983.71	502.9	-7.5388
983.81	502.8	25.1849
983.91	502.7	31.0418
984.01	502.6	0.832069
984.11	502.5	-46.3777
984.21	502.4	80.2125
984.31	502.3	117.236
984.41	502.2	37.6595
984.51	502.1	-11.8837
984.61	502	11.6064
984.71	501.9	0.229869
984.81	501.8	45.9199
984.91	501.7	2.67668
985.01	501.6	38.7001
985.11	501.5	52.5901
985.21	501.4	60.0468
985.31	501.3	116.47
985.41	501.2	67.4268
985.51	501.1	42.8168
985.61	501	19.4401
985.71	500.9	17.0301
985.81	500.8	-13.1799
985.91	500.7	42.11
986.01	500.6	10.6333
986.11	500.5	0
986.21	500.4	0
986.31	500.3	0
986.41	500.2	0
986.51	500.1	0
986.61	500	0