c:\users\mark\owncloud\muelheim group\projects\gas phase background\ex340_cec356_au n2 largearea.vms
Pr:Au4p
	Characteristic Energy eV	1486.61	Acquisition Time s	2
KE_Pr:Au4p	BE_Pr:Au4p	CPS_Pr:Au4p
656.61	830	3911.78
656.71	829.9	3890.15
656.81	829.8	3812.47
656.91	829.7	3799.95
657.01	829.6	3935.07
657.11	829.5	3989.04
657.21	829.4	3981.52
657.31	829.3	3942.84
657.41	829.2	3975.86
657.51	829.1	3973.84
657.61	829	3836.81
657.71	828.9	3853.73
657.81	828.8	3748.26
657.91	828.7	3999.88
658.01	828.6	3960.66
658.11	828.5	3859.68
658.21	828.4	3924.45
658.31	828.3	4050.38
658.41	828.2	3889.75
658.51	828.1	3886.87
658.61	828	3937.5
658.71	827.9	4026.32
658.81	827.8	3938.04
658.91	827.7	4031.77
659.01	827.6	4031.79
659.11	827.5	4022.61
659.21	827.4	4011.49
659.31	827.3	4053.66
659.41	827.2	4035.88
659.51	827.1	4120.46
659.61	827	4012.58
659.71	826.9	4021.06
659.81	826.8	4037.38
659.91	826.7	3925.8
660.01	826.6	3932.18
660.11	826.5	4003.4
660.21	826.4	3933.32
660.31	826.3	3983.6
660.41	826.2	3939.47
660.51	826.1	3959.94
660.61	826	3910.22
660.71	825.9	3899.89
660.81	825.8	3852.46
660.91	825.7	3914.09
661.01	825.6	3961.76
661.11	825.5	3921.24
661.21	825.4	4015.26
661.31	825.3	3935.68
661.41	825.2	3970.06
661.51	825.1	3934.78
661.61	825	3954
661.71	824.9	3937.48
661.81	824.8	3937.65
661.91	824.7	4109.67
662.01	824.6	4049.9
662.11	824.5	4108.62
662.21	824.4	3981.2
662.31	824.3	4100.97
662.41	824.2	4091.24
662.51	824.1	3987.92
662.61	824	3923.64
662.71	823.9	3969.61
662.81	823.8	4070.19
662.91	823.7	3905.71
663.01	823.6	3893.08
663.11	823.5	3949.66
663.21	823.4	4047.08
663.31	823.3	4050.36
663.41	823.2	3968.73
663.51	823.1	4082.5
663.61	823	4126.58
663.71	822.9	3998.3
663.81	822.8	3961.82
663.91	822.7	4051.05
664.01	822.6	3951.42
664.11	822.5	3890.19
664.21	822.4	3934.92
664.31	822.3	4029.44
664.41	822.2	4073.97
664.51	822.1	3947.89
664.61	822	3851.96
664.71	821.9	4055.39
664.81	821.8	3902.36
664.91	821.7	4028.63
665.01	821.6	4111.21
665.11	821.5	3992.43
665.21	821.4	3946.31
665.31	821.3	4011.88
665.41	821.2	4083.5
665.51	821.1	4092.93
665.61	821	3981.1
665.71	820.9	3911.67
665.81	820.8	3992.45
665.91	820.7	4068.62
666.01	820.6	3991.65
666.11	820.5	4088.07
666.21	820.4	3909.64
666.31	820.3	4006.17
666.41	820.2	4072.99
666.51	820.1	4064.97
666.61	820	3991.19
666.71	819.9	3838.56
666.81	819.8	3928.24
666.91	819.7	4001.91
667.01	819.6	3924.68
667.11	819.5	4091.61
667.21	819.4	4102.23
667.31	819.3	4088.46
667.41	819.2	4115.13
667.51	819.1	4115.25
667.61	819	4019.28
667.71	818.9	4014.2
667.81	818.8	4012.98
667.91	818.7	4082.55
668.01	818.6	4052.22
668.11	818.5	4232.9
668.21	818.4	4069.62
668.31	818.3	3941.2
668.41	818.2	3951.32
668.51	818.1	4044.44
668.61	818	4007.82
668.71	817.9	3858.74
668.81	817.8	4117.52
668.91	817.7	4100.04
669.01	817.6	4073.81
669.11	817.5	4039.19
669.21	817.4	4041.16
669.31	817.3	4026.79
669.41	817.2	3993.86
669.51	817.1	3983.83
669.61	817	4088.26
669.71	816.9	4149.98
669.81	816.8	4085.51
669.91	816.7	4008.23
670.01	816.6	4077.95
670.11	816.5	3973.73
670.21	816.4	4012.1
670.31	816.3	3910.83
670.41	816.2	3956
670.51	816.1	3985.77
670.61	816	4026.7
670.71	815.9	4000.92
670.81	815.8	3923.45
670.91	815.7	3940.77
671.01	815.6	3932.09
671.11	815.5	4012.47
671.21	815.4	4166.34
671.31	815.3	3971.37
671.41	815.2	4021.49
671.51	815.1	4068.22
671.61	815	4111.89
671.71	814.9	4052.66
671.81	814.8	3881.24
671.91	814.7	4042.96
672.01	814.6	4173.09
672.11	814.5	3939.16
672.21	814.4	4016.59
672.31	814.3	3959.11
672.41	814.2	4210.43
672.51	814.1	4068.91
672.61	814	4083.13
672.71	813.9	4016.66
672.81	813.8	4037.03
672.91	813.7	4091.91
673.01	813.6	4041.98
673.11	813.5	4073.75
673.21	813.4	4007.23
673.31	813.3	4071.85
673.41	813.2	4143.33
673.51	813.1	4183.4
673.61	813	3988.18
673.71	812.9	3854.65
673.81	812.8	3936.17
673.91	812.7	4019
674.01	812.6	3959.37
674.11	812.5	3967.15
674.21	812.4	4031.02
674.31	812.3	4022.5
674.41	812.2	4128.37
674.51	812.1	4032.9
674.61	812	3992.67
674.71	811.9	4089.99
674.81	811.8	4255.07
674.91	811.7	4051.49
675.01	811.6	4076.87
675.11	811.5	4087.34
675.21	811.4	4014.77
675.31	811.3	3937.09
675.41	811.2	4051.27
675.51	811.1	4052.19
675.61	811	4124.82
675.71	810.9	3986.84
675.81	810.8	3962.97
675.91	810.7	3989.29
676.01	810.6	4071.46
676.11	810.5	4058.69
676.21	810.4	4140.81
676.31	810.3	4007.44
676.41	810.2	3978.46
676.51	810.1	4119.09
676.61	810	3991.71
676.71	809.9	4040.84
676.81	809.8	4036.66
676.91	809.7	4084.64
677.01	809.6	4038.31
677.11	809.5	4000.04
677.21	809.4	3998.06
677.31	809.3	3911.59
677.41	809.2	4038.81
677.51	809.1	4046.74
677.61	809	4084.71
677.71	808.9	4002.29
677.81	808.8	4016.91
677.91	808.7	4062.64
678.01	808.6	4112.41
678.11	808.5	4008.04
678.21	808.4	3947.36
678.31	808.3	4079.04
678.41	808.2	4130.81
678.51	808.1	4083.89
678.61	808	4013.21
678.71	807.9	3970.09
678.81	807.8	4086.06
678.91	807.7	4098.59
679.01	807.6	3964.81
679.11	807.5	4083.04
679.21	807.4	3922.06
679.31	807.3	3976.49
679.41	807.2	4067.41
679.51	807.1	4029.04
679.61	807	4094.06
679.71	806.9	4092.14
679.81	806.8	4021.61
679.91	806.7	4115.54
680.01	806.6	3981.41
680.11	806.5	4074.54
680.21	806.4	4016.51
680.31	806.3	4107.44
680.41	806.2	4059.61
680.51	806.1	4090.74
680.61	806	4062.31
680.71	805.9	4178.14
680.81	805.8	4189.01
680.91	805.7	4116.79
681.01	805.6	3982.36
681.11	805.5	3991.74
681.21	805.4	3981.07
681.31	805.3	3970.89
681.41	805.2	4075.77
681.51	805.1	4024.19
681.61	805	4069.32
681.71	804.9	4096.69
681.81	804.8	4089.67
681.91	804.7	4070.04
682.01	804.6	4000.42
682.11	804.5	4080.79
682.21	804.4	4219.17
682.31	804.3	4114.75
682.41	804.2	4001.82
682.51	804.1	4059.55
682.61	804	4133.62
682.71	803.9	4213.1
682.81	803.8	4207.97
682.91	803.7	4108.3
683.01	803.6	4159.77
683.11	803.5	4078.85
683.21	803.4	4152.73
683.31	803.3	4117.05
683.41	803.2	4081.88
683.51	803.1	4145.05
683.61	803	4202.58
683.71	802.9	4174.1
683.81	802.8	4116.98
683.91	802.7	4069.81
684.01	802.6	4028.78
684.11	802.5	4099.66
684.21	802.4	3983.43
684.31	802.3	4149.76
684.41	802.2	4097.78
684.51	802.1	4019.61
684.61	802	4049.84
684.71	801.9	4106.01
684.81	801.8	4137.99
684.91	801.7	4011.46
685.01	801.6	4108.94
685.11	801.5	4100.57
685.21	801.4	4182.74
685.31	801.3	4213.92
685.41	801.2	4036.54
685.51	801.1	3988.12
685.61	801	4105.9
685.71	800.9	4187.17
685.81	800.8	4130.1
685.91	800.7	4049.97
686.01	800.6	4081.45
686.11	800.5	4113.28
686.21	800.4	4204.05
686.31	800.3	4167.38
686.41	800.2	4221.56
686.51	800.1	4143.33
686.61	800	4107.61
686.71	799.9	4241.83
686.81	799.8	4138.86
686.91	799.7	4082.54
687.01	799.6	4138.61
687.11	799.5	4161.14
687.21	799.4	4171.57
687.31	799.3	4123.44
687.41	799.2	4052.47
687.51	799.1	4099.55
687.61	799	4151.22
687.71	798.9	4191.2
687.81	798.8	4159.62
687.91	798.7	4126.45
688.01	798.6	4105.93
688.11	798.5	4207.95
688.21	798.4	4156.93
688.31	798.3	4162.16
688.41	798.2	4248.58
688.51	798.1	4059.01
688.61	798	4143.34
688.71	797.9	4067.16
688.81	797.8	4175.64
688.91	797.7	4349.22
689.01	797.6	4157.69
689.11	797.5	4219.82
689.21	797.4	4228.5
689.31	797.3	4110.02
689.41	797.2	4157.55
689.51	797.1	4055.08
689.61	797	4141.45
689.71	796.9	4236.18
689.81	796.8	4092.46
689.91	796.7	4092.39
690.01	796.6	4128.61
690.11	796.5	4215.34
690.21	796.4	4144.17
690.31	796.3	4189.99
690.41	796.2	4159.42
690.51	796.1	4230.75
690.61	796	4079.32
690.71	795.9	4164.45
690.81	795.8	4103.68
690.91	795.7	4166.96
691.01	795.6	4176.53
691.11	795.5	4132.41
691.21	795.4	4142.69
691.31	795.3	4085.66
691.41	795.2	4096.84
691.51	795.1	4026.82
691.61	795	4153.25
691.71	794.9	4259.17
691.81	794.8	4216.1
691.91	794.7	4101.38
692.01	794.6	4129.55
692.11	794.5	4222.68
692.21	794.4	4192.46
692.31	794.3	4136.19
692.41	794.2	4189.21
692.51	794.1	4160.39
692.61	794	4207.57
692.71	793.9	4252.4
692.81	793.8	4192.32
692.91	793.7	4125.85
693.01	793.6	4195.78
693.11	793.5	4140.11
693.21	793.4	4202.13
693.31	793.3	4189.61
693.41	793.2	4262.14
693.51	793.1	4252.42
693.61	793	4152.54
693.71	792.9	4182.87
693.81	792.8	4187.25
693.91	792.7	4230.28
694.01	792.6	4166.76
694.11	792.5	4184.98
694.21	792.4	4121.81
694.31	792.3	4052.89
694.41	792.2	4168.62
694.51	792.1	4219.89
694.61	792	4245.02
694.71	791.9	4168.85
694.81	791.8	4202.03
694.91	791.7	4123.16
695.01	791.6	4122.18
695.11	791.5	4170.26
695.21	791.4	4227.34
695.31	791.3	4255.57
695.41	791.2	4094.1
695.51	791.1	4266.02
695.61	791	4195.3
695.71	790.9	4111.73
695.81	790.8	4252.31
695.91	790.7	4201.14
696.01	790.6	4203.12
696.11	790.5	4250.64
696.21	790.4	4193.02
696.31	790.3	4233.9
696.41	790.2	4123.43
696.51	790.1	4140.61
696.61	790	4195.59
696.71	789.9	4203.31
696.81	789.8	4096.49
696.91	789.7	4183.47
697.01	789.6	4203.15
697.11	789.5	4109.73
697.21	789.4	4287.61
697.31	789.3	4285.08
697.41	789.2	4159.36
697.51	789.1	4190.99
697.61	789	4173.22
697.71	788.9	4184.9
697.81	788.8	4240.98
697.91	788.7	4174.21
698.01	788.6	4139.99
698.11	788.5	4191.46
698.21	788.4	4204.94
698.31	788.3	4151.17
698.41	788.2	4320.75
698.51	788.1	4220.98
698.61	788	4076.36
698.71	787.9	4212.89
698.81	787.8	4325.77
698.91	787.7	4178.94
699.01	787.6	4246.52
699.11	787.5	4157.2
699.21	787.4	4246.88
699.31	787.3	4210.46
699.41	787.2	4359.19
699.51	787.1	4207.02
699.61	787	4292.05
699.71	786.9	4329.28
699.81	786.8	4220.96
699.91	786.7	4254.04
700.01	786.6	4283.72
700.11	786.5	4146.14
700.21	786.4	4232.07
700.31	786.3	4249.15
700.41	786.2	4410.88
700.51	786.1	4188.86
700.61	786	4245.09
700.71	785.9	4278.07
700.81	785.8	4293.3
700.91	785.7	4227.68
701.01	785.6	4142.26
701.11	785.5	4197.84
701.21	785.4	4332.37
701.31	785.3	4333.8
701.41	785.2	4286.58
701.51	785.1	4269.36
701.61	785	4140.54
701.71	784.9	4197.12
701.81	784.8	4212.4
701.91	784.7	4231.63
702.01	784.6	4125.81
702.11	784.5	4170.89
702.21	784.4	4198.62
702.31	784.3	4242.04
702.41	784.2	4331.52
702.51	784.1	4378.45
702.61	784	4317.83
702.71	783.9	4344.51
702.81	783.8	4263.54
702.91	783.7	4142.17
703.01	783.6	4271.45
703.11	783.5	4279.53
703.21	783.4	4232.86
703.31	783.3	4158.84
703.41	783.2	4326.68
703.51	783.1	4246.26
703.61	783	4203.84
703.71	782.9	4228.07
703.81	782.8	4266.9
703.91	782.7	4218.13
704.01	782.6	4198.11
704.11	782.5	4170.69
704.21	782.4	4198.37
704.31	782.3	4329.2
704.41	782.2	4314.38
704.51	782.1	4237.11
704.61	782	4150.19
704.71	781.9	4225.57
704.81	781.8	4286.45
704.91	781.7	4331.13
705.01	781.6	4293.56
705.11	781.5	4195.29
705.21	781.4	4310.67
705.31	781.3	4284.05
705.41	781.2	4278.33
705.51	781.1	4212.37
705.61	781	4200.05
705.71	780.9	4199.23
705.81	780.8	4252.86
705.91	780.7	4083.34
706.01	780.6	4202.17
706.11	780.5	4179.15
706.21	780.4	4226.18
706.31	780.3	4224.46
706.41	780.2	4338.19
706.51	780.1	4450.42
706.61	780	4368.41
706.71	779.9	4255.94
706.81	779.8	4308.82
706.91	779.7	4231.6
707.01	779.6	4223.93
707.11	779.5	4272.16
707.21	779.4	4369.39
707.31	779.3	4379.97
707.41	779.2	4351.41
707.51	779.1	4247.89
707.61	779	4346.77
707.71	778.9	4317.8
707.81	778.8	4226.78
707.91	778.7	4334.26
708.01	778.6	4379.39
708.11	778.5	4354.93
708.21	778.4	4198.86
708.31	778.3	4198.29
708.41	778.2	4130.72
708.51	778.1	4203.3
708.61	778	4252.78
708.71	777.9	4181.32
708.81	777.8	4254.8
708.91	777.7	4378.68
709.01	777.6	4313.01
709.11	777.5	4150.34
709.21	777.4	4248.33
709.31	777.3	4215.61
709.41	777.2	4360.19
709.51	777.1	4372.87
709.61	777	4350.75
709.71	776.9	4344.84
709.81	776.8	4393.22
709.91	776.7	4306
710.01	776.6	4406.03
710.11	776.5	4294.01
710.21	776.4	4238.65
710.31	776.3	4309.63
710.41	776.2	4286.81
710.51	776.1	4247.69
710.61	776	4262.83
710.71	775.9	4258.81
710.81	775.8	4356.74
710.91	775.7	4294.07
711.01	775.6	4223.1
711.11	775.5	4311.74
711.21	775.4	4374.37
711.31	775.3	4370.95
711.41	775.2	4338.59
711.51	775.1	4315.87
711.61	775	4295.7
711.71	774.9	4419.53
711.81	774.8	4296.47
711.91	774.7	4357.85
712.01	774.6	4389.28
712.11	774.5	4337.91
712.21	774.4	4229.9
712.31	774.3	4283.48
712.41	774.2	4296.16
712.51	774.1	4384.15
712.61	774	4303.13
712.71	773.9	4321.96
712.81	773.8	4337.95
712.91	773.7	4334.73
713.01	773.6	4456.91
713.11	773.5	4475.64
713.21	773.4	4424.98
713.31	773.3	4427.76
713.41	773.2	4306.89
713.51	773.1	4255.48
713.61	773	4353.11
713.71	772.9	4375.69
713.81	772.8	4323.38
713.91	772.7	4371.86
714.01	772.6	4407.85
714.11	772.5	4306.03
714.21	772.4	4362.96
714.31	772.3	4379.25
714.41	772.2	4468.18
714.51	772.1	4365.96
714.61	772	4289.55
714.71	771.9	4381.08
714.81	771.8	4435.26
714.91	771.7	4491.45
715.01	771.6	4430.88
715.11	771.5	4473.82
715.21	771.4	4420.05
715.31	771.3	4503.33
715.41	771.2	4548.02
715.51	771.1	4398.15
715.61	771	4418.69
715.71	770.9	4446.62
715.81	770.8	4468.65
715.91	770.7	4515.64
716.01	770.6	4539.72
716.11	770.5	4524.86
716.21	770.4	4459.64
716.31	770.3	4531.93
716.41	770.2	4537.96
716.51	770.1	4547.59
716.61	770	4422.33
716.71	769.9	4386.36
716.81	769.8	4467.45
716.91	769.7	4483.63
717.01	769.6	4455.77
717.11	769.5	4523.5
717.21	769.4	4599.24
717.31	769.3	4511.37
717.41	769.2	4617.91
717.51	769.1	4584.39
717.61	769	4680.08
717.71	768.9	4600.86
717.81	768.8	4472.45
717.91	768.7	4642.28
718.01	768.6	4612.96
718.11	768.5	4639.45
718.21	768.4	4594.43
718.31	768.3	4686.27
718.41	768.2	4811.96
718.51	768.1	4713.99
718.61	768	4634.78
718.71	767.9	4578.71
718.81	767.8	4729.35
718.91	767.7	4718.43
719.01	767.6	4699.92
719.11	767.5	4754.15
719.21	767.4	4717.59
719.31	767.3	4814.92
719.41	767.2	4726.51
719.51	767.1	4694.59
719.61	767	4959.88
719.71	766.9	4882.81
719.81	766.8	4772.45
719.91	766.7	4835.24
720.01	766.6	4922.57
720.11	766.5	5021.11
720.21	766.4	4781.54
720.31	766.3	4901.43
720.41	766.2	4965.57
720.51	766.1	4941.15
720.61	766	4933.24
720.71	765.9	4980.57
720.81	765.8	5102.31
720.91	765.7	5055.19
721.01	765.6	5125.88
721.11	765.5	5182.22
721.21	765.4	5187.4
721.31	765.3	5127.39
721.41	765.2	5217.68
721.51	765.1	5118.86
721.61	765	5175.45
721.71	764.9	5253.83
721.81	764.8	5327.77
721.91	764.7	5249.76
722.01	764.6	5338.99
722.11	764.5	5247.78
722.21	764.4	5220.57
722.31	764.3	5490.1
722.41	764.2	5497.09
722.51	764.1	5441.33
722.61	764	5416.21
722.71	763.9	5414.9
722.81	763.8	5430.99
722.91	763.7	5559.27
723.01	763.6	5626.01
723.11	763.5	5449.95
723.21	763.4	5452.23
723.31	763.3	5492.12
723.41	763.2	5554.06
723.51	763.1	5703.39
723.61	763	5637.58
723.71	762.9	5612.47
723.81	762.8	5698.6
723.91	762.7	5683.84
724.01	762.6	5612.18
724.11	762.5	5691.41
724.21	762.4	5691
724.31	762.3	5737.74
724.41	762.2	5736.92
724.51	762.1	5584.86
724.61	762	5751.1
724.71	761.9	5779.48
724.81	761.8	5773.62
724.91	761.7	5748.65
725.01	761.6	5710.09
725.11	761.5	5685.48
725.21	761.4	5717.16
725.31	761.3	5672.25
725.41	761.2	5589.39
725.51	761.1	5731.27
725.61	761	5534.16
725.71	760.9	5642.45
725.81	760.8	5567.98
725.91	760.7	5577.02
726.01	760.6	5567.45
726.11	760.5	5577.29
726.21	760.4	5561.43
726.31	760.3	5462.76
726.41	760.2	5449.1
726.51	760.1	5403.48
726.61	760	5339.72
726.71	759.9	5312.75
726.81	759.8	5316.14
726.91	759.7	5267.63
727.01	759.6	5273.91
727.11	759.5	5249.6
727.21	759.4	5178.18
727.31	759.3	5158.77
727.41	759.2	5113.15
727.51	759.1	5124.59
727.61	759	5125.52
727.71	758.9	5122.36
727.81	758.8	4978.59
727.91	758.7	4852.68
728.01	758.6	4889.36
728.11	758.5	4969.25
728.21	758.4	4996.78
728.31	758.3	4953.41
728.41	758.2	4873.3
728.51	758.1	4904.88
728.61	758	4730.37
728.71	757.9	4742.95
728.81	757.8	4749.99
728.91	757.7	4700.47
729.01	757.6	4599.2
729.11	757.5	4620.19
729.21	757.4	4631.22
729.31	757.3	4462.85
729.41	757.2	4548.34
729.51	757.1	4489.42
729.61	757	4544.4
729.71	756.9	4727.99
729.81	756.8	4526.92
729.91	756.7	4408.5
730.01	756.6	4409.38
730.11	756.5	4467.72
730.21	756.4	4430.95
730.31	756.3	4343.43
730.41	756.2	4345.31
730.51	756.1	4349.65
730.61	756	4318.73
730.71	755.9	4283.01
730.81	755.8	4190.59
730.91	755.7	4277.52
731.01	755.6	4179.65
731.11	755.5	4224.99
731.21	755.4	4366.32
731.31	755.3	4276.55
731.41	755.2	4198.43
731.51	755.1	4179.56
731.61	755	4187.99
731.71	754.9	4036.47
731.81	754.8	4156.05
731.91	754.7	4138.98
732.01	754.6	4297.06
732.11	754.5	4169.54
732.21	754.4	3959.22
732.31	754.3	3974.9
732.41	754.2	4131.93
732.51	754.1	4006.71
732.61	754	4024.38
732.71	753.9	4031.81
732.81	753.8	4087.29
732.91	753.7	4071.07
733.01	753.6	3959.6
733.11	753.5	3879.38
733.21	753.4	4064
733.31	753.3	4066.03
733.41	753.2	4043.51
733.51	753.1	3965.29
733.61	753	3984.11
733.71	752.9	3876.69
733.81	752.8	4003.37
733.91	752.7	3936.04
734.01	752.6	3957.97
734.11	752.5	3922.79
734.21	752.4	3880.52
734.31	752.3	3938.15
734.41	752.2	3911.82
734.51	752.1	4076.95
734.61	752	3974.72
734.71	751.9	3865.65
734.81	751.8	3843.97
734.91	751.7	3866.95
735.01	751.6	3953.72
735.11	751.5	3794.34
735.21	751.4	3867.12
735.31	751.3	3938.04
735.41	751.2	3870.41
735.51	751.1	3841.74
735.61	751	3913.46
735.71	750.9	3919.18
735.81	750.8	3881.76
735.91	750.7	3842.53
736.01	750.6	3920.3
736.11	750.5	3916.82
736.21	750.4	3841.99
736.31	750.3	3625.51
736.41	750.2	3830.43
736.51	750.1	3852.86
736.61	750	3797.58
736.71	749.9	3823.4
736.81	749.8	3813.82
736.91	749.7	3715.89
737.01	749.6	3786.71
737.11	749.5	3771.22
737.21	749.4	3797.64
737.31	749.3	3860.21
737.41	749.2	3705.03
737.51	749.1	3681.9
737.61	749	3758.82
737.71	748.9	3674.98
737.81	748.8	3649.55
737.91	748.7	3771.27
738.01	748.6	3744.44
738.11	748.5	3692.25
738.21	748.4	3734.37
738.31	748.3	3739.58
738.41	748.2	3813.95
738.51	748.1	3705.67
738.61	748	3868.53
738.71	747.9	3804.2
738.81	747.8	3814.26
738.91	747.7	3714.72
739.01	747.6	3750.49
739.11	747.5	3705.2
739.21	747.4	3704.67
739.31	747.3	3781.73
739.41	747.2	3802.09
739.51	747.1	3688.2
739.61	747	3637.72
739.71	746.9	3735.18
739.81	746.8	3825.44
739.91	746.7	3738.7
740.01	746.6	3664.51
740.11	746.5	3662.42
740.21	746.4	3666.38
740.31	746.3	3689.54
740.41	746.2	3647.3
740.51	746.1	3713.31
740.61	746	3762.32
740.71	745.9	3597.68
740.81	745.8	3661.49
740.91	745.7	3759.05
741.01	745.6	3669.66
741.11	745.5	3614.26
741.21	745.4	3606.32
741.31	745.3	3690.33
741.41	745.2	3665.83
741.51	745.1	3739.79
741.61	745	3626.1
741.71	744.9	3565.45
741.81	744.8	3651.71
741.91	744.7	3589.41
742.01	744.6	3713.07
742.11	744.5	3587.22
742.21	744.4	3577.37
742.31	744.3	3758.13
742.41	744.2	3587.03
742.51	744.1	3572.08
742.61	744	3714.18
742.71	743.9	3641.19
742.81	743.8	3740.89
742.91	743.7	3560.69
743.01	743.6	3567.99
743.11	743.5	3686.79
743.21	743.4	3691.44
743.31	743.3	3648.09
743.41	743.2	3635.04
743.51	743.1	3632.69
743.61	743	3616.99
743.71	742.9	3671.19
743.81	742.8	3647.43
743.91	742.7	3596.68
744.01	742.6	3544.63
744.11	742.5	3637.13
744.21	742.4	3701.87
744.31	742.3	3622.27
744.41	742.2	3791.51
744.51	742.1	3600.06
744.61	742	3620.15
744.71	741.9	3652.1
744.81	741.8	3630.19
744.91	741.7	3667.14
745.01	741.6	3577.23
745.11	741.5	3581.67
745.21	741.4	3621.76
745.31	741.3	3579.46
745.41	741.2	3659.7
745.51	741.1	3605.54
745.61	741	3683.38
745.71	740.9	3547.37
745.81	740.8	3627.36
745.91	740.7	3575.8
746.01	740.6	3667.94
746.11	740.5	3693.03
746.21	740.4	3553.82
746.31	740.3	3676.8
746.41	740.2	3627.44
746.51	740.1	3571.53
746.61	740	3555.61
746.71	739.9	3602.45
746.81	739.8	3620.59
746.91	739.7	3649.17
747.01	739.6	3638.41
747.11	739.5	3582.09
747.21	739.4	3612.12
747.31	739.3	3643.01
747.41	739.2	3698.79
747.51	739.1	3505.02
747.61	739	3553.4
747.71	738.9	3613.29
747.81	738.8	3562.97
747.91	738.7	3591.75
748.01	738.6	3678.43
748.11	738.5	3713.16
748.21	738.4	3563.19
748.31	738.3	3563.27
748.41	738.2	3670.69
748.51	738.1	3657.02
748.61	738	3709.35
748.71	737.9	3681.13
748.81	737.8	3650.9
748.91	737.7	3514.78
749.01	737.6	3677.86
749.11	737.5	3609.43
749.21	737.4	3622.76
749.31	737.3	3555.68
749.41	737.2	3605.35
749.51	737.1	3677.53
749.61	737	3722.75
749.71	736.9	3661.17
749.81	736.8	3605.49
749.91	736.7	3566.46
750.01	736.6	3570.63
750.11	736.5	3580.2
750.21	736.4	3542.12
750.31	736.3	3636.44
750.41	736.2	3697.01
750.51	736.1	3655.98
750.61	736	3465.05
750.71	735.9	3498.97
750.81	735.8	3714.23
750.91	735.7	3689.75
751.01	735.6	3681.46
751.11	735.5	3677.28
751.21	735.4	3626.94
751.31	735.3	3600.81
751.41	735.2	3652.12
751.51	735.1	3583.53
751.61	735	3771.25
751.71	734.9	3572.31
751.81	734.8	3606.67
751.91	734.7	3552.28
752.01	734.6	3534.24
752.11	734.5	3556.9
752.21	734.4	3699.26
752.31	734.3	3727.97
752.41	734.2	3652.68
752.51	734.1	3662.29
752.61	734	3651.69
752.71	733.9	3605.05
752.81	733.8	3631.36
752.91	733.7	3606.81
753.01	733.6	3554.22
753.11	733.5	3678.77
753.21	733.4	3648.52
753.31	733.3	3550.98
753.41	733.2	3657.13
753.51	733.1	3634.48
753.61	733	3571.98
753.71	732.9	3637.99
753.81	732.8	3621.54
753.91	732.7	3636.84
754.01	732.6	3631.44
754.11	732.5	3754.28
754.21	732.4	3593.58
754.31	732.3	3663.43
754.41	732.2	3696.83
754.51	732.1	3637.07
754.61	732	3693.87
754.71	731.9	3687.81
754.81	731.8	3609.56
754.91	731.7	3617.95
755.01	731.6	3732.9
755.11	731.5	3570.04
755.21	731.4	3733.68
755.31	731.3	3576.97
755.41	731.2	3638.62
755.51	731.1	3543.31
755.61	731	3510
755.71	730.9	3600.88
755.81	730.8	3618.27
755.91	730.7	3747.76
756.01	730.6	3592.3
756.11	730.5	3610.39
756.21	730.4	3628.42
756.31	730.3	3658.06
756.41	730.2	3822.74
756.51	730.1	3790.63
756.61	730	3629.61
756.71	729.9	3624.74
756.81	729.8	3598.53
756.91	729.7	3609.11
757.01	729.6	3723.94
757.11	729.5	3685.37
757.21	729.4	3561.6
757.31	729.3	3538.63
757.41	729.2	3673.61
757.51	729.1	3627.64
757.61	729	3646.37
757.71	728.9	3674.39
757.81	728.8	3758.52
757.91	728.7	3657.44
758.01	728.6	3685.52
758.11	728.5	3561.69
758.21	728.4	3756.97
758.31	728.3	3751.89
758.41	728.2	3609.31
758.51	728.1	3565.58
758.61	728	3659.81
758.71	727.9	3685.18
758.81	727.8	3518.75
758.91	727.7	3620.27
759.01	727.6	3528.03
759.11	727.5	3619.8
759.21	727.4	3648.52
759.31	727.3	3680.68
759.41	727.2	3725.05
759.51	727.1	3621.32
759.61	727	3612.08
759.71	726.9	3551.94
759.81	726.8	3677.86
759.91	726.7	3639.62
760.01	726.6	3717.93
760.11	726.5	3709.44
760.21	726.4	3631.25
760.31	726.3	3541.11
760.41	726.2	3574.47
760.51	726.1	3594.23
760.61	726	3644.24
760.71	725.9	3786.24
760.81	725.8	3650.35
760.91	725.7	3685.71
761.01	725.6	3617.96
761.11	725.5	3622.96
761.21	725.4	3646.17
761.31	725.3	3716.97
761.41	725.2	3757.82
761.51	725.1	3527.12
761.61	725	3601.47
761.71	724.9	3545.12
761.81	724.8	3607.47
761.91	724.7	3641.52
762.01	724.6	3708.97
762.11	724.5	3596.52
762.21	724.4	3508.51
762.31	724.3	3651.41
762.41	724.2	3570.95
762.51	724.1	3682.45
762.61	724	3474.54
762.71	723.9	3699.23
762.81	723.8	3735.62
762.91	723.7	3682.06
763.01	723.6	3687.56
763.11	723.5	3670.84
763.21	723.4	3680.38
763.31	723.3	3768.52
763.41	723.2	3566.31
763.51	723.1	3556.2
763.61	723	3634.03
763.71	722.9	3510.57
763.81	722.8	3603.65
763.91	722.7	3674.43
764.01	722.6	3653.57
764.11	722.5	3710.3
764.21	722.4	3743.38
764.31	722.3	3671.31
764.41	722.2	3641.59
764.51	722.1	3610.32
764.61	722	3572.9
764.71	721.9	3585.18
764.81	721.8	3618.6
764.91	721.7	3669.33
765.01	721.6	3700.9
765.11	721.5	3696.68
765.21	721.4	3693.1
765.31	721.3	3712.22
765.41	721.2	3774.2
765.51	721.1	3694.62
765.61	721	3687.24
765.71	720.9	3530.01
765.81	720.8	3577.03
765.91	720.7	3565.05
766.01	720.6	3548.36
766.11	720.5	3579.43
766.21	720.4	3683.34
766.31	720.3	3637.21
766.41	720.2	3543.07
766.51	720.1	3660.94
766.61	720	3638.75
766.71	719.9	3726.86
766.81	719.8	3611.67
766.91	719.7	3642.03
767.01	719.6	3714.19
767.11	719.5	3748.85
767.21	719.4	3821.46
767.31	719.3	3648.96
767.41	719.2	3518.72
767.51	719.1	3608.43
767.61	719	3726.68
767.71	718.9	3653.43
767.81	718.8	3662.69
767.91	718.7	3602.74
768.01	718.6	3613.99
768.11	718.5	3645.89
768.21	718.4	3641.24
768.31	718.3	3637.24
768.41	718.2	3600.83
768.51	718.1	3601.53
768.61	718	3546.38
768.71	717.9	3666.77
768.81	717.8	3681.97
768.91	717.7	3648.61
769.01	717.6	3536.65
769.11	717.5	3627.14
769.21	717.4	3711.18
769.31	717.3	3567.82
769.41	717.2	3626.46
769.51	717.1	3672.45
769.61	717	3677.34
769.71	716.9	3742.03
769.81	716.8	3734.41
769.91	716.7	3678.6
770.01	716.6	3663.63
770.11	716.5	3712.31
770.21	716.4	3553.9
770.31	716.3	3696.68
770.41	716.2	3725.61
770.51	716.1	3581.69
770.61	716	3673.92
770.71	715.9	3679.54
770.81	715.8	3654.32
770.91	715.7	3795.35
771.01	715.6	3866.32
771.11	715.5	3670.35
771.21	715.4	3500.02
771.31	715.3	3758.49
771.41	715.2	3671.76
771.51	715.1	3569.88
771.61	715	3671.1
771.71	714.9	3737.07
771.81	714.8	3706.34
771.91	714.7	3692.06
772.01	714.6	3775.47
772.11	714.5	3692.44
772.21	714.4	3813.25
772.31	714.3	3790.42
772.41	714.2	3792.18
772.51	714.1	3714.79
772.61	714	3662.3
772.71	713.9	3683.61
772.81	713.8	3749.57
772.91	713.7	3761.88
773.01	713.6	3713.19
773.11	713.5	3644.39
773.21	713.4	3562.3
773.31	713.3	3508.05
773.41	713.2	3597.5
773.51	713.1	3664.61
773.61	713	3661.51
773.71	712.9	3823.86
773.81	712.8	3665.31
773.91	712.7	3654.51
774.01	712.6	3726.65
774.11	712.5	3656.1
774.21	712.4	3573.7
774.31	712.3	3703.54
774.41	712.2	3616.89
774.51	712.1	3662.63
774.61	712	3721.82
774.71	711.9	3672.21
774.81	711.8	3719.6
774.91	711.7	3653.59
775.01	711.6	3751.13
775.11	711.5	3685.02
775.21	711.4	3751.85
775.31	711.3	3649.59
775.41	711.2	3588.27
775.51	711.1	3637.55
775.61	711	3633.89
775.71	710.9	3709.97
775.81	710.8	3723.6
775.91	710.7	3715.53
776.01	710.6	3688.71
776.11	710.5	3682.08
776.21	710.4	3747.61
776.31	710.3	3663.19
776.41	710.2	3680.66
776.51	710.1	3609.68
776.61	710	3733.51
776.71	709.9	3702.53
776.81	709.8	3779.75
776.91	709.7	3690.67
777.01	709.6	3674.59
777.11	709.5	3720.3
777.21	709.4	3612.07
777.31	709.3	3586.58
777.41	709.2	3666.7
777.51	709.1	3667.71
777.61	709	3658.98
777.71	708.9	3738.79
777.81	708.8	3729.9
777.91	708.7	3678.86
778.01	708.6	3751.16
778.11	708.5	3663.57
778.21	708.4	3641.78
778.31	708.3	3486.93
778.41	708.2	3766.69
778.51	708.1	3809.99
778.61	708	3673.79
778.71	707.9	3694.49
778.81	707.8	3709.34
778.91	707.7	3620.14
779.01	707.6	3728.64
779.11	707.5	3666.84
779.21	707.4	3714.73
779.31	707.3	3705.98
779.41	707.2	3735.67
779.51	707.1	3773.32
779.61	707	3762.81
779.71	706.9	3774.2
779.81	706.8	3701.74
779.91	706.7	3649.83
780.01	706.6	3779.31
780.11	706.5	3687.2
780.21	706.4	3770.24
780.31	706.3	3666.82
780.41	706.2	3621.35
780.51	706.1	3670.74
780.61	706	3668.92
780.71	705.9	3712.7
780.81	705.8	3749.93
780.91	705.7	3707.3
781.01	705.6	3709.08
781.11	705.5	3670.61
781.21	705.4	3674.03
781.31	705.3	3677.05
781.41	705.2	3713.53
781.51	705.1	3671.1
781.61	705	3653.92
781.71	704.9	3696.89
781.81	704.8	3839.56
781.91	704.7	3764.22
782.01	704.6	3635.09
782.11	704.5	3673.85
782.21	704.4	3768.37
782.31	704.3	3671.73
782.41	704.2	3652.24
782.51	704.1	3610.3
782.61	704	3663.21
782.71	703.9	3655.72
782.81	703.8	3633.98
782.91	703.7	3745.93
783.01	703.6	3746.94
783.11	703.5	3754.39
783.21	703.4	3794.35
783.31	703.3	3762.85
783.41	703.2	3873.4
783.51	703.1	3823.9
783.61	703	3699.7
783.71	702.9	3763.99
783.81	702.8	3722.64
783.91	702.7	3696.98
784.01	702.6	3704.08
784.11	702.5	3801.32
784.21	702.4	3716.11
784.31	702.3	3788.05
784.41	702.2	3666.69
784.51	702.1	3713.68
784.61	702	3803.02
784.71	701.9	3792.1
784.81	701.8	3843.49
784.91	701.7	3822.12
785.01	701.6	3600.2
785.11	701.5	3780.98
785.21	701.4	3736.36
785.31	701.3	3767.89
785.41	701.2	3829.87
785.51	701.1	3790.95
785.61	701	3730.32
785.71	700.9	3789.1
785.81	700.8	3802.02
785.91	700.7	3643.59
786.01	700.6	3659.56
786.11	700.5	3784.18
786.21	700.4	3718.55
786.31	700.3	3643.52
786.41	700.2	3772.38
786.51	700.1	3754
786.61	700	3813.76
786.71	699.9	3637.47
786.81	699.8	3581.38
786.91	699.7	3752.1
787.01	699.6	3690.6
787.11	699.5	3728.66
787.21	699.4	3753.77
787.31	699.3	3703.02
787.41	699.2	3724.08
787.51	699.1	3545.53
787.61	699	3608.93
787.71	698.9	3736.59
787.81	698.8	3789.74
787.91	698.7	3723.93
788.01	698.6	3750.48
788.11	698.5	3757.13
788.21	698.4	3752.62
788.31	698.3	3738.02
788.41	698.2	3766.61
788.51	698.1	3788.7
788.61	698	3782.89
788.71	697.9	3775.78
788.81	697.8	3675.67
788.91	697.7	3627.91
789.01	697.6	3725
789.11	697.5	3815.28
789.21	697.4	3780.17
789.31	697.3	3786.5
789.41	697.2	3781.83
789.51	697.1	3751.56
789.61	697	3709.64
789.71	696.9	3725.37
789.81	696.8	3741.45
789.91	696.7	3706.88
790.01	696.6	3743.4
790.11	696.5	3773.78
790.21	696.4	3791.5
790.31	696.3	3726.92
790.41	696.2	3662.14
790.51	696.1	3706.21
790.61	696	3605.78
790.71	695.9	3820.4
790.81	695.8	3794.02
790.91	695.7	3740.63
791.01	695.6	3832.35
791.11	695.5	3911.21
791.21	695.4	3711.22
791.31	695.3	3675.54
791.41	695.2	3786.35
791.51	695.1	3676.75
791.61	695	3801.21
791.71	694.9	3779.47
791.81	694.8	3588.73
791.91	694.7	3804.88
792.01	694.6	3707.09
792.11	694.5	3777.54
792.21	694.4	3755.04
792.31	694.3	3650.34
792.41	694.2	3799.49
792.51	694.1	3807.49
792.61	694	3796.64
792.71	693.9	3831.44
792.81	693.8	3741.78
792.91	693.7	3820.73
793.01	693.6	3762.92
793.11	693.5	3949.16
793.21	693.4	3781.11
793.31	693.3	3834.5
793.41	693.2	3814.64
793.51	693.1	3891.32
793.61	693	3707.76
793.71	692.9	3860.55
793.81	692.8	3929.13
793.91	692.7	3810.42
794.01	692.6	3768.3
794.11	692.5	3800.29
794.21	692.4	3873.57
794.31	692.3	3805.65
794.41	692.2	3795.73
794.51	692.1	3812.11
794.61	692	3770.58
794.71	691.9	3933.06
794.81	691.8	3850.34
794.91	691.7	3734.46
795.01	691.6	3800.84
795.11	691.5	3841.51
795.21	691.4	3762.23
795.31	691.3	3798.5
795.41	691.2	3751.67
795.51	691.1	3754.99
795.61	691	3780.26
795.71	690.9	3750.52
795.81	690.8	3759.29
795.91	690.7	3812.71
796.01	690.6	3663.22
796.11	690.5	3711.33
796.21	690.4	3849.29
796.31	690.3	3762.41
796.41	690.2	3787.02
796.51	690.1	3745.62
796.61	690	3702.98
796.71	689.9	3723.09
796.81	689.8	3813.45
796.91	689.7	3805.3
797.01	689.6	3764.06
797.11	689.5	3743.11
797.21	689.4	3830.46
797.31	689.3	3680.26
797.41	689.2	3790.17
797.51	689.1	3913.67
797.61	689	3945.46
797.71	688.9	3847.61
797.81	688.8	3911.01
797.91	688.7	3905.11
798.01	688.6	3852.5
798.11	688.5	3801.8
798.21	688.4	3844.34
798.31	688.3	3812.93
798.41	688.2	3795.82
798.51	688.1	3660.56
798.61	688	3765.8
798.71	687.9	3856.89
798.81	687.8	3839.23
798.91	687.7	3778.12
799.01	687.6	3963.85
799.11	687.5	3874.19
799.21	687.4	3781.52
799.31	687.3	3902.91
799.41	687.2	3727.89
799.51	687.1	3832.62
799.61	687	3855.1
799.71	686.9	3833.58
799.81	686.8	3729.96
799.91	686.7	3808.99
800.01	686.6	3791.77
800.11	686.5	3857.44
800.21	686.4	3788.22
800.31	686.3	3864.69
800.41	686.2	3865.87
800.51	686.1	3940.69
800.61	686	3935.76
800.71	685.9	3964.98
800.81	685.8	3772.95
800.91	685.7	3831.82
801.01	685.6	3844.59
801.11	685.5	3747.61
801.21	685.4	3905.22
801.31	685.3	3842.89
801.41	685.2	3712.01
801.51	685.1	3752.27
801.61	685	3840.83
801.71	684.9	3902.3
801.81	684.8	3899.36
801.91	684.7	3839.77
802.01	684.6	3817.23
802.11	684.5	3802.69
802.21	684.4	3857.15
802.31	684.3	3777.65
802.41	684.2	3775.16
802.51	684.1	3882.02
802.61	684	3896.22
802.71	683.9	3959.63
802.81	683.8	3745.43
802.91	683.7	3877.68
803.01	683.6	3832.54
803.11	683.5	3788.09
803.21	683.4	3776.49
803.31	683.3	3845.84
803.41	683.2	3823.43
803.51	683.1	3911.03
803.61	683	4117.08
803.71	682.9	3892.28
803.81	682.8	3908.47
803.91	682.7	3875.92
804.01	682.6	4005.11
804.11	682.5	3902.35
804.21	682.4	3789.4
804.31	682.3	3719.54
804.41	682.2	3848.23
804.51	682.1	3853.52
804.61	682	3877.51
804.71	681.9	3839.04
804.81	681.8	3761.13
804.91	681.7	3723.32
805.01	681.6	3926.71
805.11	681.5	3904.49
805.21	681.4	3906.43
805.31	681.3	3808.46
805.41	681.2	3826.59
805.51	681.1	3927.47
805.61	681	3851.26
805.71	680.9	3957.34
805.81	680.8	4026.37
805.91	680.7	3845.45
806.01	680.6	3885.42
806.11	680.5	4012.75
806.21	680.4	3933.98
806.31	680.3	3939.55
806.41	680.2	3773.53
806.51	680.1	3799.6
806.61	680	3823.08
806.71	679.9	3868.9
806.81	679.8	3891.77
806.91	679.7	3876.2
807.01	679.6	3952.52
807.11	679.5	3988.29
807.21	679.4	3902.66
807.31	679.3	3846.23
807.41	679.2	3833.34
807.51	679.1	3965.41
807.61	679	3974.78
807.71	678.9	3780.04
807.81	678.8	3776.76
807.91	678.7	3872.77
808.01	678.6	3911.24
808.11	678.5	3895
808.21	678.4	3935.41
808.31	678.3	3895.07
808.41	678.2	3954.39
808.51	678.1	3866.65
808.61	678	3979.21
808.71	677.9	4014.66
808.81	677.8	3980.52
808.91	677.7	3915.48
809.01	677.6	3911.89
809.11	677.5	3862.49
809.21	677.4	3944.9
809.31	677.3	3845.15
809.41	677.2	3883.21
809.51	677.1	3930.11
809.61	677	3971.41
809.71	676.9	3954.47
809.81	676.8	3927.82
809.91	676.7	3906.17
810.01	676.6	3882.37
810.11	676.5	3809.37
810.21	676.4	3865.37
810.31	676.3	3853.46
810.41	676.2	3937.11
810.51	676.1	3938.46
810.61	676	3882.3
810.71	675.9	3890.95
810.81	675.8	3924.45
810.91	675.7	3776.99
811.01	675.6	3906.93
811.11	675.5	4009.78
811.21	675.4	3882.47
811.31	675.3	3815.41
811.41	675.2	3981.3
811.51	675.1	3901.49
811.61	675	3874.58
811.71	674.9	3777.67
811.81	674.8	3886.96
811.91	674.7	4003.2
812.01	674.6	3978.93
812.11	674.5	3841.92
812.21	674.4	3981.36
812.31	674.3	3871.69
812.41	674.2	3936.03
812.51	674.1	3931.26
812.61	674	3936.64
812.71	673.9	3905.18
812.81	673.8	3886.46
812.91	673.7	3997.64
813.01	673.6	3935.42
813.11	673.5	3869.25
813.21	673.4	3984.83
813.31	673.3	3868.36
813.41	673.2	3864.84
813.51	673.1	3860.27
813.61	673	3888.19
813.71	672.9	3913.67
813.81	672.8	3947.95
813.91	672.7	3994.12
814.01	672.6	4032.95
814.11	672.5	3987.02
814.21	672.4	3842.95
814.31	672.3	3818.72
814.41	672.2	3930.89
814.51	672.1	4153.57
814.61	672	3963.44
814.71	671.9	3952.71
814.81	671.8	3898.63
814.91	671.7	3974.75
815.01	671.6	3904.57
815.11	671.5	3853.34
815.21	671.4	3814.16
815.31	671.3	4016.67
815.41	671.2	4026.54
815.51	671.1	4008.96
815.61	671	3960.27
815.71	670.9	4054.49
815.81	670.8	3973.2
815.91	670.7	4087.62
816.01	670.6	4012.03
816.11	670.5	4001.64
816.21	670.4	3781.86
816.31	670.3	3937.72
816.41	670.2	3954.28
816.51	670.1	3911.99
816.61	670	3945.25
816.71	669.9	3874.06
816.81	669.8	3889.22
816.91	669.7	4005.03
817.01	669.6	3942.49
817.11	669.5	3925.2
817.21	669.4	3873.06
817.31	669.3	3894.96
817.41	669.2	4044.67
817.51	669.1	4083.63
817.61	669	3967.58
817.71	668.9	3975.29
817.81	668.8	4085.99
817.91	668.7	4017.7
818.01	668.6	3972.4
818.11	668.5	3989.15
818.21	668.4	3988.2
818.31	668.3	4030.46
818.41	668.2	3950.81
818.51	668.1	3892.46
818.61	668	4011.11
818.71	667.9	3979.76
818.81	667.8	3806.56
818.91	667.7	3915.71
819.01	667.6	3919.21
819.11	667.5	3922.36
819.21	667.4	4058.85
819.31	667.3	3957.75
819.41	667.2	4009.8
819.51	667.1	4014.09
819.61	667	3998.39
819.71	666.9	3947.98
819.81	666.8	3975.38
819.91	666.7	3983.42
820.01	666.6	3892.97
820.11	666.5	3975.26
820.21	666.4	4019.8
820.31	666.3	3944.95
820.41	666.2	3975.29
820.51	666.1	3919.18
820.61	666	3951.77
820.71	665.9	3890.51
820.81	665.8	3916.8
820.91	665.7	3955.74
821.01	665.6	4102.33
821.11	665.5	3978.42
821.21	665.4	4013.01
821.31	665.3	4025.35
821.41	665.2	3983.79
821.51	665.1	4017.62
821.61	665	3839.16
821.71	664.9	3911.85
821.81	664.8	4036.88
821.91	664.7	3842.92
822.01	664.6	3839.95
822.11	664.5	3985.74
822.21	664.4	4008.97
822.31	664.3	4120.26
822.41	664.2	3985.29
822.51	664.1	3902.32
822.61	664	3995.01
822.71	663.9	3949.84
822.81	663.8	4014.22
822.91	663.7	3973.1
823.01	663.6	4099.83
823.11	663.5	4058.37
823.21	663.4	3970.75
823.31	663.3	3891.93
823.41	663.2	3915.76
823.51	663.1	3984.13
823.61	663	4009.66
823.71	662.9	4109.84
823.81	662.8	3973.87
823.91	662.7	3968.8
824.01	662.6	4051.33
824.11	662.5	4069
824.21	662.4	3910.18
824.31	662.3	4100.71
824.41	662.2	4082.48
824.51	662.1	4073.61
824.61	662	3918.18
824.71	661.9	3907.41
824.81	661.8	3951.18
824.91	661.7	4048.31
825.01	661.6	4032.43
825.11	661.5	4058.4
825.21	661.4	4035.48
825.31	661.3	4005.2
825.41	661.2	4031.07
825.51	661.1	3902.74
825.61	661	3911.32
825.71	660.9	3908.74
825.81	660.8	3960.46
825.91	660.7	4066.88
826.01	660.6	4057.75
826.11	660.5	4126.22
826.21	660.4	4098.59
826.31	660.3	3966.66
826.41	660.2	4091.78
826.51	660.1	3961.75
826.61	660	3899.51
826.71	659.9	3967.88
826.81	659.8	4014.9
826.91	659.7	4144.37
827.01	659.6	3943.64
827.11	659.5	4024.75
827.21	659.4	4198.82
827.31	659.3	4006.64
827.41	659.2	3920.45
827.51	659.1	3971.22
827.61	659	4072.93
827.71	658.9	4006.7
827.81	658.8	3891.86
827.91	658.7	3957.38
828.01	658.6	4040.74
828.11	658.5	4129.21
828.21	658.4	3940.37
828.31	658.3	3960.38
828.41	658.2	4078.35
828.51	658.1	4101.31
828.61	658	4075.87
828.71	657.9	3956.43
828.81	657.8	4069.75
828.91	657.7	4001.96
829.01	657.6	4043.32
829.11	657.5	4016.93
829.21	657.4	4028.74
829.31	657.3	4024.15
829.41	657.2	3977.16
829.51	657.1	4028.42
829.61	657	3985.83
829.71	656.9	4104.69
829.81	656.8	3930.6
829.91	656.7	3955.51
830.01	656.6	4096.72
830.11	656.5	4048.18
830.21	656.4	3996.39
830.31	656.3	4150.39
830.41	656.2	4064.45
830.51	656.1	4099.71
830.61	656	4088.52
830.71	655.9	3988.37
830.81	655.8	3918.63
830.91	655.7	3911.44
831.01	655.6	4063.8
831.11	655.5	4077.3
831.21	655.4	4090.06
831.31	655.3	3994.56
831.41	655.2	4025.62
831.51	655.1	3921.17
831.61	655	3977.68
831.71	654.9	4099.34
831.81	654.8	4168.24
831.91	654.7	4175.69
832.01	654.6	4119.55
832.11	654.5	4022.3
832.21	654.4	3985.41
832.31	654.3	3934.51
832.41	654.2	3897.66
832.51	654.1	4036.52
832.61	654	4082.32
832.71	653.9	4020.92
832.81	653.8	4029.88
832.91	653.7	4123.18
833.01	653.6	4062.08
833.11	653.5	4103.19
833.21	653.4	3972.29
833.31	653.3	4052.84
833.41	653.2	4176.04
833.51	653.1	4188.44
833.61	653	4046.94
833.71	652.9	4179.6
833.81	652.8	4135.85
833.91	652.7	4224.55
834.01	652.6	4288.05
834.11	652.5	4046.05
834.21	652.4	4004.95
834.31	652.3	4162.9
834.41	652.2	4123.05
834.51	652.1	4270.6
834.61	652	4110
834.71	651.9	4064.55
834.81	651.8	4108.35
834.91	651.7	4183.25
835.01	651.6	4168.75
835.11	651.5	4260.5
835.21	651.4	4185.15
835.31	651.3	4279.64
835.41	651.2	4114.29
835.51	651.1	4213.64
835.61	651	4308.84
835.71	650.9	4169.84
835.81	650.8	4210.54
835.91	650.7	4155.19
836.01	650.6	4268.23
836.11	650.5	4272.18
836.21	650.4	4194.43
836.31	650.3	4300.73
836.41	650.2	4402.87
836.51	650.1	4256.57
836.61	650	4346.67
836.71	649.9	4343.02
836.81	649.8	4394.86
836.91	649.7	4315.06
837.01	649.6	4282.91
837.11	649.5	4351.05
837.21	649.4	4336.45
837.31	649.3	4411.35
837.41	649.2	4425.69
837.51	649.1	4401.89
837.61	649	4507.74
837.71	648.9	4451.88
837.81	648.8	4576.53
837.91	648.7	4444.43
838.01	648.6	4612.72
838.11	648.5	4478.72
838.21	648.4	4576.66
838.31	648.3	4491.06
838.41	648.2	4662.46
838.51	648.1	4585.75
838.61	648	4628.55
838.71	647.9	4589.39
838.81	647.8	4759.64
838.91	647.7	4709.08
839.01	647.6	4702.33
839.11	647.5	4716.27
839.21	647.4	4742.17
839.31	647.3	4767.61
839.41	647.2	4892.01
839.51	647.1	4889.3
839.61	647	4892.45
839.71	646.9	4743.94
839.81	646.8	4830.19
839.91	646.7	5032.58
840.01	646.6	4939.68
840.11	646.5	4945.47
840.21	646.4	4963.07
840.31	646.3	4935.71
840.41	646.2	4941.51
840.51	646.1	4966.3
840.61	646	5223.85
840.71	645.9	5137.24
840.81	645.8	5346.49
840.91	645.7	5375.03
841.01	645.6	5278.03
841.11	645.5	5458.32
841.21	645.4	5492.42
841.31	645.3	5431.66
841.41	645.2	5371.86
841.51	645.1	5438.15
841.61	645	5639.05
841.71	644.9	5491.69
841.81	644.8	5586.89
841.91	644.7	5568.48
842.01	644.6	5659.87
842.11	644.5	5718.02
842.21	644.4	5702.76
842.31	644.3	5900.26
842.41	644.2	5922.45
842.51	644.1	5839.55
842.61	644	5854.74
842.71	643.9	5872.39
842.81	643.8	6010.88
842.91	643.7	5959.28
843.01	643.6	6025.92
843.11	643.5	5966.42
843.21	643.4	5960.71
843.31	643.3	6146.26
843.41	643.2	6122.75
843.51	643.1	6062.5
843.61	643	6065.39
843.71	642.9	6065.49
843.81	642.8	6100.83
843.91	642.7	6075.28
844.01	642.6	6220.52
844.11	642.5	6148.77
844.21	642.4	6157.01
844.31	642.3	6109.46
844.41	642.2	6054.75
844.51	642.1	6027.65
844.61	642	6065.5
844.71	641.9	5941.19
844.81	641.8	6021.19
844.91	641.7	6021.83
845.01	641.6	5990.83
845.11	641.5	5950.82
845.21	641.4	5873.07
845.31	641.3	5679.02
845.41	641.2	5819.31
845.51	641.1	5774.36
845.61	641	5696.55
845.71	640.9	5737.95
845.81	640.8	5483.75
845.91	640.7	5493.44
846.01	640.6	5380.29
846.11	640.5	5470.99
846.21	640.4	5449.98
846.31	640.3	5237.43
846.41	640.2	5317.58
846.51	640.1	5199.58
846.61	640	5189.72
846.71	639.9	5106.72
846.81	639.8	5074.27
846.91	639.7	5132.87
847.01	639.6	4859.71
847.11	639.5	4907.61
847.21	639.4	4851.26
847.31	639.3	4890.46
847.41	639.2	4769.01
847.51	639.1	4701.4
847.61	639	4802.65
847.71	638.9	4655.15
847.81	638.8	4587.2
847.91	638.7	4693.35
848.01	638.6	4560.7
848.11	638.5	4603
848.21	638.4	4467.04
848.31	638.3	4449.09
848.41	638.2	4443.69
848.51	638.1	4288.09
848.61	638	4243.54
848.71	637.9	4259.94
848.81	637.8	4106.19
848.91	637.7	4236.89
849.01	637.6	4161.04
849.11	637.5	4201.54
849.21	637.4	4307.69
849.31	637.3	4164.05
849.41	637.2	3985.5
849.51	637.1	3866.4
849.61	637	3984.35
849.71	636.9	3979.15
849.81	636.8	3899.15
849.91	636.7	4045.8
850.01	636.6	3838.71
850.11	636.5	3766.76
850.21	636.4	3905.06
850.31	636.3	3884.66
850.41	636.2	3856.87
850.51	636.1	3771.37
850.61	636	3776.32
850.71	635.9	3827.13
850.81	635.8	3747.58
850.91	635.7	3778.98
851.01	635.6	3667.44
851.11	635.5	3645.79
851.21	635.4	3639.35
851.31	635.3	3604.75
851.41	635.2	3629.2
851.51	635.1	3619.26
851.61	635	3623.41
851.71	634.9	3559.02
851.81	634.8	3510.87
851.91	634.7	3570.73
852.01	634.6	3699.84
852.11	634.5	3673.69
852.21	634.4	3615.45
852.31	634.3	3536.9
852.41	634.2	3540.41
852.51	634.1	3587.47
852.61	634	3505.27
852.71	633.9	3514.83
852.81	633.8	3468.44
852.91	633.7	3526.14
853.01	633.6	3558.9
853.11	633.5	3486.41
853.21	633.4	3555.52
853.31	633.3	3604.87
853.41	633.2	3458.73
853.51	633.1	3368.44
853.61	633	3425.1
853.71	632.9	3491.2
853.81	632.8	3529.41
853.91	632.7	3436.87
854.01	632.6	3429.98
854.11	632.5	3341.84
854.21	632.4	3382.35
854.31	632.3	3439.06
854.41	632.2	3384.01
854.51	632.1	3435.07
854.61	632	3401.38
854.71	631.9	3327.29
854.81	631.8	3289.25
854.91	631.7	3289.01
855.01	631.6	3274.92
855.11	631.5	3421.98
855.21	631.4	3243.14
855.31	631.3	3348.8
855.41	631.2	3294.01
855.51	631.1	3414.67
855.61	631	3286.13
855.71	630.9	3342.69
855.81	630.8	3349.65
855.91	630.7	3276.61
856.01	630.6	3286.57
856.11	630.5	3213.18
856.21	630.4	3337.04
856.31	630.3	3337.9
856.41	630.2	3278.76
856.51	630.1	3227.13
856.61	630	3222.79
856.71	629.9	3112.15
856.81	629.8	3209.21
856.91	629.7	3307.52
857.01	629.6	3152.03
857.11	629.5	3313.64
857.21	629.4	3256.35
857.31	629.3	3273.26
857.41	629.2	3218.28
857.51	629.1	3228.34
857.61	629	3262.6
857.71	628.9	3383.16
857.81	628.8	3302.57
857.91	628.7	3212.03
858.01	628.6	3273.05
858.11	628.5	3181.66
858.21	628.4	2952.82
858.31	628.3	3258.03
858.41	628.2	3284.29
858.51	628.1	3101.45
858.61	628	3302.97
858.71	627.9	3326.43
858.81	627.8	3205.64
858.91	627.7	3220.7
859.01	627.6	3264.16
859.11	627.5	2995.77
859.21	627.4	3113.89
859.31	627.3	3126.65
859.41	627.2	3193.01
859.51	627.1	3093.72
859.61	627	3163.48
859.71	626.9	3303.4
859.81	626.8	3227.06
859.91	626.7	3124.17
860.01	626.6	3071.78
860.11	626.5	3082.34
860.21	626.4	3117.31
860.31	626.3	3168.37
860.41	626.2	3065.68
860.51	626.1	3001.54
860.61	626	3149.25
860.71	625.9	3191.41
860.81	625.8	3058.78
860.91	625.7	3093.74
861.01	625.6	3051.05
861.11	625.5	3167.71
861.21	625.4	3356.97
861.31	625.3	3248.38
861.41	625.2	3060.9
861.51	625.1	3173.91
861.61	625	3032.37
861.71	624.9	3133.33
861.81	624.8	3161.04
861.91	624.7	3124.95
862.01	624.6	3180.26
862.11	624.5	3224.48
862.21	624.4	3019.64
862.31	624.3	3218.85
862.41	624.2	3168.86
862.51	624.1	3062.87
862.61	624	3127.68
862.71	623.9	3250.14
862.81	623.8	3240.45
862.91	623.7	3248.71
863.01	623.6	3121.47
863.11	623.5	3071.43
863.21	623.4	3049.39
863.31	623.3	3222.91
863.41	623.2	3101.17
863.51	623.1	3103.38
863.61	623	3090.14
863.71	622.9	3109.15
863.81	622.8	2984.31
863.91	622.7	3047.92
864.01	622.6	3042.53
864.11	622.5	2951.24
864.21	622.4	3091.4
864.31	622.3	3103.05
864.41	622.2	3171.76
864.51	622.1	3170.22
864.61	622	3195.98
864.71	621.9	3167.29
864.81	621.8	3038.7
864.91	621.7	3075.21
865.01	621.6	3036.02
865.11	621.5	3097.63
865.21	621.4	2983.19
865.31	621.3	3042.69
865.41	621.2	3174.3
865.51	621.1	3094.31
865.61	621	3252.07
865.71	620.9	3197.33
865.81	620.8	3018.73
865.91	620.7	3048.94
866.01	620.6	3069.25
866.11	620.5	3036.76
866.21	620.4	3208.71
866.31	620.3	3195.52
866.41	620.2	3271.83
866.51	620.1	3147.73
866.61	620	3079.74
866.71	619.9	3254.5
866.81	619.8	3217.05
866.91	619.7	3197.36
867.01	619.6	3111.91
867.11	619.5	3188.67
867.21	619.4	3096.68
867.31	619.3	3139.13
867.41	619.2	3106.84
867.51	619.1	3168.39
867.61	619	3196.75
867.71	618.9	3252.85
867.81	618.8	3197.61
867.91	618.7	3015.21
868.01	618.6	3069.36
868.11	618.5	3218.72
868.21	618.4	3165.22
868.31	618.3	3037.58
868.41	618.2	3066.58
868.51	618.1	3175.83
868.61	618	3070.29
868.71	617.9	3191.54
868.81	617.8	3135.04
868.91	617.7	3112.79
869.01	617.6	3271
869.11	617.5	3227.05
869.21	617.4	3159.1
869.31	617.3	3169.55
869.41	617.2	3175.1
869.51	617.1	3256.15
869.61	617	2992.56
869.71	616.9	3056.06
869.81	616.8	3235.76
869.91	616.7	3234.51
870.01	616.6	3134.76
870.11	616.5	3169.16
870.21	616.4	3140.16
870.31	616.3	3052.16
870.41	616.2	3060.76
870.51	616.1	3140.61
870.61	616	3151.4
870.71	615.9	3116.5
870.81	615.8	3186.95
870.91	615.7	3195.75
871.01	615.6	3125.3
871.11	615.5	3108.94
871.21	615.4	3130.04
871.31	615.3	3109.69
871.41	615.2	3107.84
871.51	615.1	3125.73
871.61	615	3206.78
871.71	614.9	3186.07
871.81	614.8	3100.82
871.91	614.7	2997.76
872.01	614.6	3100.61
872.11	614.5	3138.86
872.21	614.4	3210.05
872.31	614.3	3232.94
872.41	614.2	3122.79
872.51	614.1	3135.13
872.61	614	3174.68
872.71	613.9	3090.82
872.81	613.8	3064.06
872.91	613.7	3231.45
873.01	613.6	3146.3
873.11	613.5	3168.99
873.21	613.4	3143.38
873.31	613.3	3155.47
873.41	613.2	3084.71
873.51	613.1	3035.45
873.61	613	3084.89
873.71	612.9	3046.89
873.81	612.8	3146.23
873.91	612.7	3213.81
874.01	612.6	3112
874.11	612.5	3161.49
874.21	612.4	3159.68
874.31	612.3	3206.17
874.41	612.2	3213.36
874.51	612.1	3230.25
874.61	612	3087.28
874.71	611.9	3015.67
874.81	611.8	3043.51
874.91	611.7	3145.79
875.01	611.6	3128.43
875.11	611.5	3190.57
875.21	611.4	3207.4
875.31	611.3	3194.74
875.41	611.2	3079.92
875.51	611.1	3229.36
875.61	611	3163.69
875.71	610.9	3020.27
875.81	610.8	3114.71
875.91	610.7	3184.24
876.01	610.6	3082.92
876.11	610.5	3078.4
876.21	610.4	3093.49
876.31	610.3	3229.17
876.41	610.2	3211.95
876.51	610.1	3146.38
876.61	610	3063.21
876.71	609.9	3132.94
876.81	609.8	3166.22
876.91	609.7	3124.25
877.01	609.6	3105.43
877.11	609.5	3070.16
877.21	609.4	3218.39
877.31	609.3	3192.51
877.41	609.2	3122.69
877.51	609.1	3145.32
877.61	609	3126.45
877.71	608.9	3209.42
877.81	608.8	3044
877.91	608.7	3186.17
878.01	608.6	3142.65
878.11	608.5	3091.77
878.21	608.4	3181.8
878.31	608.3	3182.92
878.41	608.2	3115.44
878.51	608.1	3135.67
878.61	608	3267.44
878.71	607.9	3196.26
878.81	607.8	3180.43
878.91	607.7	3045.96
879.01	607.6	3108.38
879.11	607.5	3160.55
879.21	607.4	3079.37
879.31	607.3	2998.99
879.41	607.2	3176.16
879.51	607.1	3090.88
879.61	607	3181.39
879.71	606.9	3189.41
879.81	606.8	3166.28
879.91	606.7	3156.05
880.01	606.6	3107.26
880.11	606.5	3147.73
880.21	606.4	3086.35
880.31	606.3	3088.41
880.41	606.2	3008.23
880.51	606.1	3070.84
880.61	606	3159.9
880.71	605.9	3227.02
880.81	605.8	3088.28
880.91	605.7	3171.04
881.01	605.6	3143.51
881.11	605.5	3258.12
881.21	605.4	3177.78
881.31	605.3	3028.04
881.41	605.2	3094.95
881.51	605.1	3096.66
881.61	605	3141.32
881.71	604.9	3146.23
881.81	604.8	3072.29
881.91	604.7	3105.14
882.01	604.6	3116.55
882.11	604.5	3098.01
882.21	604.4	3143.16
882.31	604.3	3180.92
882.41	604.2	3111.03
882.51	604.1	3178.28
882.61	604	3245.49
882.71	603.9	3139.14
882.81	603.8	3080.34
882.91	603.7	3132.15
883.01	603.6	3057.15
883.11	603.5	3147.05
883.21	603.4	3270.2
883.31	603.3	3164.8
883.41	603.2	3197.85
883.51	603.1	3086.5
883.61	603	3225.3
883.71	602.9	3131.8
883.81	602.8	3082.1
883.91	602.7	3234.6
884.01	602.6	3274.24
884.11	602.5	3185.94
884.21	602.4	3105.09
884.31	602.3	3145.73
884.41	602.2	3125.73
884.51	602.1	3269.77
884.61	602	3266.57
884.71	601.9	3178.61
884.81	601.8	3063
884.91	601.7	3341.34
885.01	601.6	3212.24
885.11	601.5	3143.63
885.21	601.4	3135.47
885.31	601.3	3239.21
885.41	601.2	3215.7
885.51	601.1	3193.44
885.61	601	3189.43
885.71	600.9	3156.86
885.81	600.8	3044.85
885.91	600.7	3223.79
886.01	600.6	3308.32
886.11	600.5	3243.01
886.21	600.4	3267.79
886.31	600.3	3296.78
886.41	600.2	3173.56
886.51	600.1	3025.85
886.61	600	3130.78
886.71	599.9	3112.56
886.81	599.8	3129.49
886.91	599.7	3251.92
887.01	599.6	3218.9
887.11	599.5	3175.38
887.21	599.4	3285.26
887.31	599.3	3147.29
887.41	599.2	3180.77
887.51	599.1	3230.35
887.61	599	3290.27
887.71	598.9	3353.95
887.81	598.8	3061.63
887.91	598.7	3188.1
888.01	598.6	3258.37
888.11	598.5	3225.6
888.21	598.4	3100.52
888.31	598.3	3209.24
888.41	598.2	3233.17
888.51	598.1	3335.59
888.61	598	3162.16
888.71	597.9	3257.83
888.81	597.8	3268.75
888.91	597.7	3178.71
889.01	597.6	3092.88
889.11	597.5	3093.85
889.21	597.4	3183.67
889.31	597.3	3142.08
889.41	597.2	3285.4
889.51	597.1	3250.96
889.61	597	3219.63
889.71	596.9	3218.39
889.81	596.8	3179.45
889.91	596.7	3198.17
890.01	596.6	3125.43
890.11	596.5	3246.04
890.21	596.4	3165.1
890.31	596.3	3254.31
890.41	596.2	3171.07
890.51	596.1	3098.18
890.61	596	3143.63
890.71	595.9	3112.04
890.81	595.8	3232.45
890.91	595.7	3210.2
891.01	595.6	3219.26
891.11	595.5	3210.21
891.21	595.4	3182.76
891.31	595.3	3195.67
891.41	595.2	3231.92
891.51	595.1	3203.92
891.61	595	3236.87
891.71	594.9	3359.52
891.81	594.8	3167.02
891.91	594.7	3206.17
892.01	594.6	3200.32
892.11	594.5	3204.81
892.21	594.4	3287.91
892.31	594.3	3426.81
892.41	594.2	3209.25
892.51	594.1	3337.85
892.61	594	3254.59
892.71	593.9	3255.18
892.81	593.8	3225.07
892.91	593.7	3214.22
893.01	593.6	3286.61
893.11	593.5	3143.1
893.21	593.4	3220.89
893.31	593.3	3340.92
893.41	593.2	3283.16
893.51	593.1	3212.7
893.61	593	3255.89
893.71	592.9	3227.22
893.81	592.8	3218.41
893.91	592.7	3177.24
894.01	592.6	3258.57
894.11	592.5	3254.86
894.21	592.4	3199.89
894.31	592.3	3265.52
894.41	592.2	3237.05
894.51	592.1	3258.13
894.61	592	3347.16
894.71	591.9	3202.59
894.81	591.8	3289.11
894.91	591.7	3258.64
895.01	591.6	3315.72
895.11	591.5	3229.34
895.21	591.4	3317.41
895.31	591.3	3355.44
895.41	591.2	3168.06
895.51	591.1	3288.53
895.61	591	3318.85
895.71	590.9	3320.07
895.81	590.8	3363.94
895.91	590.7	3413.86
896.01	590.6	3380.23
896.11	590.5	3402.75
896.21	590.4	3181.56
896.31	590.3	3392.33
896.41	590.2	3407.39
896.51	590.1	3443.01
896.61	590	3263.52
896.71	589.9	3293.93
896.81	589.8	3201.2
896.91	589.7	3171.21
897.01	589.6	3308.17
897.11	589.5	3250.98
897.21	589.4	3154.93
897.31	589.3	3254.14
897.41	589.2	3267.75
897.51	589.1	3275.85
897.61	589	3273.31
897.71	588.9	3244.96
897.81	588.8	3260.82
897.91	588.7	3388.97
898.01	588.6	3362.82
898.11	588.5	3279.77
898.21	588.4	3306.32
898.31	588.3	3304.42
898.41	588.2	3312.47
898.51	588.1	3372.37
898.61	588	3338.86
898.71	587.9	3342.46
898.81	587.8	3339.16
898.91	587.7	3350.25
899.01	587.6	3276.89
899.11	587.5	3282.54
899.21	587.4	3364.93
899.31	587.3	3337.87
899.41	587.2	3319.11
899.51	587.1	3430.6
899.61	587	3281.84
899.71	586.9	3303.62
899.81	586.8	3418.31
899.91	586.7	3411.99
900.01	586.6	3555.63
900.11	586.5	3461.71
900.21	586.4	3464.3
900.31	586.3	3403.63
900.41	586.2	3313.31
900.51	586.1	3358.79
900.61	586	3342.77
900.71	585.9	3349.8
900.81	585.8	3501.42
900.91	585.7	3506.8
901.01	585.6	3448.13
901.11	585.5	3492.4
901.21	585.4	3391.28
901.31	585.3	3309.25
901.41	585.2	3397.77
901.51	585.1	3351.19
901.61	585	3416.56
901.71	584.9	3394.33
901.81	584.8	3554.5
901.91	584.7	3536.52
902.01	584.6	3348.43
902.11	584.5	3402.9
902.21	584.4	3523.72
902.31	584.3	3433.08
902.41	584.2	3370.54
902.51	584.1	3405.35
902.61	584	3510.02
902.71	583.9	3413.43
902.81	583.8	3502.13
902.91	583.7	3354.74
903.01	583.6	3287.4
903.11	583.5	3352.11
903.21	583.4	3433.31
903.31	583.3	3336.52
903.41	583.2	3436.92
903.51	583.1	3442.57
903.61	583	3390.07
903.71	582.9	3416.58
903.81	582.8	3370.93
903.91	582.7	3442.27
904.01	582.6	3312.17
904.11	582.5	3528.72
904.21	582.4	3453.26
904.31	582.3	3407.76
904.41	582.2	3365.45
904.51	582.1	3502.8
904.61	582	3489.24
904.71	581.9	3509.43
904.81	581.8	3567.77
904.91	581.7	3446.16
905.01	581.6	3456.2
905.11	581.5	3463.03
905.21	581.4	3418.32
905.31	581.3	3380.55
905.41	581.2	3527.19
905.51	581.1	3557.12
905.61	581	3555
905.71	580.9	3607.54
905.81	580.8	3512.12
905.91	580.7	3500.74
906.01	580.6	3580.52
906.11	580.5	3490.95
906.21	580.4	3361.53
906.31	580.3	3608.45
906.41	580.2	3505.32
906.51	580.1	3449.95
906.61	580	3590.02
906.71	579.9	3496.49
906.81	579.8	3500.61
906.91	579.7	3466.43
907.01	579.6	3522.8
907.11	579.5	3437.71
907.21	579.4	3504.93
907.31	579.3	3548.2
907.41	579.2	3480.46
907.51	579.1	3568.77
907.61	579	3541.33
907.71	578.9	3613.89
907.81	578.8	3610.35
907.91	578.7	3486.01
908.01	578.6	3400.27
908.11	578.5	3655.88
908.21	578.4	3706.48
908.31	578.3	3644.89
908.41	578.2	3649.84
908.51	578.1	3585.29
908.61	578	3546.29
908.71	577.9	3390.34
908.81	577.8	3420.24
908.91	577.7	3403.24
909.01	577.6	3443.54
909.11	577.5	3595.18
909.21	577.4	3603.48
909.31	577.3	3534.47
909.41	577.2	3618.76
909.51	577.1	3601.31
909.61	577	3539.15
909.71	576.9	3495.44
909.81	576.8	3490.22
909.91	576.7	3686.76
910.01	576.6	3657.2
910.11	576.5	3705.08
910.21	576.4	3581.97
910.31	576.3	3578.6
910.41	576.2	3638.13
910.51	576.1	3504.46
910.61	576	3584.49
910.71	575.9	3572.07
910.81	575.8	3595.35
910.91	575.7	3502.57
911.01	575.6	3434.6
911.11	575.5	3578.87
911.21	575.4	3467.99
911.31	575.3	3525.01
911.41	575.2	3605.99
911.51	575.1	3616.15
911.61	575	3537.22
911.71	574.9	3566.34
911.81	574.8	3590.31
911.91	574.7	3625.97
912.01	574.6	3494.49
912.11	574.5	3543.25
912.21	574.4	3656.36
912.31	574.3	3558.47
912.41	574.2	3548.78
912.51	574.1	3601.89
912.61	574	3580.69
912.71	573.9	3511.7
912.81	573.8	3383.65
912.91	573.7	3542.51
913.01	573.6	3697.21
913.11	573.5	3625.96
913.21	573.4	3642.86
913.31	573.3	3464.26
913.41	573.2	3566.36
913.51	573.1	3609.35
913.61	573	3604.75
913.71	572.9	3571.84
913.81	572.8	3624.54
913.91	572.7	3566.88
914.01	572.6	3683.67
914.11	572.5	3684.86
914.21	572.4	3690.6
914.31	572.3	3677.03
914.41	572.2	3626.12
914.51	572.1	3637.7
914.61	572	3600.49
914.71	571.9	3621.17
914.81	571.8	3719.6
914.91	571.7	3610.93
915.01	571.6	3594.71
915.11	571.5	3649.54
915.21	571.4	3561.26
915.31	571.3	3662.89
915.41	571.2	3642.41
915.51	571.1	3633.53
915.61	571	3742.8
915.71	570.9	3774.62
915.81	570.8	3529.74
915.91	570.7	3540.31
916.01	570.6	3557.38
916.11	570.5	3524.79
916.21	570.4	3529.46
916.31	570.3	3517.42
916.41	570.2	3622.23
916.51	570.1	3670.04
916.61	570	3477.05
916.71	569.9	3493.26
916.81	569.8	3583.02
916.91	569.7	3705.02
917.01	569.6	3550.73
917.11	569.5	3675.43
917.21	569.4	3702.58
917.31	569.3	3474.43
917.41	569.2	3528.88
917.51	569.1	3577.38
917.61	569	3563.73
917.71	568.9	3593.58
917.81	568.8	3649.47
917.91	568.7	3508.32
918.01	568.6	3451.06
918.11	568.5	3605.7
918.21	568.4	3633.74
918.31	568.3	3546.48
918.41	568.2	3526.57
918.51	568.1	3456.96
918.61	568	3708.49
918.71	567.9	3682.68
918.81	567.8	3602.01
918.91	567.7	3594.84
919.01	567.6	3532.07
919.11	567.5	3584.7
919.21	567.4	3462.28
919.31	567.3	3548.41
919.41	567.2	3666.44
919.51	567.1	3661.71
919.61	567	3629.24
919.71	566.9	3526.51
919.81	566.8	3517.18
919.91	566.7	3446.9
920.01	566.6	3504.27
920.11	566.5	3417.39
920.21	566.4	3494.26
920.31	566.3	3628.33
920.41	566.2	3572.34
920.51	566.1	3531.21
920.61	566	3500.87
920.71	565.9	3578.83
920.81	565.8	3585.29
920.91	565.7	3661.45
921.01	565.6	3680.46
921.11	565.5	3617.62
921.21	565.4	3627.68
921.31	565.3	3541.63
921.41	565.2	3513.74
921.51	565.1	3566.69
921.61	565	3600.44
921.71	564.9	3582.94
921.81	564.8	3461.49
921.91	564.7	3490.69
922.01	564.6	3611.44
922.11	564.5	3497.54
922.21	564.4	3582.13
922.31	564.3	3582.78
922.41	564.2	3610.62
922.51	564.1	3602.76
922.61	564	3517.35
922.71	563.9	3623.84
922.81	563.8	3587.88
922.91	563.7	3533.87
923.01	563.6	3747.76
923.11	563.5	3704.59
923.21	563.4	3677.98
923.31	563.3	3552.46
923.41	563.2	3565.15
923.51	563.1	3658.33
923.61	563	3592.66
923.71	562.9	3421.74
923.81	562.8	3524.87
923.91	562.7	3712.59
924.01	562.6	3660.52
924.11	562.5	3557.89
924.21	562.4	3587.37
924.31	562.3	3536.04
924.41	562.2	3506.81
924.51	562.1	3570.19
924.61	562	3694.91
924.71	561.9	3732.37
924.81	561.8	3686.89
924.91	561.7	3639.41
925.01	561.6	3562.48
925.11	561.5	3553.94
925.21	561.4	3604.75
925.31	561.3	3535.27
925.41	561.2	3430.98
925.51	561.1	3635.39
925.61	561	3713.8
925.71	560.9	3653.71
925.81	560.8	3679.87
925.91	560.7	3559.27
926.01	560.6	3717.38
926.11	560.5	3726.83
926.21	560.4	3672.69
926.31	560.3	3630.14
926.41	560.2	3605.29
926.51	560.1	3709.89
926.61	560	3664.29
926.71	559.9	3653.29
926.81	559.8	3638.54
926.91	559.7	3695.88
927.01	559.6	3696.68
927.11	559.5	3725.37
927.21	559.4	3736.72
927.31	559.3	3610.36
927.41	559.2	3656.5
927.51	559.1	3590.59
927.61	559	3700.48
927.71	558.9	3768.87
927.81	558.8	3775.66
927.91	558.7	3730.4
928.01	558.6	3678.73
928.11	558.5	3851.37
928.21	558.4	3794.75
928.31	558.3	3827.43
928.41	558.2	3751.06
928.51	558.1	3748.54
928.61	558	3687.02
928.71	557.9	3606.2
928.81	557.8	3630.23
928.91	557.7	3768.16
929.01	557.6	3860.63
929.11	557.5	3802.66
929.21	557.4	3632.28
929.31	557.3	3804.26
929.41	557.2	3789.28
929.51	557.1	3674.9
929.61	557	3854.27
929.71	556.9	3796.89
929.81	556.8	3848.11
929.91	556.7	3802.43
930.01	556.6	3830.64
930.11	556.5	3759.01
930.21	556.4	3778.02
930.31	556.3	3758.64
930.41	556.2	3823.8
930.51	556.1	3848.41
930.61	556	3957.27
930.71	555.9	3942.48
930.81	555.8	4007.99
930.91	555.7	3838.3
931.01	555.6	3678.41
931.11	555.5	3808.91
931.21	555.4	3966.12
931.31	555.3	3926.72
931.41	555.2	4046.33
931.51	555.1	3929.23
931.61	555	3971.68
931.71	554.9	3994.03
931.81	554.8	4063.88
931.91	554.7	4155.08
932.01	554.6	4097.43
932.11	554.5	4107.83
932.21	554.4	4007.17
932.31	554.3	4107.07
932.41	554.2	4058.06
932.51	554.1	4174.71
932.61	554	4090.5
932.71	553.9	4195.34
932.81	553.8	4215.88
932.91	553.7	4101.12
933.01	553.6	4369.66
933.11	553.5	4328.7
933.21	553.4	4366.99
933.31	553.3	4455.92
933.41	553.2	4469.91
933.51	553.1	4390.34
933.61	553	4296.93
933.71	552.9	4533.16
933.81	552.8	4608.39
933.91	552.7	4501.62
934.01	552.6	4582.25
934.11	552.5	4611.98
934.21	552.4	4675.16
934.31	552.3	4681.09
934.41	552.2	4826.17
934.51	552.1	4930.04
934.61	552	4929.82
934.71	551.9	5078.94
934.81	551.8	5082.62
934.91	551.7	5118.74
935.01	551.6	5276.96
935.11	551.5	5324.38
935.21	551.4	5386.05
935.31	551.3	5500.92
935.41	551.2	5468.84
935.51	551.1	5444.11
935.61	551	5538.93
935.71	550.9	5590.74
935.81	550.8	5838.36
935.91	550.7	5952.82
936.01	550.6	6061.58
936.11	550.5	6247.45
936.21	550.4	6233.16
936.31	550.3	6330.97
936.41	550.2	6445.88
936.51	550.1	6611.89
936.61	550	6732.35
936.71	549.9	6950.46
936.81	549.8	7073.71
936.91	549.7	7208.42
937.01	549.6	7338.87
937.11	549.5	7587.83
937.21	549.4	7601.63
937.31	549.3	7960.34
937.41	549.2	8084.44
937.51	549.1	8290.69
937.61	549	8509.04
937.71	548.9	8799.34
937.81	548.8	8945.69
937.91	548.7	9258.39
938.01	548.6	9418.23
938.11	548.5	9703.58
938.21	548.4	9870.03
938.31	548.3	10130.4
938.41	548.2	10291.6
938.51	548.1	10794.5
938.61	548	10992.5
938.71	547.9	11083.6
938.81	547.8	11382.7
938.91	547.7	11561.6
939.01	547.6	11721.5
939.11	547.5	12036
939.21	547.4	12161
939.31	547.3	12566.1
939.41	547.2	12801.4
939.51	547.1	12955.7
939.61	547	13116
939.71	546.9	13413.4
939.81	546.8	13333.7
939.91	546.7	13468
940.01	546.6	13378.1
940.11	546.5	13438.6
940.21	546.4	13258.4
940.31	546.3	13158.4
940.41	546.2	13228.8
940.51	546.1	13052.8
940.61	546	12922
940.71	545.9	12697.9
940.81	545.8	12540.4
940.91	545.7	12349.9
941.01	545.6	12135.4
941.11	545.5	11847.7
941.21	545.4	11491.7
941.31	545.3	11370.3
941.41	545.2	10981.5
941.51	545.1	10638.5
941.61	545	10474.6
941.71	544.9	9943.19
941.81	544.8	9606.71
941.91	544.7	9532.33
942.01	544.6	9177.7
942.11	544.5	8783.41
942.21	544.4	8547.23
942.31	544.3	8249.15
942.41	544.2	7809.91
942.51	544.1	7610.27
942.61	544	7493.64
942.71	543.9	7230.2
942.81	543.8	6962.51
942.91	543.7	6777.37
943.01	543.6	6404.63
943.11	543.5	6074.29
943.21	543.4	6040.25
943.31	543.3	5835.86
943.41	543.2	5719.51
943.51	543.1	5328.32
943.61	543	5256.48
943.71	542.9	5018.53
943.81	542.8	4990.09
943.91	542.7	4840.99
944.01	542.6	4749.34
944.11	542.5	4427.7
944.21	542.4	4332.35
944.31	542.3	4260.4
944.41	542.2	4108.95
944.51	542.1	3990.25
944.61	542	3850.75
944.71	541.9	3668.15
944.81	541.8	3491.45
944.91	541.7	3499.59
945.01	541.6	3526.24
945.11	541.5	3373.79
945.21	541.4	3161.08
945.31	541.3	3209.38
945.41	541.2	3032.67
945.51	541.1	2938.16
945.61	541	2875.55
945.71	540.9	2890.7
945.81	540.8	2924.44
945.91	540.7	2835.78
946.01	540.6	2701.42
946.11	540.5	2531.36
946.21	540.4	2330.4
946.31	540.3	2291.84
946.41	540.2	2372.37
946.51	540.1	2175.36
946.61	540	2201.5
946.71	539.9	2270.83
946.81	539.8	2089.82
946.91	539.7	2019.4
947.01	539.6	1931.13
947.11	539.5	1890.47
947.21	539.4	1960.4
947.31	539.3	2012.48
947.41	539.2	1926.11
947.51	539.1	1801.39
947.61	539	1779.27
947.71	538.9	1901.55
947.81	538.8	1922.23
947.91	538.7	1756.01
948.01	538.6	1641.79
948.11	538.5	1520.56
948.21	538.4	1616.14
948.31	538.3	1756.07
948.41	538.2	1622.79
948.51	538.1	1497.47
948.61	538	1484.99
948.71	537.9	1398.81
948.81	537.8	1478.19
948.91	537.7	1427.21
949.01	537.6	1312.48
949.11	537.5	1261.65
949.21	537.4	1324.22
949.31	537.3	1276.99
949.41	537.2	1312.46
949.51	537.1	1231.48
949.61	537	1217.5
949.71	536.9	1254.62
949.81	536.8	1197.78
949.91	536.7	1156.85
950.01	536.6	1125.67
950.11	536.5	1150.38
950.21	536.4	1076
950.31	536.3	1105.76
950.41	536.2	1214.92
950.51	536.1	1115.79
950.61	536	949.649
950.71	535.9	1085.81
950.81	535.8	1033.02
950.91	535.7	1067.38
951.01	535.6	980.394
951.11	535.5	1035.8
951.21	535.4	995.663
951.31	535.3	896.222
951.41	535.2	989.33
951.51	535.1	1014.54
951.61	535	1036.29
951.71	534.9	901.901
951.81	534.8	875.907
951.91	534.7	993.913
952.01	534.6	824.018
952.11	534.5	835.922
952.21	534.4	867.776
952.31	534.3	954.979
952.41	534.2	901.982
952.51	534.1	972.235
952.61	534	947.586
952.71	533.9	972.188
952.81	533.8	998.138
952.91	533.7	948.439
953.01	533.6	931.188
953.11	533.5	1062.14
953.21	533.4	1087.29
953.31	533.3	960.385
953.41	533.2	955.282
953.51	533.1	992.43
953.61	533	899.626
953.71	532.9	1030.22
953.81	532.8	1056.67
953.91	532.7	1049.36
954.01	532.6	1054.76
954.11	532.5	1133.55
954.21	532.4	1021.5
954.31	532.3	1006.59
954.41	532.2	967.982
954.51	532.1	922.325
954.61	532	896.567
954.71	531.9	760.408
954.81	531.8	831.699
954.91	531.7	865.289
955.01	531.6	891.929
955.11	531.5	755.319
955.21	531.4	663.408
955.31	531.3	584.096
955.41	531.2	805.434
955.51	531.1	724.222
955.61	531	678.609
955.71	530.9	577.146
955.81	530.8	508.032
955.91	530.7	524.968
956.01	530.6	570.103
956.11	530.5	574.938
956.21	530.4	590.872
956.31	530.3	439.606
956.41	530.2	492.99
956.51	530.1	525.473
956.61	530	498.905
956.71	529.9	420.237
956.81	529.8	432.369
956.91	529.7	427.201
957.01	529.6	481.581
957.11	529.5	546.012
957.21	529.4	460.742
957.31	529.3	448.871
957.41	529.2	501.75
957.51	529.1	399.679
957.61	529	588.107
957.71	528.9	527.135
957.81	528.8	433.513
957.91	528.7	511.99
958.01	528.6	564.766
958.11	528.5	439.143
958.21	528.4	446.318
958.31	528.3	320.244
958.41	528.2	367.969
958.51	528.1	407.793
958.61	528	351.217
958.71	527.9	355.691
958.81	527.8	342.164
958.91	527.7	415.487
959.01	527.6	369.76
959.11	527.5	375.682
959.21	527.4	345.254
959.31	527.3	336.625
959.41	527.2	439.296
959.51	527.1	301.967
959.61	527	303.737
959.71	526.9	366.507
959.81	526.8	388.426
959.91	526.7	197.395
960.01	526.6	263.364
960.11	526.5	243.182
960.21	526.4	299.25
960.31	526.3	367.517
960.41	526.2	332.384
960.51	526.1	376.251
960.61	526	386.368
960.71	525.9	398.234
960.81	525.8	397.699
960.91	525.7	411.665
961.01	525.6	280.53
961.11	525.5	285.594
961.21	525.4	370.608
961.31	525.3	366.372
961.41	525.2	265.736
961.51	525.1	273.099
961.61	525	245.762
961.71	524.9	389.474
961.81	524.8	267.886
961.91	524.7	361.948
962.01	524.6	305.81
962.11	524.5	317.221
962.21	524.4	297.681
962.31	524.3	228.742
962.41	524.2	297.152
962.51	524.1	241.362
962.61	524	220.771
962.71	523.9	293.98
962.81	523.8	265.339
962.91	523.7	364.697
963.01	523.6	300.606
963.11	523.5	213.313
963.21	523.4	268.821
963.31	523.3	235.328
963.41	523.2	364.585
963.51	523.1	378.491
963.61	523	209.498
963.71	522.9	248.504
963.81	522.8	243.009
963.91	522.7	252.414
964.01	522.6	289.469
964.11	522.5	312.474
964.21	522.4	229.878
964.31	522.3	273.483
964.41	522.2	264.336
964.51	522.1	182.74
964.61	522	130.043
964.71	521.9	215.346
964.81	521.8	278.299
964.91	521.7	265.051
965.01	521.6	295.353
965.11	521.5	230.155
965.21	521.4	151.606
965.31	521.3	301.157
965.41	521.2	225.358
965.51	521.1	273.259
965.61	521	318.409
965.71	520.9	351.709
965.81	520.8	282.059
965.91	520.7	208.809
966.01	520.6	233.208
966.11	520.5	95.3069
966.21	520.4	158.806
966.31	520.3	196.304
966.41	520.2	76.2524
966.51	520.1	95.7503
966.61	520	237.998
966.71	519.9	197.196
966.81	519.8	236.443
966.91	519.7	255.19
967.01	519.6	226.136
967.11	519.5	299.083
967.21	519.4	185.729
967.31	519.3	53.325
967.41	519.2	113.821
967.51	519.1	73.1162
967.61	519	186.161
967.71	518.9	148.356
967.81	518.8	230.001
967.91	518.7	150.096
968.01	518.6	285.24
968.11	518.5	114.734
968.21	518.4	331.228
968.31	518.3	311.472
968.41	518.2	163.815
968.51	518.1	216.058
968.61	518	127.151
968.71	517.9	112.894
968.81	517.8	227.687
968.91	517.7	197.129
969.01	517.6	74.221
969.11	517.5	140.763
969.21	517.4	206.405
969.31	517.3	174.146
969.41	517.2	143.387
969.51	517.1	86.5785
969.61	517	110.619
969.71	516.9	172.66
969.81	516.8	157.701
969.91	516.7	100.391
970.01	516.6	174.131
970.11	516.5	266.271
970.21	516.4	90.6606
970.31	516.3	157.5
970.41	516.2	94.2895
970.51	516.1	4.12869
970.61	516	165.118
970.71	515.9	-13.3935
970.81	515.8	90.0451
970.91	515.7	150.784
971.01	515.6	24.7719
971.11	515.5	170.86
971.21	515.4	264.698
971.31	515.3	200.136
971.41	515.2	126.623
971.51	515.1	184.361
971.61	515	145.548
971.71	514.9	135.885
971.81	514.8	166.822
971.91	514.7	228.209
972.01	514.6	168.296
972.11	514.5	102.932
972.21	514.4	124.368
972.31	514.3	142.555
972.41	514.2	12.2906
972.51	514.1	55.9265
972.61	514	90.4122
972.71	513.9	23.3978
972.81	513.8	15.8333
972.91	513.7	136.019
973.01	513.6	-2.99619
973.11	513.5	110.689
973.21	513.4	146.524
973.31	513.3	130.959
973.41	513.2	164.643
973.51	513.1	161.078
973.61	513	137.162
973.71	512.9	63.0465
973.81	512.8	93.6307
973.91	512.7	192.865
974.01	512.6	127.299
974.11	512.5	185.832
974.21	512.4	224.816
974.31	512.3	141.6
974.41	512.2	111.733
974.51	512.1	128.017
974.61	512	169.55
974.71	511.9	67.933
974.81	511.8	142.666
974.91	511.7	151.899
975.01	511.6	170.882
975.11	511.5	134.165
975.21	511.4	131.897
975.31	511.3	49.6299
975.41	511.2	294.262
975.51	511.1	213.395
975.61	511	86.127
975.71	510.9	-36.3408
975.81	510.8	107.441
975.91	510.7	89.8734
976.01	510.6	-79.3946
976.11	510.5	-78.4628
976.21	510.4	-35.5809
976.31	510.3	290.701
976.41	510.2	131.532
976.51	510.1	60.714
976.61	510	123.296
976.71	509.9	277.427
976.81	509.8	115.058
976.91	509.7	163.49
977.01	509.6	115.921
977.11	509.5	71.4522
977.21	509.4	90.3333
977.31	509.3	76.5144
977.41	509.2	107.195
977.51	509.1	-19.1736
977.61	509	38.3574
977.71	508.9	96.4883
977.81	508.8	115.419
977.91	508.7	34.2499
978.01	508.6	21.2806
978.11	508.5	55.4113
978.21	508.4	39.592
978.31	508.3	0.772645
978.41	508.2	78.8532
978.51	508.1	-19.6662
978.61	508	20.5143
978.71	507.9	55.4948
978.81	507.8	28.8253
978.91	507.7	148.356
979.01	507.6	155.236
979.11	507.5	23.6666
979.21	507.4	11.7469
979.31	507.3	93.1273
979.41	507.2	64.8076
979.51	507.1	88.338
979.61	507	224.818
979.71	506.9	176.799
979.81	506.8	57.7789
979.91	506.7	-1.34083
980.01	506.6	97.4894
980.11	506.5	150.47
980.21	506.4	0
980.31	506.3	0
980.41	506.2	0
980.51	506.1	0
980.61	506	0
980.71	505.9	0
980.81	505.8	0
980.91	505.7	0
981.01	505.6	0
981.11	505.5	0
981.21	505.4	0
981.31	505.3	0
981.41	505.2	0
981.51	505.1	0
981.61	505	0
981.71	504.9	0
981.81	504.8	0
981.91	504.7	0
982.01	504.6	0
982.11	504.5	0
982.21	504.4	0
982.31	504.3	0
982.41	504.2	0
982.51	504.1	0
982.61	504	0
982.71	503.9	0
982.81	503.8	0
982.91	503.7	0
983.01	503.6	0
983.11	503.5	0
983.21	503.4	0
983.31	503.3	0
983.41	503.2	0
983.51	503.1	0
983.61	503	0
983.71	502.9	0
983.81	502.8	0
983.91	502.7	0
984.01	502.6	0
984.11	502.5	0
984.21	502.4	0
984.31	502.3	0
984.41	502.2	0
984.51	502.1	0
984.61	502	0
984.71	501.9	0
984.81	501.8	0
984.91	501.7	0
985.01	501.6	0
985.11	501.5	0
985.21	501.4	0
985.31	501.3	0
985.41	501.2	0
985.51	501.1	0
985.61	501	0
985.71	500.9	0
985.81	500.8	0
985.91	500.7	0
986.01	500.6	0
986.11	500.5	0
986.21	500.4	0
986.31	500.3	0
986.41	500.2	0
986.51	500.1	0
986.61	500	0