c:\users\mark\owncloud\muelheim group\projects\gas phase background\ex340_cec356_cu n2 largearea.vms
Survey
	Characteristic Energy eV	1486.61	Acquisition Time s	0.95
KE_Survey	BE_Survey	CPS_Survey	Background_Survey
286.61	1200	13859.9	13859.9
287.11	1199.5	13874.3	13874.3
287.61	1199	13770.4	13770.4
288.11	1198.5	13872.8	13872.8
288.61	1198	13671.2	13671.2
289.11	1197.5	13854	13854
289.61	1197	13972.8	13972.8
290.11	1196.5	13726.1	13726.1
290.61	1196	13664.9	13664.9
291.11	1195.5	13798.6	13798.6
291.61	1195	13879.9	13879.9
292.11	1194.5	13858.1	13858.1
292.61	1194	13819.4	13819.4
293.11	1193.5	13913.2	13913.2
293.61	1193	13753.9	13753.9
294.11	1192.5	13684.3	13684.3
294.61	1192	13918	13918
295.11	1191.5	13845.6	13845.6
295.61	1191	13936.9	13936.9
296.11	1190.5	14002.6	14002.6
296.61	1190	14094.4	14094.4
297.11	1189.5	14022.3	14022.3
297.61	1189	13852.4	13852.4
298.11	1188.5	14004.2	14004.2
298.61	1188	13986.1	13986.1
299.11	1187.5	13861.5	13861.5
299.61	1187	13881.5	13881.5
300.11	1186.5	14098.9	14098.9
300.61	1186	14056.5	14056.5
301.11	1185.5	13920	13920
301.61	1185	14004.3	14004.3
302.11	1184.5	14078.7	14078.7
302.61	1184	13992	13992
303.11	1183.5	13930.2	13930.2
303.61	1183	13965.1	13965.1
304.11	1182.5	14004.5	14004.5
304.61	1182	14064.7	14064.7
305.11	1181.5	14116.2	14116.2
305.61	1181	14160	14160
306.11	1180.5	14085.2	14085.2
306.61	1180	14093.4	14093.4
307.11	1179.5	14126.3	14126.3
307.61	1179	13959.7	13959.7
308.11	1178.5	13977.1	13977.1
308.61	1178	14256.5	14256.5
309.11	1177.5	14266.8	14266.8
309.61	1177	14324.8	14324.8
310.11	1176.5	14154.7	14154.7
310.61	1176	14156.1	14156.1
311.11	1175.5	14074.6	14074.6
311.61	1175	14009.5	14009.5
312.11	1174.5	14128.7	14128.7
312.61	1174	14311.9	14311.9
313.11	1173.5	14326.2	14326.2
313.61	1173	14112	14112
314.11	1172.5	14108.8	14108.8
314.61	1172	14280.7	14280.7
315.11	1171.5	14166.2	14166.2
315.61	1171	14264.1	14264.1
316.11	1170.5	14501.6	14501.6
316.61	1170	14379.2	14379.2
317.11	1169.5	14459.5	14459.5
317.61	1169	14425.2	14425.2
318.11	1168.5	14471.5	14471.5
318.61	1168	14407.3	14407.3
319.11	1167.5	14378.8	14378.8
319.61	1167	14362	14362
320.11	1166.5	14666.5	14666.5
320.61	1166	14535.7	14535.7
321.11	1165.5	14562.6	14562.6
321.61	1165	14574.1	14574.1
322.11	1164.5	14557.2	14557.2
322.61	1164	14558.5	14558.5
323.11	1163.5	14556.5	14556.5
323.61	1163	14506.8	14506.8
324.11	1162.5	14542.1	14542.1
324.61	1162	14485.8	14485.8
325.11	1161.5	14497.2	14497.2
325.61	1161	14664.9	14664.9
326.11	1160.5	14726.7	14726.7
326.61	1160	14740.3	14740.3
327.11	1159.5	14746.4	14746.4
327.61	1159	14578.3	14578.3
328.11	1158.5	14619.5	14619.5
328.61	1158	14736.6	14736.6
329.11	1157.5	14727.3	14727.3
329.61	1157	14796.6	14796.6
330.11	1156.5	14684.3	14684.3
330.61	1156	14740.8	14740.8
331.11	1155.5	14800.4	14800.4
331.61	1155	14922.2	14922.2
332.11	1154.5	14712.7	14712.7
332.61	1154	14704.5	14704.5
333.11	1153.5	14746.3	14746.3
333.61	1153	14876.7	14876.7
334.11	1152.5	14851.5	14851.5
334.61	1152	14886.4	14886.4
335.11	1151.5	15062.1	15062.1
335.61	1151	14943.2	14943.2
336.11	1150.5	14898.8	14898.8
336.61	1150	14977.8	14977.8
337.11	1149.5	14985.3	14985.3
337.61	1149	15068	15068
338.11	1148.5	15088.5	15088.5
338.61	1148	15027.5	15027.5
339.11	1147.5	15002.7	15002.7
339.61	1147	14999.5	14999.5
340.11	1146.5	15044.5	15044.5
340.61	1146	15094.2	15094.2
341.11	1145.5	15124.9	15124.9
341.61	1145	14915.4	14915.4
342.11	1144.5	15135.4	15135.4
342.61	1144	15077.6	15077.6
343.11	1143.5	15144.1	15144.1
343.61	1143	15094.8	15094.8
344.11	1142.5	15218.3	15218.3
344.61	1142	15350.2	15350.2
345.11	1141.5	15348.4	15348.4
345.61	1141	15130.5	15130.5
346.11	1140.5	15199.8	15199.8
346.61	1140	15346.5	15346.5
347.11	1139.5	15387.7	15387.7
347.61	1139	15426.2	15426.2
348.11	1138.5	15410.2	15410.2
348.61	1138	15294	15294
349.11	1137.5	15467.4	15467.4
349.61	1137	15305.1	15305.1
350.11	1136.5	15384.8	15384.8
350.61	1136	15478.7	15478.7
351.11	1135.5	15460.9	15460.9
351.61	1135	15512.7	15512.7
352.11	1134.5	15506.2	15506.2
352.61	1134	15415.2	15415.2
353.11	1133.5	15457.9	15457.9
353.61	1133	15538.1	15538.1
354.11	1132.5	15508.1	15508.1
354.61	1132	15446	15446
355.11	1131.5	15661.6	15661.6
355.61	1131	15649.1	15649.1
356.11	1130.5	15622.2	15622.2
356.61	1130	15643.5	15643.5
357.11	1129.5	15701.7	15701.7
357.61	1129	15758.9	15758.9
358.11	1128.5	15783.9	15783.9
358.61	1128	15682.9	15682.9
359.11	1127.5	15936.3	15936.3
359.61	1127	15594.8	15594.8
360.11	1126.5	15610.8	15610.8
360.61	1126	15780.1	15780.1
361.11	1125.5	15890.9	15890.9
361.61	1125	15731.7	15731.7
362.11	1124.5	16027.6	16027.6
362.61	1124	15712	15712
363.11	1123.5	15861.5	15861.5
363.61	1123	15843.2	15843.2
364.11	1122.5	15896.6	15896.6
364.61	1122	16023.5	16023.5
365.11	1121.5	15904.2	15904.2
365.61	1121	15842.3	15842.3
366.11	1120.5	15887.9	15887.9
366.61	1120	15924.8	15924.8
367.11	1119.5	16020.2	16020.2
367.61	1119	15949.5	15949.5
368.11	1118.5	15966.4	15966.4
368.61	1118	15936.6	15936.6
369.11	1117.5	16240.8	16240.8
369.61	1117	16192	16192
370.11	1116.5	16053.5	16053.5
370.61	1116	16036.5	16036.5
371.11	1115.5	16289.8	16289.8
371.61	1115	16240	16240
372.11	1114.5	16114.8	16114.8
372.61	1114	16147.4	16147.4
373.11	1113.5	15972.4	15972.4
373.61	1113	16061.6	16061.6
374.11	1112.5	16260.2	16260.2
374.61	1112	16369.5	16369.5
375.11	1111.5	16125.7	16125.7
375.61	1111	16034.6	16034.6
376.11	1110.5	16080.5	16080.5
376.61	1110	16160	16160
377.11	1109.5	16181.3	16181.3
377.61	1109	16060.9	16060.9
378.11	1108.5	16186.7	16186.7
378.61	1108	16021.2	16021.2
379.11	1107.5	15955.6	15955.6
379.61	1107	16058.4	16058.4
380.11	1106.5	16140.9	16140.9
380.61	1106	16253.2	16253.2
381.11	1105.5	16085.7	16085.7
381.61	1105	16092.8	16092.8
382.11	1104.5	16229.2	16229.2
382.61	1104	16399.1	16399.1
383.11	1103.5	16189.6	16189.6
383.61	1103	16240.7	16240.7
384.11	1102.5	16213.7	16213.7
384.61	1102	16345.6	16345.6
385.11	1101.5	16546.4	16546.4
385.61	1101	16645.2	16645.2
386.11	1100.5	16675.5	16675.5
386.61	1100	17063.1	17063.1
387.11	1099.5	17209.6	17209.6
387.61	1099	17524.7	17524.7
388.11	1098.5	17957.2	17957.2
388.61	1098	18240.7	18240.7
389.11	1097.5	18266.5	18266.5
389.61	1097	18515.3	18515.3
390.11	1096.5	18587.5	18587.5
390.61	1096	18534.9	18534.9
391.11	1095.5	18101.5	18101.5
391.61	1095	17583.2	17583.2
392.11	1094.5	17164.4	17164.4
392.61	1094	16922.1	16922.1
393.11	1093.5	16758.4	16758.4
393.61	1093	16457.2	16457.2
394.11	1092.5	16325.2	16325.2
394.61	1092	16274.3	16274.3
395.11	1091.5	15974.4	15974.4
395.61	1091	15909.2	15909.2
396.11	1090.5	15770.5	15770.5
396.61	1090	15603.2	15603.2
397.11	1089.5	15431.8	15431.8
397.61	1089	15655.3	15655.3
398.11	1088.5	15374.5	15374.5
398.61	1088	15469.4	15469.4
399.11	1087.5	15401.5	15401.5
399.61	1087	15314.8	15314.8
400.11	1086.5	15246.7	15246.7
400.61	1086	15260	15260
401.11	1085.5	15223.4	15223.4
401.61	1085	15312.6	15312.6
402.11	1084.5	15455.2	15455.2
402.61	1084	15226.4	15226.4
403.11	1083.5	14995.5	14995.5
403.61	1083	15006.9	15006.9
404.11	1082.5	15329.7	15329.7
404.61	1082	15397.4	15397.4
405.11	1081.5	15177.7	15177.7
405.61	1081	15289.6	15289.6
406.11	1080.5	15264.1	15264.1
406.61	1080	15259.1	15259.1
407.11	1079.5	15314.4	15314.4
407.61	1079	15371.6	15371.6
408.11	1078.5	15249.9	15249.9
408.61	1078	15351.7	15351.7
409.11	1077.5	15353.2	15353.2
409.61	1077	15252.7	15252.7
410.11	1076.5	15236.2	15236.2
410.61	1076	15179.7	15179.7
411.11	1075.5	15270.5	15270.5
411.61	1075	15292.6	15292.6
412.11	1074.5	15355.8	15355.8
412.61	1074	15506.1	15506.1
413.11	1073.5	15372.8	15372.8
413.61	1073	15442.8	15442.8
414.11	1072.5	15475.8	15475.8
414.61	1072	15368.8	15368.8
415.11	1071.5	15561.6	15561.6
415.61	1071	15468.1	15468.1
416.11	1070.5	15431.9	15431.9
416.61	1070	15354.4	15354.4
417.11	1069.5	15380.4	15380.4
417.61	1069	15376.4	15376.4
418.11	1068.5	15525.4	15525.4
418.61	1068	15583.6	15583.6
419.11	1067.5	15674.4	15674.4
419.61	1067	15610.3	15610.3
420.11	1066.5	15641.2	15641.2
420.61	1066	15610.1	15610.1
421.11	1065.5	15593.9	15593.9
421.61	1065	15610.1	15610.1
422.11	1064.5	15438.7	15438.7
422.61	1064	15495.3	15495.3
423.11	1063.5	15784.8	15784.8
423.61	1063	15625.2	15625.2
424.11	1062.5	15629.4	15629.4
424.61	1062	15700.9	15700.9
425.11	1061.5	15802.8	15802.8
425.61	1061	15742.5	15742.5
426.11	1060.5	15631.3	15631.3
426.61	1060	15605.6	15605.6
427.11	1059.5	15820.6	15820.6
427.61	1059	15580.6	15580.6
428.11	1058.5	15635.6	15635.6
428.61	1058	15850.8	15850.8
429.11	1057.5	15741.4	15741.4
429.61	1057	15676.5	15676.5
430.11	1056.5	15828.7	15828.7
430.61	1056	15799.7	15799.7
431.11	1055.5	16002.6	16002.6
431.61	1055	15990.6	15990.6
432.11	1054.5	15874.6	15874.6
432.61	1054	15767.2	15767.2
433.11	1053.5	15931.4	15931.4
433.61	1053	16009.9	16009.9
434.11	1052.5	16014	16014
434.61	1052	15915.3	15915.3
435.11	1051.5	16039.1	16039.1
435.61	1051	15889.9	15889.9
436.11	1050.5	15914.9	15914.9
436.61	1050	15954.5	15954.5
437.11	1049.5	16200	16200
437.61	1049	16115.9	16115.9
438.11	1048.5	16162.6	16162.6
438.61	1048	16084.9	16084.9
439.11	1047.5	16088.5	16088.5
439.61	1047	16119.9	16119.9
440.11	1046.5	16027.9	16027.9
440.61	1046	16335.4	16335.4
441.11	1045.5	16205.6	16205.6
441.61	1045	16194.1	16194.1
442.11	1044.5	16454	16454
442.61	1044	16145.7	16145.7
443.11	1043.5	16226.2	16226.2
443.61	1043	15913.5	15913.5
444.11	1042.5	16163.6	16163.6
444.61	1042	16344.8	16344.8
445.11	1041.5	16397.8	16397.8
445.61	1041	16189.2	16189.2
446.11	1040.5	16154.1	16154.1
446.61	1040	16293.7	16293.7
447.11	1039.5	16220.6	16220.6
447.61	1039	16306.7	16306.7
448.11	1038.5	16433.8	16433.8
448.61	1038	16458.4	16458.4
449.11	1037.5	16494.6	16494.6
449.61	1037	16494.9	16494.9
450.11	1036.5	16552.8	16552.8
450.61	1036	16429.5	16429.5
451.11	1035.5	16486.8	16486.8
451.61	1035	16482.1	16482.1
452.11	1034.5	16466.7	16466.7
452.61	1034	16583.7	16583.7
453.11	1033.5	16746.8	16746.8
453.61	1033	16574.7	16574.7
454.11	1032.5	16773.6	16773.6
454.61	1032	16636.4	16636.4
455.11	1031.5	16624.2	16624.2
455.61	1031	16610.3	16610.3
456.11	1030.5	16795.1	16795.1
456.61	1030	16827.6	16827.6
457.11	1029.5	16730.5	16730.5
457.61	1029	16674.3	16674.3
458.11	1028.5	16748.4	16748.4
458.61	1028	16749.4	16749.4
459.11	1027.5	16840.6	16840.6
459.61	1027	16840.6	16840.6
460.11	1026.5	16615.7	16615.7
460.61	1026	16825.6	16825.6
461.11	1025.5	17006.3	17006.3
461.61	1025	17067.3	17067.3
462.11	1024.5	17069.5	17069.5
462.61	1024	16914.1	16914.1
463.11	1023.5	16910.2	16910.2
463.61	1023	17009.4	17009.4
464.11	1022.5	16954.6	16954.6
464.61	1022	17115.4	17115.4
465.11	1021.5	17026.7	17026.7
465.61	1021	17053.5	17053.5
466.11	1020.5	17100.1	17100.1
466.61	1020	17158.5	17158.5
467.11	1019.5	17287.8	17287.8
467.61	1019	17225.2	17225.2
468.11	1018.5	17154.6	17154.6
468.61	1018	17248.6	17248.6
469.11	1017.5	17283.8	17283.8
469.61	1017	17372.2	17372.2
470.11	1016.5	17523.1	17523.1
470.61	1016	17134.1	17134.1
471.11	1015.5	17331.7	17331.7
471.61	1015	17462.8	17462.8
472.11	1014.5	17501.4	17501.4
472.61	1014	17472.3	17472.3
473.11	1013.5	17472.6	17472.6
473.61	1013	17470.9	17470.9
474.11	1012.5	17351.8	17351.8
474.61	1012	17490	17490
475.11	1011.5	17574.3	17574.3
475.61	1011	17692.8	17692.8
476.11	1010.5	17483.8	17483.8
476.61	1010	17650.7	17650.7
477.11	1009.5	17528.8	17528.8
477.61	1009	17572.8	17572.8
478.11	1008.5	17792.2	17792.2
478.61	1008	17612	17612
479.11	1007.5	17725.2	17725.2
479.61	1007	17907.4	17907.4
480.11	1006.5	17857.8	17857.8
480.61	1006	17976.5	17976.5
481.11	1005.5	18116.1	18116.1
481.61	1005	18028.8	18028.8
482.11	1004.5	18089.5	18089.5
482.61	1004	18175.3	18175.3
483.11	1003.5	18185.2	18185.2
483.61	1003	18236.2	18236.2
484.11	1002.5	18185.7	18185.7
484.61	1002	18161.9	18161.9
485.11	1001.5	18258.3	18258.3
485.61	1001	18281.7	18281.7
486.11	1000.5	18386.5	18386.5
486.61	1000	18417.8	18417.8
487.11	999.5	18452.4	18452.4
487.61	999	18433.2	18433.2
488.11	998.5	18445.4	18445.4
488.61	998	18532.1	18532.1
489.11	997.5	18645.2	18645.2
489.61	997	18489.1	18489.1
490.11	996.5	18614.9	18614.9
490.61	996	18725.6	18725.6
491.11	995.5	18560	18560
491.61	995	18658.5	18658.5
492.11	994.5	18750.2	18750.2
492.61	994	18512.2	18512.2
493.11	993.5	18394.2	18394.2
493.61	993	18708.3	18708.3
494.11	992.5	18725.6	18725.6
494.61	992	19012.7	19012.7
495.11	991.5	18800.2	18800.2
495.61	991	18641.6	18641.6
496.11	990.5	18808.2	18808.2
496.61	990	18721.8	18721.8
497.11	989.5	18866.1	18866.1
497.61	989	18838.5	18838.5
498.11	988.5	19131.4	19131.4
498.61	988	19169.8	19169.8
499.11	987.5	19215.4	19215.4
499.61	987	19304.6	19304.6
500.11	986.5	19218.6	19218.6
500.61	986	19194.2	19194.2
501.11	985.5	19321.6	19321.6
501.61	985	19446.7	19446.7
502.11	984.5	19470.1	19470.1
502.61	984	19662.3	19662.3
503.11	983.5	19617.4	19617.4
503.61	983	19606.2	19606.2
504.11	982.5	19870.8	19870.8
504.61	982	19956.3	19956.3
505.11	981.5	19918	19918
505.61	981	19744.8	19744.8
506.11	980.5	19970.4	19970.4
506.61	980	19777.7	19777.7
507.11	979.5	19940.3	19940.3
507.61	979	20128.5	20128.5
508.11	978.5	20184	20184
508.61	978	20005.3	20005.3
509.11	977.5	20087.7	20087.7
509.61	977	20306.1	20306.1
510.11	976.5	20341.9	20341.9
510.61	976	20579.4	20579.4
511.11	975.5	20482	20482
511.61	975	20417.1	20417.1
512.11	974.5	20729.5	20729.5
512.61	974	20888.3	20888.3
513.11	973.5	20885.8	20885.8
513.61	973	20714	20714
514.11	972.5	20733.2	20733.2
514.61	972	20775.9	20775.9
515.11	971.5	20910.5	20910.5
515.61	971	20820.4	20820.4
516.11	970.5	20855.2	20855.2
516.61	970	20720.7	20720.7
517.11	969.5	20790.5	20790.5
517.61	969	20700	20700
518.11	968.5	20372	20372
518.61	968	20304.9	20304.9
519.11	967.5	20461.6	20461.6
519.61	967	20530.5	20530.5
520.11	966.5	20713.5	20713.5
520.61	966	20672.9	20672.9
521.11	965.5	20681.8	20681.8
521.61	965	20730	20730
522.11	964.5	20772.9	20772.9
522.61	964	20402.2	20402.2
523.11	963.5	20157.3	20157.3
523.61	963	19952.9	19952.9
524.11	962.5	20048.6	20048.6
524.61	962	19849.8	19849.8
525.11	961.5	19828.1	19828.1
525.61	961	19820.4	19820.4
526.11	960.5	19828.3	19828.3
526.61	960	19573.3	19573.3
527.11	959.5	19850.6	19850.6
527.61	959	20117.7	20117.7
528.11	958.5	19944.6	19944.6
528.61	958	20142.8	20142.8
529.11	957.5	20354.5	20354.5
529.61	957	20601.9	20601.9
530.11	956.5	21014.5	21014.5
530.61	956	21374.6	21374.6
531.11	955.5	21566.5	21566.5
531.61	955	22300.9	22300.9
532.11	954.5	23809.7	23809.7
532.61	954	26615.5	26615.5
533.11	953.5	32554.2	32554.2
533.61	953	43156	43156
534.11	952.5	49423.5	49423.5
534.61	952	40684.5	40684.5
535.11	951.5	29726.8	29726.8
535.61	951	23999.6	23999.6
536.11	950.5	21523.2	21523.2
536.61	950	20328.4	20328.4
537.11	949.5	19437.5	19437.5
537.61	949	18723.3	18723.3
538.11	948.5	18367.7	18367.7
538.61	948	18002.7	18002.7
539.11	947.5	18123.5	18123.5
539.61	947	17946.8	17946.8
540.11	946.5	17997.9	17997.9
540.61	946	17829.5	17829.5
541.11	945.5	17442.1	17442.1
541.61	945	16891.7	16891.7
542.11	944.5	16896.9	16896.9
542.61	944	16589.4	16589.4
543.11	943.5	16249.1	16249.1
543.61	943	16154.6	16154.6
544.11	942.5	15610.1	15610.1
544.61	942	15254.7	15254.7
545.11	941.5	14783.9	14783.9
545.61	941	14565.8	14565.8
546.11	940.5	14475.4	14475.4
546.61	940	14473.8	14473.8
547.11	939.5	14351.3	14351.3
547.61	939	14283.2	14283.2
548.11	938.5	14648.1	14648.1
548.61	938	14740.7	14740.7
549.11	937.5	15046.9	15046.9
549.61	937	15411.8	15411.8
550.11	936.5	15606.9	15606.9
550.61	936	15755.5	15755.5
551.11	935.5	16141.2	16141.2
551.61	935	16528.6	16528.6
552.11	934.5	18414.7	18414.7
552.61	934	24369.2	24369.2
553.11	933.5	44322.8	44322.8
553.61	933	90274.1	90274.1
554.11	932.5	93871.2	93871.2
554.61	932	43970.1	43970.1
555.11	931.5	21316.5	21316.5
555.61	931	15234.3	15234.3
556.11	930.5	12773.9	12773.9
556.61	930	11664	11664
557.11	929.5	10912.6	10912.6
557.61	929	10633.9	10633.9
558.11	928.5	10527.9	10527.9
558.61	928	10353.5	10353.5
559.11	927.5	10198.4	10198.4
559.61	927	10121.4	10121.4
560.11	926.5	9832.46	9832.46
560.61	926	9745.56	9745.56
561.11	925.5	9939.8	9939.8
561.61	925	9908.52	9908.52
562.11	924.5	9857.35	9857.35
562.61	924	9741.43	9741.43
563.11	923.5	9795.8	9795.8
563.61	923	9854.87	9854.87
564.11	922.5	9843.19	9843.19
564.61	922	9751.2	9751.2
565.11	921.5	9669.28	9669.28
565.61	921	9805.12	9805.12
566.11	920.5	9873.98	9873.98
566.61	920	9764.8	9764.8
567.11	919.5	9703.34	9703.34
567.61	919	9897.56	9897.56
568.11	918.5	9834.38	9834.38
568.61	918	9748.59	9748.59
569.11	917.5	9796.19	9796.19
569.61	917	9802.28	9802.28
570.11	916.5	9835.98	9835.98
570.61	916	9825.96	9825.96
571.11	915.5	9882.77	9882.77
571.61	915	9811.09	9811.09
572.11	914.5	9739.41	9739.41
572.61	914	9863.84	9863.84
573.11	913.5	9813.49	9813.49
573.61	913	9792.18	9792.18
574.11	912.5	9720.51	9720.51
574.61	912	9848.25	9848.25
575.11	911.5	9820.43	9820.43
575.61	911	9910.63	9910.63
576.11	910.5	9915.99	9915.99
576.61	910	9875.62	9875.62
577.11	909.5	9737.39	9737.39
577.61	909	9834.08	9834.08
578.11	908.5	9730.35	9730.35
578.61	908	9773.27	9773.27
579.11	907.5	9891.56	9891.56
579.61	907	9893.32	9893.32
580.11	906.5	9844.15	9844.15
580.61	906	9759.45	9759.45
581.11	905.5	9845.39	9845.39
581.61	905	10022.9	10022.9
582.11	904.5	9921.74	9921.74
582.61	904	9933.21	9933.21
583.11	903.5	9898.77	9898.77
583.61	903	10003.6	10003.6
584.11	902.5	9990.69	9990.69
584.61	902	9695.95	9695.95
585.11	901.5	9899.16	9899.16
585.61	901	9957.83	9957.83
586.11	900.5	10112.6	10112.6
586.61	900	10048	10048
587.11	899.5	10010.3	10010.3
587.61	899	10010.4	10010.4
588.11	898.5	10024.6	10024.6
588.61	898	9845.57	9845.57
589.11	897.5	9857.72	9857.72
589.61	897	9848.94	9848.94
590.11	896.5	9997.59	9997.59
590.61	896	10043.8	10043.8
591.11	895.5	9994.8	9994.8
591.61	895	10078.8	10078.8
592.11	894.5	10079.4	10079.4
592.61	894	10008.4	10008.4
593.11	893.5	10060.8	10060.8
593.61	893	9974.56	9974.56
594.11	892.5	9980.61	9980.61
594.61	892	10129.3	10129.3
595.11	891.5	10093.8	10093.8
595.61	891	10038.9	10038.9
596.11	890.5	10013.3	10013.3
596.61	890	10189.7	10189.7
597.11	889.5	10199.6	10199.6
597.61	889	10126.8	10126.8
598.11	888.5	10115.2	10115.2
598.61	888	10106.7	10106.7
599.11	887.5	10096.6	10096.6
599.61	887	10217.4	10217.4
600.11	886.5	10163.4	10163.4
600.61	886	10044.9	10044.9
601.11	885.5	10325.3	10325.3
601.61	885	10244.7	10244.7
602.11	884.5	10125.9	10125.9
602.61	884	10015.8	10015.8
603.11	883.5	10101.5	10101.5
603.61	883	10339.5	10339.5
604.11	882.5	10366.6	10366.6
604.61	882	10334.7	10334.7
605.11	881.5	10226.7	10226.7
605.61	881	10237.1	10237.1
606.11	880.5	10340.3	10340.3
606.61	880	10277.9	10277.9
607.11	879.5	10378.3	10378.3
607.61	879	10298.1	10298.1
608.11	878.5	10227.7	10227.7
608.61	878	10261.5	10261.5
609.11	877.5	10187.7	10187.7
609.61	877	10265.4	10265.4
610.11	876.5	10223.1	10223.1
610.61	876	10455.5	10455.5
611.11	875.5	10411	10411
611.61	875	10415.3	10415.3
612.11	874.5	10306.3	10306.3
612.61	874	10351.1	10351.1
613.11	873.5	10266.2	10266.2
613.61	873	10385.8	10385.8
614.11	872.5	10337.7	10337.7
614.61	872	10354	10354
615.11	871.5	10502.4	10502.4
615.61	871	10522.4	10522.4
616.11	870.5	10219.9	10219.9
616.61	870	10561.9	10561.9
617.11	869.5	10354.3	10354.3
617.61	869	10534.9	10534.9
618.11	868.5	10458.1	10458.1
618.61	868	10467.1	10467.1
619.11	867.5	10564.8	10564.8
619.61	867	10501.5	10501.5
620.11	866.5	10381.3	10381.3
620.61	866	10564.3	10564.3
621.11	865.5	10626.6	10626.6
621.61	865	10559.5	10559.5
622.11	864.5	10484.6	10484.6
622.61	864	10542	10542
623.11	863.5	10674	10674
623.61	863	10537.4	10537.4
624.11	862.5	10471	10471
624.61	862	10438.7	10438.7
625.11	861.5	10470.2	10470.2
625.61	861	10626.7	10626.7
626.11	860.5	10650.7	10650.7
626.61	860	10686.7	10686.7
627.11	859.5	10653.5	10653.5
627.61	859	10617.5	10617.5
628.11	858.5	10660.3	10660.3
628.61	858	10555.3	10555.3
629.11	857.5	10640.5	10640.5
629.61	857	10662.8	10662.8
630.11	856.5	10765.9	10765.9
630.61	856	10705.5	10705.5
631.11	855.5	10881.3	10881.3
631.61	855	10741.9	10741.9
632.11	854.5	10701.2	10701.2
632.61	854	10835.5	10835.5
633.11	853.5	10739.6	10739.6
633.61	853	10676	10676
634.11	852.5	10735.6	10735.6
634.61	852	10795.6	10795.6
635.11	851.5	10751.8	10751.8
635.61	851	10857.2	10857.2
636.11	850.5	10911.9	10911.9
636.61	850	10924	10924
637.11	849.5	10908.5	10908.5
637.61	849	10836.7	10836.7
638.11	848.5	10924.3	10924.3
638.61	848	10817.5	10817.5
639.11	847.5	10885.7	10885.7
639.61	847	10801.2	10801.2
640.11	846.5	10976.5	10976.5
640.61	846	10990.6	10990.6
641.11	845.5	10797.2	10797.2
641.61	845	10903.8	10903.8
642.11	844.5	10953.6	10953.6
642.61	844	10768.6	10768.6
643.11	843.5	10918.4	10918.4
643.61	843	11049.1	11049.1
644.11	842.5	10966.1	10966.1
644.61	842	10959.5	10959.5
645.11	841.5	10966.3	10966.3
645.61	841	11001.5	11001.5
646.11	840.5	11002.2	11002.2
646.61	840	10989.7	10989.7
647.11	839.5	11013.7	11013.7
647.61	839	10881.3	10881.3
648.11	838.5	10927.5	10927.5
648.61	838	11161.3	11161.3
649.11	837.5	11066.2	11066.2
649.61	837	11020.4	11020.4
650.11	836.5	11254.2	11254.2
650.61	836	11049.3	11049.3
651.11	835.5	11112	11112
651.61	835	11034.8	11034.8
652.11	834.5	10983.4	10983.4
652.61	834	11050.1	11050.1
653.11	833.5	11234.9	11234.9
653.61	833	11225.8	11225.8
654.11	832.5	11073.4	11073.4
654.61	832	11253.4	11253.4
655.11	831.5	11218.4	11218.4
655.61	831	11180.6	11180.6
656.11	830.5	11089.2	11089.2
656.61	830	11277.8	11277.8
657.11	829.5	11270.7	11270.7
657.61	829	11267.6	11267.6
658.11	828.5	11315.4	11315.4
658.61	828	11261.4	11261.4
659.11	827.5	11261.5	11261.5
659.61	827	11248.9	11248.9
660.11	826.5	11485.5	11485.5
660.61	826	11341.2	11341.2
661.11	825.5	11260.7	11260.7
661.61	825	11448.2	11448.2
662.11	824.5	11346.9	11346.9
662.61	824	11294.8	11294.8
663.11	823.5	11439.8	11439.8
663.61	823	11336.6	11336.6
664.11	822.5	11384.7	11384.7
664.61	822	11394.9	11394.9
665.11	821.5	11552.7	11552.7
665.61	821	11630.1	11630.1
666.11	820.5	11501.7	11501.7
666.61	820	11416.3	11416.3
667.11	819.5	11488.1	11488.1
667.61	819	11465.1	11465.1
668.11	818.5	11555.4	11555.4
668.61	818	11443.4	11443.4
669.11	817.5	11541.4	11541.4
669.61	817	11340.5	11340.5
670.11	816.5	11636	11636
670.61	816	11682	11682
671.11	815.5	11640.9	11640.9
671.61	815	11423.4	11423.4
672.11	814.5	11559.8	11559.8
672.61	814	11682.6	11682.6
673.11	813.5	11748.7	11748.7
673.61	813	11760.1	11760.1
674.11	812.5	11684.7	11684.7
674.61	812	11791.3	11791.3
675.11	811.5	11803.4	11803.4
675.61	811	11702.3	11702.3
676.11	810.5	11772.8	11772.8
676.61	810	11837.2	11837.2
677.11	809.5	11825.2	11825.2
677.61	809	11793.3	11793.3
678.11	808.5	11886.7	11886.7
678.61	808	11751.4	11751.4
679.11	807.5	11731.7	11731.7
679.61	807	11861.9	11861.9
680.11	806.5	11896.2	11896.2
680.61	806	11745.4	11745.4
681.11	805.5	11905.3	11905.3
681.61	805	11811.5	11811.5
682.11	804.5	12102.3	12102.3
682.61	804	11900.7	11900.7
683.11	803.5	11894.4	11894.4
683.61	803	11939.8	11939.8
684.11	802.5	11787.6	11787.6
684.61	802	12003.3	12003.3
685.11	801.5	11972.7	11972.7
685.61	801	11911.2	11911.2
686.11	800.5	12065.6	12065.6
686.61	800	12006.1	12006.1
687.11	799.5	12158.3	12158.3
687.61	799	12204.5	12204.5
688.11	798.5	11936.5	11936.5
688.61	798	12029.4	12029.4
689.11	797.5	11990.8	11990.8
689.61	797	12044	12044
690.11	796.5	12158.3	12158.3
690.61	796	12151.9	12151.9
691.11	795.5	12254.4	12254.4
691.61	795	12250.4	12250.4
692.11	794.5	12111.2	12111.2
692.61	794	12200.4	12200.4
693.11	793.5	12206.7	12206.7
693.61	793	12216.7	12216.7
694.11	792.5	12294.4	12294.4
694.61	792	12306.8	12306.8
695.11	791.5	12232.2	12232.2
695.61	791	12281.8	12281.8
696.11	790.5	12263.2	12263.2
696.61	790	12291.7	12291.7
697.11	789.5	12454.3	12454.3
697.61	789	12395.9	12395.9
698.11	788.5	12411.8	12411.8
698.61	788	12480.2	12480.2
699.11	787.5	12343.8	12343.8
699.61	787	12360.6	12360.6
700.11	786.5	12288.1	12288.1
700.61	786	12442.7	12442.7
701.11	785.5	12565.3	12565.3
701.61	785	12523.7	12523.7
702.11	784.5	12739.2	12739.2
702.61	784	12664.6	12664.6
703.11	783.5	12650	12650
703.61	783	12560.4	12560.4
704.11	782.5	12609.5	12609.5
704.61	782	12646.1	12646.1
705.11	781.5	12800	12800
705.61	781	12802.4	12802.4
706.11	780.5	12776.5	12776.5
706.61	780	12917.7	12917.7
707.11	779.5	12677.2	12677.2
707.61	779	12802.6	12802.6
708.11	778.5	12840.9	12840.9
708.61	778	12993.8	12993.8
709.11	777.5	13095.6	13095.6
709.61	777	12923.5	12923.5
710.11	776.5	12876	12876
710.61	776	13047.3	13047.3
711.11	775.5	13096.9	13096.9
711.61	775	13203.3	13203.3
712.11	774.5	13138.7	13138.7
712.61	774	12999.9	12999.9
713.11	773.5	13164.7	13164.7
713.61	773	13197.1	13197.1
714.11	772.5	13290.1	13290.1
714.61	772	13329.1	13329.1
715.11	771.5	13387.1	13387.1
715.61	771	13370.4	13370.4
716.11	770.5	13546.6	13546.6
716.61	770	13560.1	13560.1
717.11	769.5	13473.7	13473.7
717.61	769	13508.4	13508.4
718.11	768.5	13539.2	13539.2
718.61	768	13586	13586
719.11	767.5	13368.3	13368.3
719.61	767	13283.3	13283.3
720.11	766.5	13194.3	13194.3
720.61	766	13297.2	13297.2
721.11	765.5	13131.3	13131.3
721.61	765	13164.8	13164.8
722.11	764.5	13058.4	13058.4
722.61	764	13225.4	13225.4
723.11	763.5	13137.8	13137.8
723.61	763	13145.8	13145.8
724.11	762.5	13209.4	13209.4
724.61	762	13212.1	13212.1
725.11	761.5	13385.7	13385.7
725.61	761	13603.1	13603.1
726.11	760.5	13513.8	13513.8
726.61	760	13436.7	13436.7
727.11	759.5	13420.1	13420.1
727.61	759	13527.2	13527.2
728.11	758.5	13568.1	13568.1
728.61	758	13661.5	13661.5
729.11	757.5	13804	13804
729.61	757	13778.9	13778.9
730.11	756.5	13894.5	13894.5
730.61	756	13994.7	13994.7
731.11	755.5	13897.3	13897.3
731.61	755	13837.1	13837.1
732.11	754.5	13928.7	13928.7
732.61	754	13737.1	13737.1
733.11	753.5	13615.9	13615.9
733.61	753	13508.1	13508.1
734.11	752.5	13384.7	13384.7
734.61	752	13655.6	13655.6
735.11	751.5	13444.9	13444.9
735.61	751	13496.3	13496.3
736.11	750.5	13553.3	13553.3
736.61	750	13450	13450
737.11	749.5	13549.5	13549.5
737.61	749	13563.5	13563.5
738.11	748.5	13462.2	13462.2
738.61	748	13302.8	13302.8
739.11	747.5	13486.4	13486.4
739.61	747	13413.6	13413.6
740.11	746.5	13273.3	13273.3
740.61	746	13423.4	13423.4
741.11	745.5	13451.1	13451.1
741.61	745	13491.7	13491.7
742.11	744.5	13526.2	13526.2
742.61	744	13686.5	13686.5
743.11	743.5	13479.3	13479.3
743.61	743	13698	13698
744.11	742.5	13772.4	13772.4
744.61	742	13746.7	13746.7
745.11	741.5	13726.6	13726.6
745.61	741	13774.5	13774.5
746.11	740.5	13778.9	13778.9
746.61	740	13882.9	13882.9
747.11	739.5	13710.2	13710.2
747.61	739	13911.7	13911.7
748.11	738.5	13986.8	13986.8
748.61	738	13948.9	13948.9
749.11	737.5	14046	14046
749.61	737	14201.2	14201.2
750.11	736.5	14258.7	14258.7
750.61	736	14092.2	14092.2
751.11	735.5	14003.7	14003.7
751.61	735	13937.8	13937.8
752.11	734.5	13943.6	13943.6
752.61	734	14076.1	14076.1
753.11	733.5	14218	14218
753.61	733	14173.2	14173.2
754.11	732.5	14177.4	14177.4
754.61	732	14266.7	14266.7
755.11	731.5	14528.1	14528.1
755.61	731	14440.6	14440.6
756.11	730.5	14587.7	14587.7
756.61	730	14596.3	14596.3
757.11	729.5	14601.5	14601.5
757.61	729	14791.4	14791.4
758.11	728.5	14637.4	14637.4
758.61	728	14599.9	14599.9
759.11	727.5	14613.3	14613.3
759.61	727	14516.5	14516.5
760.11	726.5	14673.9	14673.9
760.61	726	14815.3	14815.3
761.11	725.5	14655.8	14655.8
761.61	725	14739.8	14739.8
762.11	724.5	14957.1	14957.1
762.61	724	15162.5	15162.5
763.11	723.5	14968.2	14968.2
763.61	723	14979.7	14979.7
764.11	722.5	15273.6	15273.6
764.61	722	15458.2	15458.2
765.11	721.5	15587.3	15587.3
765.61	721	15594	15594
766.11	720.5	15956.3	15956.3
766.61	720	15850.5	15850.5
767.11	719.5	15773.2	15773.2
767.61	719	15776.9	15776.9
768.11	718.5	15696.4	15696.4
768.61	718	15838.2	15838.2
769.11	717.5	15368.7	15368.7
769.61	717	15368.2	15368.2
770.11	716.5	15328.5	15328.5
770.61	716	15061.7	15061.7
771.11	715.5	15075.9	15075.9
771.61	715	15105.6	15105.6
772.11	714.5	15091.7	15091.7
772.61	714	14978.9	14978.9
773.11	713.5	15219.3	15219.3
773.61	713	15149.1	15149.1
774.11	712.5	15266.6	15266.6
774.61	712	15200.2	15200.2
775.11	711.5	15050.5	15050.5
775.61	711	14687.1	14687.1
776.11	710.5	14668.3	14668.3
776.61	710	14203.3	14203.3
777.11	709.5	13721.7	13721.7
777.61	709	13278.2	13278.2
778.11	708.5	13046	13046
778.61	708	12490.5	12490.5
779.11	707.5	12448.7	12448.7
779.61	707	12326	12326
780.11	706.5	12171.6	12171.6
780.61	706	11968.8	11968.8
781.11	705.5	11989.3	11989.3
781.61	705	12093.4	12093.4
782.11	704.5	11854.7	11854.7
782.61	704	11846.1	11846.1
783.11	703.5	12077.6	12077.6
783.61	703	12008.2	12008.2
784.11	702.5	11889.6	11889.6
784.61	702	11987.9	11987.9
785.11	701.5	11909.6	11909.6
785.61	701	11874.7	11874.7
786.11	700.5	11839.5	11839.5
786.61	700	11791.7	11791.7
787.11	699.5	11740.7	11740.7
787.61	699	11763.7	11763.7
788.11	698.5	11780.3	11780.3
788.61	698	11662.7	11662.7
789.11	697.5	11870.7	11870.7
789.61	697	11659.3	11659.3
790.11	696.5	11769.5	11769.5
790.61	696	11872.9	11872.9
791.11	695.5	11613.7	11613.7
791.61	695	11635.2	11635.2
792.11	694.5	11720.9	11720.9
792.61	694	11814.5	11814.5
793.11	693.5	11483.7	11483.7
793.61	693	11464.7	11464.7
794.11	692.5	11539.2	11539.2
794.61	692	11763.6	11763.6
795.11	691.5	11548.8	11548.8
795.61	691	11545.8	11545.8
796.11	690.5	11476.2	11476.2
796.61	690	11536.4	11536.4
797.11	689.5	11627.2	11627.2
797.61	689	11583.2	11583.2
798.11	688.5	11753.7	11753.7
798.61	688	11815.8	11815.8
799.11	687.5	11430.7	11430.7
799.61	687	11244.5	11244.5
800.11	686.5	11208.1	11208.1
800.61	686	11200.3	11200.3
801.11	685.5	11092.9	11092.9
801.61	685	10977.6	10977.6
802.11	684.5	11039.1	11039.1
802.61	684	11084	11084
803.11	683.5	11065.8	11065.8
803.61	683	10955.2	10955.2
804.11	682.5	11059.9	11059.9
804.61	682	11032.4	11032.4
805.11	681.5	11042.5	11042.5
805.61	681	10964.6	10964.6
806.11	680.5	11022.5	11022.5
806.61	680	11006.6	11006.6
807.11	679.5	11076.9	11076.9
807.61	679	11032.7	11032.7
808.11	678.5	11171.3	11171.3
808.61	678	11371.2	11371.2
809.11	677.5	11242.8	11242.8
809.61	677	11269.2	11269.2
810.11	676.5	11304.5	11304.5
810.61	676	11376.3	11376.3
811.11	675.5	11327.5	11327.5
811.61	675	11554.3	11554.3
812.11	674.5	11458.7	11458.7
812.61	674	11612.3	11612.3
813.11	673.5	11709.9	11709.9
813.61	673	11670.9	11670.9
814.11	672.5	11673.4	11673.4
814.61	672	11820.4	11820.4
815.11	671.5	11656.7	11656.7
815.61	671	11719.7	11719.7
816.11	670.5	11708.6	11708.6
816.61	670	11712.2	11712.2
817.11	669.5	11767.2	11767.2
817.61	669	11848.2	11848.2
818.11	668.5	11886.9	11886.9
818.61	668	11831.4	11831.4
819.11	667.5	11951.8	11951.8
819.61	667	11871.7	11871.7
820.11	666.5	12114.6	12114.6
820.61	666	12227.7	12227.7
821.11	665.5	12110.6	12110.6
821.61	665	11969.3	11969.3
822.11	664.5	11894.6	11894.6
822.61	664	11902.4	11902.4
823.11	663.5	12056	12056
823.61	663	12106.6	12106.6
824.11	662.5	12064.3	12064.3
824.61	662	11940.3	11940.3
825.11	661.5	12089.3	12089.3
825.61	661	12104.8	12104.8
826.11	660.5	12318.8	12318.8
826.61	660	12443.6	12443.6
827.11	659.5	12357.7	12357.7
827.61	659	12540.4	12540.4
828.11	658.5	12520.4	12520.4
828.61	658	12950.5	12950.5
829.11	657.5	13083.7	13083.7
829.61	657	13108.1	13108.1
830.11	656.5	13185.9	13185.9
830.61	656	13434.1	13434.1
831.11	655.5	13382.1	13382.1
831.61	655	13550.9	13550.9
832.11	654.5	13514.5	13514.5
832.61	654	13364.6	13364.6
833.11	653.5	13479.7	13479.7
833.61	653	13294.8	13294.8
834.11	652.5	13414.3	13414.3
834.61	652	13682.6	13682.6
835.11	651.5	13610	13610
835.61	651	13697.2	13697.2
836.11	650.5	14086	14086
836.61	650	14318.5	14318.5
837.11	649.5	14786.1	14786.1
837.61	649	15454.1	15454.1
838.11	648.5	16434	16434
838.61	648	17234.9	17234.9
839.11	647.5	17292.5	17292.5
839.61	647	16611.5	16611.5
840.11	646.5	15734.7	15734.7
840.61	646	14509.4	14509.4
841.11	645.5	13617.1	13617.1
841.61	645	13098.6	13098.6
842.11	644.5	12732.6	12732.6
842.61	644	12692.8	12692.8
843.11	643.5	12570.3	12570.3
843.61	643	12444.4	12444.4
844.11	642.5	12402.5	12402.5
844.61	642	12460.6	12460.6
845.11	641.5	12808.6	12808.6
845.61	641	12890.2	12890.2
846.11	640.5	13292.7	13292.7
846.61	640	13498.2	13498.2
847.11	639.5	13439.7	13439.7
847.61	639	13041.4	13041.4
848.11	638.5	12519.2	12519.2
848.61	638	11795.6	11795.6
849.11	637.5	11161.4	11161.4
849.61	637	11052.1	11052.1
850.11	636.5	10778.3	10778.3
850.61	636	10478	10478
851.11	635.5	10167.7	10167.7
851.61	635	9987.13	9987.13
852.11	634.5	9763.93	9763.93
852.61	634	9666.51	9666.51
853.11	633.5	9393.38	9393.38
853.61	633	9143.04	9143.04
854.11	632.5	9243.6	9243.6
854.61	632	9205.76	9205.76
855.11	631.5	9200.03	9200.03
855.61	631	9115.79	9115.79
856.11	630.5	9163.98	9163.98
856.61	630	9110.01	9110.01
857.11	629.5	9093.34	9093.34
857.61	629	9187.87	9187.87
858.11	628.5	9342.04	9342.04
858.61	628	9233.2	9233.2
859.11	627.5	9201.22	9201.22
859.61	627	9129.32	9129.32
860.11	626.5	8811.25	8811.25
860.61	626	8519.63	8519.63
861.11	625.5	8427.76	8427.76
861.61	625	8384.93	8384.93
862.11	624.5	8089.62	8089.62
862.61	624	8033.19	8033.19
863.11	623.5	8059.34	8059.34
863.61	623	8010.09	8010.09
864.11	622.5	8047.59	8047.59
864.61	622	8141.18	8141.18
865.11	621.5	7965.86	7965.86
865.61	621	7868.78	7868.78
866.11	620.5	7832.92	7832.92
866.61	620	7896.77	7896.77
867.11	619.5	7790.2	7790.2
867.61	619	7808.8	7808.8
868.11	618.5	7742.97	7742.97
868.61	618	7500.73	7500.73
869.11	617.5	7476.16	7476.16
869.61	617	7313.83	7313.83
870.11	616.5	7407.86	7407.86
870.61	616	7562.09	7562.09
871.11	615.5	7489.98	7489.98
871.61	615	7426.11	7426.11
872.11	614.5	7455.78	7455.78
872.61	614	7415.76	7415.76
873.11	613.5	7398.06	7398.06
873.61	613	7464.81	7464.81
874.11	612.5	7492.19	7492.19
874.61	612	7538.29	7538.29
875.11	611.5	7529.37	7529.37
875.61	611	7439.58	7439.58
876.11	610.5	7403.68	7403.68
876.61	610	7554.26	7554.26
877.11	609.5	7649.57	7649.57
877.61	609	7611.95	7611.95
878.11	608.5	7556.61	7556.61
878.61	608	7678	7678
879.11	607.5	7631.48	7631.48
879.61	607	7666.18	7666.18
880.11	606.5	7573.45	7573.45
880.61	606	7712.38	7712.38
881.11	605.5	7808.57	7808.57
881.61	605	7713.72	7713.72
882.11	604.5	7692.59	7692.59
882.61	604	7881.6	7881.6
883.11	603.5	8017.36	8017.36
883.61	603	7775.84	7775.84
884.11	602.5	8029.25	8029.25
884.61	602	8098.31	8098.31
885.11	601.5	7882.13	7882.13
885.61	601	8041.31	8041.31
886.11	600.5	8138.43	8138.43
886.61	600	8227.95	8227.95
887.11	599.5	8218.87	8218.87
887.61	599	8218.92	8218.92
888.11	598.5	8422.49	8422.49
888.61	598	8468.11	8468.11
889.11	597.5	8434.48	8434.48
889.61	597	8648.77	8648.77
890.11	596.5	8584.66	8584.66
890.61	596	8598.73	8598.73
891.11	595.5	8493.68	8493.68
891.61	595	8582.21	8582.21
892.11	594.5	8791.71	8791.71
892.61	594	8658.58	8658.58
893.11	593.5	8784.11	8784.11
893.61	593	8812.78	8812.78
894.11	592.5	8795.38	8795.38
894.61	592	8784.15	8784.15
895.11	591.5	8824.36	8824.36
895.61	591	8794.17	8794.17
896.11	590.5	8706.62	8706.62
896.61	590	8814.51	8814.51
897.11	589.5	8820.86	8820.86
897.61	589	8929.39	8929.39
898.11	588.5	8952.59	8952.59
898.61	588	8809.34	8809.34
899.11	587.5	8926.76	8926.76
899.61	587	8917.14	8917.14
900.11	586.5	9062.74	9062.74
900.61	586	8970.34	8970.34
901.11	585.5	8890.59	8890.59
901.61	585	9006.25	9006.25
902.11	584.5	8979.18	8979.18
902.61	584	8867.43	8867.43
903.11	583.5	8851.51	8851.51
903.61	583	8981.68	8981.68
904.11	582.5	8992.37	8992.37
904.61	582	9056.78	9056.78
905.11	581.5	9155.86	9155.86
905.61	581	9257.48	9257.48
906.11	580.5	9346.2	9346.2
906.61	580	9676.75	9676.75
907.11	579.5	9804.21	9804.21
907.61	579	9622.54	9622.54
908.11	578.5	9742.28	9742.28
908.61	578	9928.07	9928.07
909.11	577.5	9985.02	9985.02
909.61	577	10283.5	10283.5
910.11	576.5	10366.2	10366.2
910.61	576	10690	10690
911.11	575.5	10888.1	10888.1
911.61	575	10666.5	10666.5
912.11	574.5	11171.3	11171.3
912.61	574	12080.9	12080.9
913.11	573.5	12814.3	12814.3
913.61	573	13531.2	13531.2
914.11	572.5	13857.7	13857.7
914.61	572	13639.1	13639.1
915.11	571.5	13353.7	13353.7
915.61	571	14142.8	14142.8
916.11	570.5	14968.6	14968.6
916.61	570	14784.4	14784.4
917.11	569.5	15219.3	15219.3
917.61	569	17982.7	17982.7
918.11	568.5	24768.8	24768.8
918.61	568	28874.8	28874.8
919.11	567.5	21271.1	21271.1
919.61	567	15226	15226
920.11	566.5	12062.1	12062.1
920.61	566	10862.6	10862.6
921.11	565.5	11854.8	11854.8
921.61	565	10718.7	10718.7
922.11	564.5	7795.11	7795.11
922.61	564	6338.24	6338.24
923.11	563.5	5941.15	5941.15
923.61	563	5776.26	5776.26
924.11	562.5	5633.69	5633.69
924.61	562	5437.19	5437.19
925.11	561.5	5452.44	5452.44
925.61	561	5316.19	5316.19
926.11	560.5	5260.16	5260.16
926.61	560	5257.71	5257.71
927.11	559.5	4999.25	4999.25
927.61	559	4861.38	4861.38
928.11	558.5	4687.8	4687.8
928.61	558	4694.07	4694.07
929.11	557.5	4497.51	4497.51
929.61	557	4434.55	4434.55
930.11	556.5	4202.65	4202.65
930.61	556	4239.99	4239.99
931.11	555.5	4163.69	4163.69
931.61	555	4240.2	4240.2
932.11	554.5	4293.73	4293.73
932.61	554	4367.73	4367.73
933.11	553.5	4368.42	4368.42
933.61	553	4519.93	4519.93
934.11	552.5	4825.38	4825.38
934.61	552	4998.14	4998.14
935.11	551.5	4698.05	4698.05
935.61	551	4229.53	4229.53
936.11	550.5	3963.51	3963.51
936.61	550	3965.95	3965.95
937.11	549.5	4233.43	4233.43
937.61	549	5075.07	5075.07
938.11	548.5	5842.53	5842.53
938.61	548	5792	5792
939.11	547.5	4868.81	4868.81
939.61	547	4056.44	4056.44
940.11	546.5	3519.14	3519.14
940.61	546	3231.96	3231.96
941.11	545.5	3014.2	3014.2
941.61	545	2692.21	2692.21
942.11	544.5	2472.12	2472.12
942.61	544	2203.44	2203.44
943.11	543.5	2167.23	2167.23
943.61	543	2087.34	2087.34
944.11	542.5	2146.06	2146.06
944.61	542	2087.56	2087.56
945.11	541.5	2081.26	2081.26
945.61	541	2018.66	2018.66
946.11	540.5	2030.87	2030.87
946.61	540	1967.54	1967.54
947.11	539.5	1951.54	1951.54
947.61	539	1897.58	1897.58
948.11	538.5	1823.26	1823.26
948.61	538	1827.08	1827.08
949.11	537.5	1787.34	1787.34
949.61	537	1751.21	1751.21
950.11	536.5	1735.92	1735.92
950.61	536	1751.18	1751.18
951.11	535.5	1786.58	1786.58
951.61	535	1810.79	1810.79
952.11	534.5	1787.32	1787.32
952.61	534	1835.19	1835.19
953.11	533.5	1947.27	1947.27
953.61	533	2111.91	2111.91
954.11	532.5	2286.53	2286.53
954.61	532	2635.51	2635.51
955.11	531.5	2901.78	2901.78
955.61	531	2629.52	2629.52
956.11	530.5	2059.83	2059.83
956.61	530	1717.32	1717.32
957.11	529.5	1593.97	1593.97
957.61	529	1576.06	1576.06
958.11	528.5	1565.44	1565.44
958.61	528	1510.17	1510.17
959.11	527.5	1571.02	1571.02
959.61	527	1590.71	1590.71
960.11	526.5	1563.88	1563.88
960.61	526	1554.91	1554.91
961.11	525.5	1598.13	1598.13
961.61	525	1591.6	1591.6
962.11	524.5	1576.61	1576.61
962.61	524	1512.42	1512.42
963.11	523.5	1509.79	1509.79
963.61	523	1485.39	1485.39
964.11	522.5	1520.99	1520.99
964.61	522	1522.36	1522.36
965.11	521.5	1532.75	1532.75
965.61	521	1515.56	1515.56
966.11	520.5	1515.49	1515.49
966.61	520	1498.89	1498.89
967.11	519.5	1498.76	1498.76
967.61	519	1504.26	1504.26
968.11	518.5	1513.53	1513.53
968.61	518	1503.67	1503.67
969.11	517.5	1477.44	1477.44
969.61	517	1419.83	1419.83
970.11	516.5	1415.91	1415.91
970.61	516	1431.27	1431.27
971.11	515.5	1453.35	1453.35
971.61	515	1495.08	1495.08
972.11	514.5	1479.13	1479.13
972.61	514	1472.57	1472.57
973.11	513.5	1467.79	1467.79
973.61	513	1474.56	1474.56
974.11	512.5	1464.06	1464.06
974.61	512	1471.59	1471.59
975.11	511.5	1462.06	1462.06
975.61	511	1459.55	1459.55
976.11	510.5	1463.68	1463.68
976.61	510	1497.15	1497.15
977.11	509.5	1464.14	1464.14
977.61	509	1484.85	1484.85
978.11	508.5	1457.95	1457.95
978.61	508	1428.37	1428.37
979.11	507.5	1390.35	1390.35
979.61	507	1445.36	1445.36
980.11	506.5	1435.77	1435.77
980.61	506	1471.25	1471.25
981.11	505.5	1467.31	1467.31
981.61	505	1465.22	1465.22
982.11	504.5	1481.75	1481.75
982.61	504	1447.6	1447.6
983.11	503.5	1504.39	1504.39
983.61	503	1472.82	1472.82
984.11	502.5	1425.81	1425.81
984.61	502	1467.63	1467.63
985.11	501.5	1445.91	1445.91
985.61	501	1453.63	1453.63
986.11	500.5	1502.56	1502.56
986.61	500	1487.76	1487.76
987.11	499.5	1463.63	1463.63
987.61	499	1486.84	1486.84
988.11	498.5	1491.24	1491.24
988.61	498	1463.8	1463.8
989.11	497.5	1416.14	1416.14
989.61	497	1512.25	1512.25
990.11	496.5	1498.17	1498.17
990.61	496	1494.28	1494.28
991.11	495.5	1485.73	1485.73
991.61	495	1517.47	1517.47
992.11	494.5	1492.28	1492.28
992.61	494	1471.84	1471.84
993.11	493.5	1434.84	1434.84
993.61	493	1512.86	1512.86
994.11	492.5	1458.52	1458.52
994.61	492	1472.22	1472.22
995.11	491.5	1468.19	1468.19
995.61	491	1562.35	1562.35
996.11	490.5	1552.11	1552.11
996.61	490	1456.53	1456.53
997.11	489.5	1491.85	1491.85
997.61	489	1481.54	1481.54
998.11	488.5	1538.69	1538.69
998.61	488	1499.46	1499.46
999.11	487.5	1480.29	1480.29
999.61	487	1506.27	1506.27
1000.11	486.5	1484.98	1484.98
1000.61	486	1489.06	1489.06
1001.11	485.5	1502.93	1502.93
1001.61	485	1532.44	1532.44
1002.11	484.5	1528.76	1528.76
1002.61	484	1546.98	1546.98
1003.11	483.5	1477	1477
1003.61	483	1510.35	1510.35
1004.11	482.5	1512.05	1512.05
1004.61	482	1422.33	1422.33
1005.11	481.5	1511.07	1511.07
1005.61	481	1572.08	1572.08
1006.11	480.5	1520.07	1520.07
1006.61	480	1486.19	1486.19
1007.11	479.5	1458.13	1458.13
1007.61	479	1458.02	1458.02
1008.11	478.5	1541.97	1541.97
1008.61	478	1527.6	1527.6
1009.11	477.5	1476.71	1476.71
1009.61	477	1474.24	1474.24
1010.11	476.5	1471.57	1471.57
1010.61	476	1497.06	1497.06
1011.11	475.5	1483.72	1483.72
1011.61	475	1491.12	1491.12
1012.11	474.5	1466.88	1466.88
1012.61	474	1464.11	1464.11
1013.11	473.5	1472.44	1472.44
1013.61	473	1484.45	1484.45
1014.11	472.5	1532	1532
1014.61	472	1487.16	1487.16
1015.11	471.5	1465.02	1465.02
1015.61	471	1479.75	1479.75
1016.11	470.5	1507.04	1507.04
1016.61	470	1518.55	1518.55
1017.11	469.5	1513.51	1513.51
1017.61	469	1492.91	1492.91
1018.11	468.5	1461.63	1461.63
1018.61	468	1480.33	1480.33
1019.11	467.5	1471.31	1471.31
1019.61	467	1481.87	1481.87
1020.11	466.5	1469.39	1469.39
1020.61	466	1513.34	1513.34
1021.11	465.5	1482.62	1482.62
1021.61	465	1455.56	1455.56
1022.11	464.5	1447.22	1447.22
1022.61	464	1476.29	1476.29
1023.11	463.5	1521.88	1521.88
1023.61	463	1519.09	1519.09
1024.11	462.5	1479.83	1479.83
1024.61	462	1496.23	1496.23
1025.11	461.5	1492.34	1492.34
1025.61	461	1507.07	1507.07
1026.11	460.5	1516.28	1516.28
1026.61	460	1488.83	1488.83
1027.11	459.5	1547.18	1547.18
1027.61	459	1511.78	1511.78
1028.11	458.5	1517.71	1517.71
1028.61	458	1541.32	1541.32
1029.11	457.5	1502.51	1502.51
1029.61	457	1483.52	1483.52
1030.11	456.5	1503.03	1503.03
1030.61	456	1509.36	1509.36
1031.11	455.5	1541.14	1541.14
1031.61	455	1561.97	1561.97
1032.11	454.5	1530.02	1530.02
1032.61	454	1434.87	1434.87
1033.11	453.5	1517.62	1517.62
1033.61	453	1451.63	1451.63
1034.11	452.5	1516.74	1516.74
1034.61	452	1443.24	1443.24
1035.11	451.5	1457.15	1457.15
1035.61	451	1414.59	1414.59
1036.11	450.5	1410.42	1410.42
1036.61	450	1510.27	1510.27
1037.11	449.5	1536.87	1536.87
1037.61	449	1518.22	1518.22
1038.11	448.5	1553.86	1553.86
1038.61	448	1528.66	1528.66
1039.11	447.5	1552.24	1552.24
1039.61	447	1542.88	1542.88
1040.11	446.5	1478.78	1478.78
1040.61	446	1443.18	1443.18
1041.11	445.5	1473.94	1473.94
1041.61	445	1517.04	1517.04
1042.11	444.5	1445.21	1445.21
1042.61	444	1448.06	1448.06
1043.11	443.5	1528.36	1528.36
1043.61	443	1451.72	1451.72
1044.11	442.5	1477.86	1477.86
1044.61	442	1535.05	1535.05
1045.11	441.5	1574.77	1574.77
1045.61	441	1529.8	1529.8
1046.11	440.5	1568.32	1568.32
1046.61	440	1546.46	1546.46
1047.11	439.5	1542.78	1542.78
1047.61	439	1518.69	1518.69
1048.11	438.5	1568.18	1568.18
1048.61	438	1487.35	1487.35
1049.11	437.5	1477.34	1477.34
1049.61	437	1513.56	1513.56
1050.11	436.5	1500.18	1500.18
1050.61	436	1464.13	1464.13
1051.11	435.5	1514.28	1514.28
1051.61	435	1527.77	1527.77
1052.11	434.5	1486.52	1486.52
1052.61	434	1483.48	1483.48
1053.11	433.5	1524.49	1524.49
1053.61	433	1550.26	1550.26
1054.11	432.5	1510.38	1510.38
1054.61	432	1546.93	1546.93
1055.11	431.5	1556.24	1556.24
1055.61	431	1507.39	1507.39
1056.11	430.5	1555.43	1555.43
1056.61	430	1595.88	1595.88
1057.11	429.5	1509.44	1509.44
1057.61	429	1506.67	1506.67
1058.11	428.5	1558.26	1558.26
1058.61	428	1581.15	1581.15
1059.11	427.5	1538.02	1538.02
1059.61	427	1471.13	1471.13
1060.11	426.5	1518.82	1518.82
1060.61	426	1538.55	1538.55
1061.11	425.5	1551.47	1551.47
1061.61	425	1629.52	1629.52
1062.11	424.5	1584.05	1584.05
1062.61	424	1557.79	1557.79
1063.11	423.5	1528.15	1528.15
1063.61	423	1585.6	1585.6
1064.11	422.5	1521.8	1521.8
1064.61	422	1518.64	1518.64
1065.11	421.5	1435.54	1435.54
1065.61	421	1553.93	1553.93
1066.11	420.5	1562.37	1562.37
1066.61	420	1533.33	1533.33
1067.11	419.5	1558.74	1558.74
1067.61	419	1583.25	1583.25
1068.11	418.5	1545.39	1545.39
1068.61	418	1529.79	1529.79
1069.11	417.5	1563.96	1563.96
1069.61	417	1576.53	1576.53
1070.11	416.5	1582.86	1582.86
1070.61	416	1544.11	1544.11
1071.11	415.5	1566.69	1566.69
1071.61	415	1577.25	1577.25
1072.11	414.5	1580.38	1580.38
1072.61	414	1575.55	1575.55
1073.11	413.5	1571.59	1571.59
1073.61	413	1562	1562
1074.11	412.5	1589.09	1589.09
1074.61	412	1621.58	1621.58
1075.11	411.5	1620.79	1620.79
1075.61	411	1554.11	1554.11
1076.11	410.5	1568.24	1568.24
1076.61	410	1653.44	1653.44
1077.11	409.5	1576.18	1576.18
1077.61	409	1536.2	1536.2
1078.11	408.5	1592.57	1592.57
1078.61	408	1584.92	1584.92
1079.11	407.5	1615.96	1615.96
1079.61	407	1594.79	1594.79
1080.11	406.5	1580.39	1580.39
1080.61	406	1607.17	1607.17
1081.11	405.5	1638.84	1638.84
1081.61	405	1642.6	1642.6
1082.11	404.5	1676.06	1676.06
1082.61	404	1672.45	1672.45
1083.11	403.5	1673.59	1673.59
1083.61	403	1567	1567
1084.11	402.5	1635.54	1635.54
1084.61	402	1653.05	1653.05
1085.11	401.5	1668.32	1668.32
1085.61	401	1628.78	1628.78
1086.11	400.5	1603.42	1603.42
1086.61	400	1565.72	1565.72
1087.11	399.5	1654.12	1654.12
1087.61	399	1639.24	1639.24
1088.11	398.5	1598.09	1598.09
1088.61	398	1616.48	1616.48
1089.11	397.5	1564.07	1564.07
1089.61	397	1556.6	1556.6
1090.11	396.5	1610.29	1610.29
1090.61	396	1564.65	1564.65
1091.11	395.5	1547.93	1547.93
1091.61	395	1642.24	1642.24
1092.11	394.5	1619.35	1619.35
1092.61	394	1619.22	1619.22
1093.11	393.5	1551.31	1551.31
1093.61	393	1585.48	1585.48
1094.11	392.5	1555.44	1555.44
1094.61	392	1625.67	1625.67
1095.11	391.5	1566.64	1566.64
1095.61	391	1624.28	1624.28
1096.11	390.5	1542.74	1542.74
1096.61	390	1537.47	1537.47
1097.11	389.5	1509.95	1509.95
1097.61	389	1548.79	1548.79
1098.11	388.5	1611.29	1611.29
1098.61	388	1621.82	1621.82
1099.11	387.5	1621.48	1621.48
1099.61	387	1547.24	1547.24
1100.11	386.5	1582.87	1582.87
1100.61	386	1587.63	1587.63
1101.11	385.5	1562.42	1562.42
1101.61	385	1561	1561
1102.11	384.5	1568.44	1568.44
1102.61	384	1584.35	1584.35
1103.11	383.5	1510.91	1510.91
1103.61	383	1562.36	1562.36
1104.11	382.5	1578.11	1578.11
1104.61	382	1600.72	1600.72
1105.11	381.5	1574.97	1574.97
1105.61	381	1587.49	1587.49
1106.11	380.5	1546.66	1546.66
1106.61	380	1603.92	1603.92
1107.11	379.5	1542.47	1542.47
1107.61	379	1550.55	1550.55
1108.11	378.5	1626.98	1626.98
1108.61	378	1636.87	1636.87
1109.11	377.5	1581.57	1581.57
1109.61	377	1561.72	1561.72
1110.11	376.5	1547.44	1547.44
1110.61	376	1524.11	1524.11
1111.11	375.5	1567.73	1567.73
1111.61	375	1575.91	1575.91
1112.11	374.5	1644.62	1644.62
1112.61	374	1617.22	1617.22
1113.11	373.5	1600.93	1600.93
1113.61	373	1595.91	1595.91
1114.11	372.5	1617.07	1617.07
1114.61	372	1609.63	1609.63
1115.11	371.5	1572.42	1572.42
1115.61	371	1588.62	1588.62
1116.11	370.5	1612.8	1612.8
1116.61	370	1666.51	1666.51
1117.11	369.5	1592.33	1592.33
1117.61	369	1600.51	1600.51
1118.11	368.5	1648.77	1648.77
1118.61	368	1614.31	1614.31
1119.11	367.5	1590.34	1590.34
1119.61	367	1595.14	1595.14
1120.11	366.5	1499.85	1499.85
1120.61	366	1511.99	1511.99
1121.11	365.5	1645.75	1645.75
1121.61	365	1594.93	1594.93
1122.11	364.5	1514.17	1514.17
1122.61	364	1604.73	1604.73
1123.11	363.5	1577.4	1577.4
1123.61	363	1626.37	1626.37
1124.11	362.5	1604	1604
1124.61	362	1580.43	1580.43
1125.11	361.5	1610.92	1610.92
1125.61	361	1633.81	1633.81
1126.11	360.5	1643.59	1643.59
1126.61	360	1704.02	1704.02
1127.11	359.5	1693.52	1693.52
1127.61	359	1623.21	1623.21
1128.11	358.5	1664.61	1664.61
1128.61	358	1600.58	1600.58
1129.11	357.5	1582.58	1582.58
1129.61	357	1592.37	1592.37
1130.11	356.5	1597.49	1597.49
1130.61	356	1633.24	1633.24
1131.11	355.5	1588.27	1588.27
1131.61	355	1556.63	1556.63
1132.11	354.5	1622.16	1622.16
1132.61	354	1592.85	1592.85
1133.11	353.5	1559.44	1559.44
1133.61	353	1568.95	1568.95
1134.11	352.5	1612.78	1612.78
1134.61	352	1610.94	1610.94
1135.11	351.5	1631.31	1631.31
1135.61	351	1598.02	1598.02
1136.11	350.5	1582.31	1582.31
1136.61	350	1639.96	1639.96
1137.11	349.5	1621.64	1621.64
1137.61	349	1651.6	1651.6
1138.11	348.5	1667.06	1667.06
1138.61	348	1587.98	1587.98
1139.11	347.5	1620.22	1620.22
1139.61	347	1686.14	1686.14
1140.11	346.5	1661.07	1661.07
1140.61	346	1678.18	1678.18
1141.11	345.5	1642.8	1642.8
1141.61	345	1639.89	1639.89
1142.11	344.5	1562.96	1562.96
1142.61	344	1647.93	1647.93
1143.11	343.5	1673.16	1673.16
1143.61	343	1675.4	1675.4
1144.11	342.5	1662.52	1662.52
1144.61	342	1573.81	1573.81
1145.11	341.5	1692.41	1692.41
1145.61	341	1665.47	1665.47
1146.11	340.5	1663.58	1663.58
1146.61	340	1656.66	1656.66
1147.11	339.5	1675.59	1675.59
1147.61	339	1673.47	1673.47
1148.11	338.5	1709.21	1709.21
1148.61	338	1637.73	1637.73
1149.11	337.5	1672.54	1672.54
1149.61	337	1619.99	1619.99
1150.11	336.5	1639.15	1639.15
1150.61	336	1633.81	1633.81
1151.11	335.5	1618.86	1618.86
1151.61	335	1689.74	1689.74
1152.11	334.5	1587.72	1587.72
1152.61	334	1640.06	1640.06
1153.11	333.5	1671.64	1671.64
1153.61	333	1663.86	1663.86
1154.11	332.5	1662.64	1662.64
1154.61	332	1715.99	1715.99
1155.11	331.5	1695.52	1695.52
1155.61	331	1664.91	1664.91
1156.11	330.5	1716.94	1716.94
1156.61	330	1668.76	1668.76
1157.11	329.5	1618.81	1618.81
1157.61	329	1704.74	1704.74
1158.11	328.5	1662.96	1662.96
1158.61	328	1660.12	1660.12
1159.11	327.5	1641.41	1641.41
1159.61	327	1684.74	1684.74
1160.11	326.5	1745.52	1745.52
1160.61	326	1679	1679
1161.11	325.5	1659.28	1659.28
1161.61	325	1710.06	1710.06
1162.11	324.5	1664.19	1664.19
1162.61	324	1608.08	1608.08
1163.11	323.5	1720.96	1720.96
1163.61	323	1710.49	1710.49
1164.11	322.5	1704.59	1704.59
1164.61	322	1777.2	1777.2
1165.11	321.5	1773.78	1773.78
1165.61	321	1774.05	1774.05
1166.11	320.5	1792.92	1792.92
1166.61	320	1791.84	1791.84
1167.11	319.5	1757.17	1757.17
1167.61	319	1788.73	1788.73
1168.11	318.5	1778.97	1778.97
1168.61	318	1739.91	1739.91
1169.11	317.5	1757.22	1757.22
1169.61	317	1703.15	1703.15
1170.11	316.5	1705.08	1705.08
1170.61	316	1672.2	1672.2
1171.11	315.5	1750.2	1750.2
1171.61	315	1721.55	1721.55
1172.11	314.5	1687.64	1687.64
1172.61	314	1696	1696
1173.11	313.5	1709.89	1709.89
1173.61	313	1705.85	1705.85
1174.11	312.5	1748.07	1748.07
1174.61	312	1744.79	1744.79
1175.11	311.5	1778.49	1778.49
1175.61	311	1719.72	1719.72
1176.11	310.5	1737.26	1737.26
1176.61	310	1750.36	1750.36
1177.11	309.5	1737.02	1737.02
1177.61	309	1680.69	1680.69
1178.11	308.5	1723.47	1723.47
1178.61	308	1716.52	1716.52
1179.11	307.5	1724.45	1724.45
1179.61	307	1696.85	1696.85
1180.11	306.5	1772.59	1772.59
1180.61	306	1762.39	1762.39
1181.11	305.5	1704.26	1704.26
1181.61	305	1780.29	1780.29
1182.11	304.5	1725.97	1725.97
1182.61	304	1712.96	1712.96
1183.11	303.5	1734.59	1734.59
1183.61	303	1744.67	1744.67
1184.11	302.5	1763.32	1763.32
1184.61	302	1743.88	1743.88
1185.11	301.5	1717.87	1717.87
1185.61	301	1688.51	1688.51
1186.11	300.5	1707.91	1707.91
1186.61	300	1724.97	1724.97
1187.11	299.5	1657.82	1657.82
1187.61	299	1706.65	1706.65
1188.11	298.5	1692.96	1692.96
1188.61	298	1797.46	1797.46
1189.11	297.5	1721.97	1721.97
1189.61	297	1739.61	1739.61
1190.11	296.5	1764.73	1764.73
1190.61	296	1705.4	1705.4
1191.11	295.5	1747.09	1747.09
1191.61	295	1834.43	1834.43
1192.11	294.5	1757.71	1757.71
1192.61	294	1750.95	1750.95
1193.11	293.5	1793.06	1793.06
1193.61	293	1733.85	1733.85
1194.11	292.5	1724.02	1724.02
1194.61	292	1770.94	1770.94
1195.11	291.5	1775.21	1775.21
1195.61	291	1748.42	1748.42
1196.11	290.5	1772.96	1772.96
1196.61	290	1804.66	1804.66
1197.11	289.5	1855.12	1855.12
1197.61	289	1791.12	1791.12
1198.11	288.5	1867.46	1867.46
1198.61	288	2014.05	2014.05
1199.11	287.5	1989.06	1989.06
1199.61	287	1966	1966
1200.11	286.5	2095.86	2095.86
1200.61	286	2218.8	2218.8
1201.11	285.5	2455.11	2455.11
1201.61	285	2643.25	2643.25
1202.11	284.5	2265.79	2265.79
1202.61	284	1908.17	1908.17
1203.11	283.5	1725.73	1725.73
1203.61	283	1673.28	1673.28
1204.11	282.5	1729.99	1729.99
1204.61	282	1713.17	1713.17
1205.11	281.5	1786.14	1786.14
1205.61	281	1758.02	1758.02
1206.11	280.5	1694.51	1694.51
1206.61	280	1759.45	1759.45
1207.11	279.5	1777.77	1777.77
1207.61	279	1736.54	1736.54
1208.11	278.5	1693.15	1693.15
1208.61	278	1646.71	1646.71
1209.11	277.5	1722.94	1722.94
1209.61	277	1716.8	1716.8
1210.11	276.5	1667.15	1667.15
1210.61	276	1765.24	1765.24
1211.11	275.5	1789.87	1789.87
1211.61	275	1782.84	1782.84
1212.11	274.5	1744.87	1744.87
1212.61	274	1731.78	1731.78
1213.11	273.5	1702.28	1702.28
1213.61	273	1722.29	1722.29
1214.11	272.5	1770.54	1770.54
1214.61	272	1751.11	1751.11
1215.11	271.5	1771.43	1771.43
1215.61	271	1802.38	1802.38
1216.11	270.5	1790.64	1790.64
1216.61	270	1774.75	1774.75
1217.11	269.5	1781.16	1781.16
1217.61	269	1748.64	1748.64
1218.11	268.5	1791.43	1791.43
1218.61	268	1724.86	1724.86
1219.11	267.5	1729.14	1729.14
1219.61	267	1730.42	1730.42
1220.11	266.5	1743.46	1743.46
1220.61	266	1738.93	1738.93
1221.11	265.5	1762.58	1762.58
1221.61	265	1715.24	1715.24
1222.11	264.5	1756.75	1756.75
1222.61	264	1728.09	1728.09
1223.11	263.5	1744.39	1744.39
1223.61	263	1721.66	1721.66
1224.11	262.5	1757.36	1757.36
1224.61	262	1775.97	1775.97
1225.11	261.5	1703.94	1703.94
1225.61	261	1724.48	1724.48
1226.11	260.5	1689.73	1689.73
1226.61	260	1751.65	1751.65
1227.11	259.5	1768.36	1768.36
1227.61	259	1819.29	1819.29
1228.11	258.5	1806.17	1806.17
1228.61	258	1759.78	1759.78
1229.11	257.5	1810.78	1810.78
1229.61	257	1800.01	1800.01
1230.11	256.5	1755.74	1755.74
1230.61	256	1769.37	1769.37
1231.11	255.5	1783.94	1783.94
1231.61	255	1778.53	1778.53
1232.11	254.5	1784.58	1784.58
1232.61	254	1803.72	1803.72
1233.11	253.5	1760.63	1760.63
1233.61	253	1732.86	1732.86
1234.11	252.5	1730.16	1730.16
1234.61	252	1718.15	1718.15
1235.11	251.5	1772.77	1772.77
1235.61	251	1838.28	1838.28
1236.11	250.5	1833.88	1833.88
1236.61	250	1801.99	1801.99
1237.11	249.5	1802.85	1802.85
1237.61	249	1781.4	1781.4
1238.11	248.5	1858.31	1858.31
1238.61	248	1826.13	1826.13
1239.11	247.5	1801.24	1801.24
1239.61	247	1765.69	1765.69
1240.11	246.5	1809.84	1809.84
1240.61	246	1844.43	1844.43
1241.11	245.5	1861.88	1861.88
1241.61	245	1876.87	1876.87
1242.11	244.5	1936.23	1936.23
1242.61	244	1995	1995
1243.11	243.5	1866.26	1866.26
1243.61	243	1941.57	1941.57
1244.11	242.5	2006.72	2006.72
1244.61	242	2117.28	2117.28
1245.11	241.5	2012.8	2012.8
1245.61	241	1890.13	1890.13
1246.11	240.5	1795.55	1795.55
1246.61	240	1811.08	1811.08
1247.11	239.5	1770.68	1770.68
1247.61	239	1826.73	1826.73
1248.11	238.5	1790.21	1790.21
1248.61	238	1739.79	1739.79
1249.11	237.5	1783.45	1783.45
1249.61	237	1779.68	1779.68
1250.11	236.5	1808	1808
1250.61	236	1824.31	1824.31
1251.11	235.5	1853.96	1853.96
1251.61	235	1840.76	1840.76
1252.11	234.5	1879.05	1879.05
1252.61	234	1813.45	1813.45
1253.11	233.5	1768.14	1768.14
1253.61	233	1807.79	1807.79
1254.11	232.5	1796.8	1796.8
1254.61	232	1799.04	1799.04
1255.11	231.5	1795.77	1795.77
1255.61	231	1820.09	1820.09
1256.11	230.5	1854.46	1854.46
1256.61	230	1812.41	1812.41
1257.11	229.5	1823.22	1823.22
1257.61	229	1817.13	1817.13
1258.11	228.5	1849.69	1849.69
1258.61	228	1797.52	1797.52
1259.11	227.5	1814.33	1814.33
1259.61	227	1882.71	1882.71
1260.11	226.5	1903.05	1903.05
1260.61	226	1847.64	1847.64
1261.11	225.5	1843.45	1843.45
1261.61	225	1839.95	1839.95
1262.11	224.5	1819.26	1819.26
1262.61	224	1821.82	1821.82
1263.11	223.5	1887.07	1887.07
1263.61	223	1866.59	1866.59
1264.11	222.5	1833.14	1833.14
1264.61	222	1814.23	1814.23
1265.11	221.5	1805.08	1805.08
1265.61	221	1820.57	1820.57
1266.11	220.5	1850.85	1850.85
1266.61	220	1865.91	1865.91
1267.11	219.5	1877.21	1877.21
1267.61	219	1848.81	1848.81
1268.11	218.5	1805.24	1805.24
1268.61	218	1830.31	1830.31
1269.11	217.5	1904.89	1904.89
1269.61	217	1931.11	1931.11
1270.11	216.5	1893.17	1893.17
1270.61	216	1857.97	1857.97
1271.11	215.5	1864.87	1864.87
1271.61	215	1842.42	1842.42
1272.11	214.5	1882.32	1882.32
1272.61	214	1856.14	1856.14
1273.11	213.5	1828.45	1828.45
1273.61	213	1914.74	1914.74
1274.11	212.5	1904.19	1904.19
1274.61	212	1931.34	1931.34
1275.11	211.5	1859.28	1859.28
1275.61	211	1860.01	1860.01
1276.11	210.5	1807.38	1807.38
1276.61	210	1852.06	1852.06
1277.11	209.5	1871.95	1871.95
1277.61	209	1845.43	1845.43
1278.11	208.5	1874.71	1874.71
1278.61	208	1878.11	1878.11
1279.11	207.5	1869.43	1869.43
1279.61	207	1873.31	1873.31
1280.11	206.5	1847.27	1847.27
1280.61	206	1913.26	1913.26
1281.11	205.5	1911.27	1911.27
1281.61	205	1902.81	1902.81
1282.11	204.5	1935.26	1935.26
1282.61	204	1953.08	1953.08
1283.11	203.5	1918.19	1918.19
1283.61	203	1935.96	1935.96
1284.11	202.5	1912.58	1912.58
1284.61	202	1914.76	1914.76
1285.11	201.5	1945.33	1945.33
1285.61	201	1936.08	1936.08
1286.11	200.5	1926.98	1926.98
1286.61	200	1969.25	1969.25
1287.11	199.5	1942.83	1942.83
1287.61	199	1978.39	1978.39
1288.11	198.5	1912.18	1912.18
1288.61	198	1914.84	1914.84
1289.11	197.5	1935.38	1935.38
1289.61	197	1915.88	1915.88
1290.11	196.5	1939.77	1939.77
1290.61	196	1951.76	1951.76
1291.11	195.5	1915.31	1915.31
1291.61	195	1831.07	1831.07
1292.11	194.5	1971.24	1971.24
1292.61	194	1948.45	1948.45
1293.11	193.5	1954.82	1954.82
1293.61	193	1973.18	1973.18
1294.11	192.5	1956.42	1956.42
1294.61	192	1977.2	1977.2
1295.11	191.5	1984.71	1984.71
1295.61	191	1983.21	1983.21
1296.11	190.5	2059.17	2059.17
1296.61	190	1960.67	1960.67
1297.11	189.5	1899.14	1899.14
1297.61	189	2008.65	2008.65
1298.11	188.5	2009.39	2009.39
1298.61	188	2020.49	2020.49
1299.11	187.5	1990.45	1990.45
1299.61	187	2040.35	2040.35
1300.11	186.5	2051.84	2051.84
1300.61	186	1948.24	1948.24
1301.11	185.5	1989.23	1989.23
1301.61	185	2068.29	2068.29
1302.11	184.5	2021.39	2021.39
1302.61	184	2057.91	2057.91
1303.11	183.5	2055.33	2055.33
1303.61	183	1999.57	1999.57
1304.11	182.5	2065.8	2065.8
1304.61	182	2028.15	2028.15
1305.11	181.5	2024.57	2024.57
1305.61	181	2003.05	2003.05
1306.11	180.5	1931.74	1931.74
1306.61	180	2003.2	2003.2
1307.11	179.5	2024.34	2024.34
1307.61	179	2050.12	2050.12
1308.11	178.5	2053.37	2053.37
1308.61	178	2054.74	2054.74
1309.11	177.5	2125.75	2125.75
1309.61	177	2076.07	2076.07
1310.11	176.5	2073.53	2073.53
1310.61	176	2072.72	2072.72
1311.11	175.5	2130.42	2130.42
1311.61	175	2085.83	2085.83
1312.11	174.5	2042.36	2042.36
1312.61	174	2080.52	2080.52
1313.11	173.5	2064	2064
1313.61	173	2090.21	2090.21
1314.11	172.5	2127.79	2127.79
1314.61	172	2146.77	2146.77
1315.11	171.5	2063.13	2063.13
1315.61	171	2071.51	2071.51
1316.11	170.5	2086.93	2086.93
1316.61	170	2139.42	2139.42
1317.11	169.5	2067.45	2067.45
1317.61	169	2149.67	2149.67
1318.11	168.5	2173.35	2173.35
1318.61	168	2144.4	2144.4
1319.11	167.5	2152.78	2152.78
1319.61	167	2122.48	2122.48
1320.11	166.5	2115.35	2115.35
1320.61	166	2160.36	2160.36
1321.11	165.5	2167.52	2167.52
1321.61	165	2164.91	2164.91
1322.11	164.5	2214.35	2214.35
1322.61	164	2189.68	2189.68
1323.11	163.5	2144.15	2144.15
1323.61	163	2193.55	2193.55
1324.11	162.5	2202.88	2202.88
1324.61	162	2241.95	2241.95
1325.11	161.5	2271.97	2271.97
1325.61	161	2233.44	2233.44
1326.11	160.5	2186.25	2186.25
1326.61	160	2179.67	2179.67
1327.11	159.5	2274.05	2274.05
1327.61	159	2171.92	2171.92
1328.11	158.5	2155.8	2155.8
1328.61	158	2197.61	2197.61
1329.11	157.5	2176.69	2176.69
1329.61	157	2168.4	2168.4
1330.11	156.5	2269	2269
1330.61	156	2249.48	2249.48
1331.11	155.5	2270.73	2270.73
1331.61	155	2269.45	2269.45
1332.11	154.5	2351.65	2351.65
1332.61	154	2238.58	2238.58
1333.11	153.5	2248.05	2248.05
1333.61	153	2221.68	2221.68
1334.11	152.5	2269.65	2269.65
1334.61	152	2290.65	2290.65
1335.11	151.5	2328.03	2328.03
1335.61	151	2307.16	2307.16
1336.11	150.5	2286.59	2286.59
1336.61	150	2348.11	2348.11
1337.11	149.5	2337.06	2337.06
1337.61	149	2375.59	2375.59
1338.11	148.5	2394.91	2394.91
1338.61	148	2347.46	2347.46
1339.11	147.5	2341.52	2341.52
1339.61	147	2370.84	2370.84
1340.11	146.5	2303.74	2303.74
1340.61	146	2428.92	2428.92
1341.11	145.5	2379.78	2379.78
1341.61	145	2361.77	2361.77
1342.11	144.5	2436.02	2436.02
1342.61	144	2422.12	2422.12
1343.11	143.5	2401.4	2401.4
1343.61	143	2434.88	2434.88
1344.11	142.5	2403	2403
1344.61	142	2379.8	2379.8
1345.11	141.5	2460.36	2460.36
1345.61	141	2432.43	2432.43
1346.11	140.5	2464.86	2464.86
1346.61	140	2455.06	2455.06
1347.11	139.5	2520.68	2520.68
1347.61	139	2482.93	2482.93
1348.11	138.5	2468.32	2468.32
1348.61	138	2481.73	2481.73
1349.11	137.5	2459.98	2459.98
1349.61	137	2487.8	2487.8
1350.11	136.5	2529.17	2529.17
1350.61	136	2474.02	2474.02
1351.11	135.5	2474.51	2474.51
1351.61	135	2446.62	2446.62
1352.11	134.5	2452.13	2452.13
1352.61	134	2397.13	2397.13
1353.11	133.5	2451.76	2451.76
1353.61	133	2437.18	2437.18
1354.11	132.5	2446.4	2446.4
1354.61	132	2457.28	2457.28
1355.11	131.5	2469.23	2469.23
1355.61	131	2465.83	2465.83
1356.11	130.5	2456.99	2456.99
1356.61	130	2430.75	2430.75
1357.11	129.5	2441.98	2441.98
1357.61	129	2432.58	2432.58
1358.11	128.5	2428.15	2428.15
1358.61	128	2482.14	2482.14
1359.11	127.5	2517.77	2517.77
1359.61	127	2513.37	2513.37
1360.11	126.5	2655.43	2655.43
1360.61	126	2735.57	2735.57
1361.11	125.5	2820.14	2820.14
1361.61	125	3089.64	3089.64
1362.11	124.5	3347.95	3347.95
1362.61	124	3882.64	3882.64
1363.11	123.5	4673.49	4673.49
1363.61	123	5416.23	5416.23
1364.11	122.5	5917.48	5917.48
1364.61	122	5339.84	5339.84
1365.11	121.5	4320.24	4320.24
1365.61	121	3449.63	3449.63
1366.11	120.5	3014.88	3014.88
1366.61	120	2734.56	2734.56
1367.11	119.5	2463.64	2463.64
1367.61	119	2320	2320
1368.11	118.5	2310.32	2310.32
1368.61	118	2236.09	2236.09
1369.11	117.5	2157.38	2157.38
1369.61	117	2137.15	2137.15
1370.11	116.5	2083.34	2083.34
1370.61	116	2071.89	2071.89
1371.11	115.5	2126.08	2126.08
1371.61	115	2133.37	2133.37
1372.11	114.5	2108.49	2108.49
1372.61	114	2137.34	2137.34
1373.11	113.5	2111.73	2111.73
1373.61	113	2123.68	2123.68
1374.11	112.5	2186.25	2186.25
1374.61	112	2179.36	2179.36
1375.11	111.5	2076.82	2076.82
1375.61	111	2131.15	2131.15
1376.11	110.5	2157.52	2157.52
1376.61	110	2179.01	2179.01
1377.11	109.5	2194.57	2194.57
1377.61	109	2172.93	2172.93
1378.11	108.5	2142.52	2142.52
1378.61	108	2159.54	2159.54
1379.11	107.5	2231.8	2231.8
1379.61	107	2222.88	2222.88
1380.11	106.5	2262.99	2262.99
1380.61	106	2263.68	2263.68
1381.11	105.5	2240.07	2240.07
1381.61	105	2288.92	2288.92
1382.11	104.5	2293.54	2293.54
1382.61	104	2358.54	2358.54
1383.11	103.5	2352.06	2352.06
1383.61	103	2430.35	2430.35
1384.11	102.5	2372.88	2372.88
1384.61	102	2327.07	2327.07
1385.11	101.5	2343.87	2343.87
1385.61	101	2380.03	2380.03
1386.11	100.5	2305.66	2305.66
1386.61	100	2396.97	2396.97
1387.11	99.5	2402.03	2402.03
1387.61	99	2448.64	2448.64
1388.11	98.5	2422.04	2422.04
1388.61	98	2496.16	2496.16
1389.11	97.5	2440.43	2440.43
1389.61	97	2511.4	2511.4
1390.11	96.5	2506.84	2506.84
1390.61	96	2541.42	2541.42
1391.11	95.5	2531.23	2531.23
1391.61	95	2485.41	2485.41
1392.11	94.5	2426.11	2426.11
1392.61	94	2463.46	2463.46
1393.11	93.5	2394.25	2394.25
1393.61	93	2376.92	2376.92
1394.11	92.5	2325.05	2325.05
1394.61	92	2223.87	2223.87
1395.11	91.5	2178.93	2178.93
1395.61	91	2181.51	2181.51
1396.11	90.5	2199.37	2199.37
1396.61	90	2139.72	2139.72
1397.11	89.5	2181.98	2181.98
1397.61	89	2223.44	2223.44
1398.11	88.5	2154.25	2154.25
1398.61	88	2256.46	2256.46
1399.11	87.5	2103.62	2103.62
1399.61	87	2176.54	2176.54
1400.11	86.5	2186.91	2186.91
1400.61	86	2119.51	2119.51
1401.11	85.5	2108.14	2108.14
1401.61	85	2082.15	2082.15
1402.11	84.5	2107.66	2107.66
1402.61	84	2144.11	2144.11
1403.11	83.5	2124.67	2124.67
1403.61	83	2109.58	2109.58
1404.11	82.5	2172.09	2172.09
1404.61	82	2212.29	2212.29
1405.11	81.5	2320.94	2320.94
1405.61	81	2409.47	2409.47
1406.11	80.5	2547.16	2547.16
1406.61	80	2739.06	2739.06
1407.11	79.5	3119.88	3119.88
1407.61	79	3751.56	3751.56
1408.11	78.5	4715.2	4715.2
1408.61	78	5787.55	5787.55
1409.11	77.5	6585.44	6585.44
1409.61	77	6580.36	6580.36
1410.11	76.5	6639.95	6639.95
1410.61	76	7381.33	7381.33
1411.11	75.5	8638.06	8638.06
1411.61	75	8853.02	8853.02
1412.11	74.5	7315.91	7315.91
1412.61	74	5028.84	5028.84
1413.11	73.5	3464.44	3464.44
1413.61	73	2517.15	2517.15
1414.11	72.5	1941.13	1941.13
1414.61	72	1573.46	1573.46
1415.11	71.5	1283.61	1283.61
1415.61	71	1096.83	1096.83
1416.11	70.5	972.971	972.971
1416.61	70	861.018	861.018
1417.11	69.5	819.609	819.609
1417.61	69	765.413	765.413
1418.11	68.5	739.36	739.36
1418.61	68	690.409	690.409
1419.11	67.5	687.071	687.071
1419.61	67	604.002	604.002
1420.11	66.5	566.04	566.04
1420.61	66	576.697	576.697
1421.11	65.5	574.944	574.944
1421.61	65	531.986	531.986
1422.11	64.5	551.161	551.161
1422.61	64	526.98	526.98
1423.11	63.5	534.777	534.777
1423.61	63	559.747	559.747
1424.11	62.5	523.579	523.579
1424.61	62	553.796	553.796
1425.11	61.5	559.581	559.581
1425.61	61	501.718	501.718
1426.11	60.5	515.943	515.943
1426.61	60	503.648	503.648
1427.11	59.5	520.205	520.205
1427.61	59	519.792	519.792
1428.11	58.5	479.395	479.395
1428.61	58	505.195	505.195
1429.11	57.5	503.371	503.371
1429.61	57	497.671	497.671
1430.11	56.5	492.741	492.741
1430.61	56	480.864	480.864
1431.11	55.5	473.974	473.974
1431.61	55	473.408	473.408
1432.11	54.5	499.516	499.516
1432.61	54	504.001	504.001
1433.11	53.5	502.139	502.139
1433.61	53	488.361	488.361
1434.11	52.5	494.702	494.702
1434.61	52	490.743	490.743
1435.11	51.5	474.823	474.823
1435.61	51	473.221	473.221
1436.11	50.5	474.112	474.112
1436.61	50	482.072	482.072
1437.11	49.5	485.269	485.269
1437.61	49	481.573	481.573
1438.11	48.5	479.366	479.366
1438.61	48	502.106	502.106
1439.11	47.5	543.615	543.615
1439.61	47	524.261	524.261
1440.11	46.5	508.849	508.849
1440.61	46	503.102	503.102
1441.11	45.5	513.831	513.831
1441.61	45	477.676	477.676
1442.11	44.5	489.673	489.673
1442.61	44	456.281	456.281
1443.11	43.5	477.123	477.123
1443.61	43	571.118	571.118
1444.11	42.5	516.253	516.253
1444.61	42	527.687	527.687
1445.11	41.5	529.655	529.655
1445.61	41	505.259	505.259
1446.11	40.5	490.666	490.666
1446.61	40	520.426	520.426
1447.11	39.5	540.598	540.598
1447.61	39	549.101	549.101
1448.11	38.5	556.998	556.998
1448.61	38	563.585	563.585
1449.11	37.5	526.776	526.776
1449.61	37	521.521	521.521
1450.11	36.5	541.653	541.653
1450.61	36	577.073	577.073
1451.11	35.5	565.192	565.192
1451.61	35	600.821	600.821
1452.11	34.5	581.933	581.933
1452.61	34	560.383	560.383
1453.11	33.5	550.703	550.703
1453.61	33	569.872	569.872
1454.11	32.5	590.942	590.942
1454.61	32	614.629	614.629
1455.11	31.5	577.814	577.814
1455.61	31	588.321	588.321
1456.11	30.5	592.071	592.071
1456.61	30	655.488	655.488
1457.11	29.5	643.334	643.334
1457.61	29	630.268	630.268
1458.11	28.5	586.964	586.964
1458.61	28	615.845	615.845
1459.11	27.5	599.011	599.011
1459.61	27	624.068	624.068
1460.11	26.5	600.226	600.226
1460.61	26	639.308	639.308
1461.11	25.5	662.248	662.248
1461.61	25	645.541	645.541
1462.11	24.5	623.403	623.403
1462.61	24	629.611	629.611
1463.11	23.5	632.747	632.747
1463.61	23	648.972	648.972
1464.11	22.5	682.412	682.412
1464.61	22	655.875	655.875
1465.11	21.5	621.232	621.232
1465.61	21	590.063	590.063
1466.11	20.5	594.061	594.061
1466.61	20	593.451	593.451
1467.11	19.5	613.823	613.823
1467.61	19	592.784	592.784
1468.11	18.5	575.321	575.321
1468.61	18	583.057	583.057
1469.11	17.5	567.148	567.148
1469.61	17	560.388	560.388
1470.11	16.5	528.245	528.245
1470.61	16	519.838	519.838
1471.11	15.5	567.308	567.308
1471.61	15	591.759	591.759
1472.11	14.5	588.598	588.598
1472.61	14	520.216	520.216
1473.11	13.5	547.939	547.939
1473.61	13	539.435	539.435
1474.11	12.5	521.965	521.965
1474.61	12	477.397	477.397
1475.11	11.5	480.306	480.306
1475.61	11	509.907	509.907
1476.11	10.5	476.876	476.876
1476.61	10	469.169	469.169
1477.11	9.5	456.806	456.806
1477.61	9	484.035	484.035
1478.11	8.5	478.457	478.457
1478.61	8	467.62	467.62
1479.11	7.5	498.925	498.925
1479.61	7	561.011	561.011
1480.11	6.5	634.799	634.799
1480.61	6	789.463	789.463
1481.11	5.5	1093.97	1093.97
1481.61	5	1770.55	1770.55
1482.11	4.5	2523.57	2523.57
1482.61	4	3256.6	3256.6
1483.11	3.5	3870.41	3870.41
1483.61	3	4162.03	4162.03
1484.11	2.5	3994.67	3994.67
1484.61	2	2164.23	2164.23
1485.11	1.5	617.808	617.808
1485.61	1	399.635	399.635
1486.11	0.5	320.203	320.203
1486.61	-2.27374e-013	141.206	141.206