c:\users\mark\owncloud\muelheim group\projects\gas phase background\ex340_cec356_cu n2 largearea.vms
Survey
	Characteristic Energy eV	1486.61	Acquisition Time s	1.5
KE_Survey	BE_Survey	CPS_Survey	Background_Survey
286.61	1200	1610.34	1610.34
287.11	1199.5	1613.57	1613.57
287.61	1199	1589.31	1589.31
288.11	1198.5	1649.98	1649.98
288.61	1198	1648.1	1648.1
289.11	1197.5	1630.29	1630.29
289.61	1197	1653.43	1653.43
290.11	1196.5	1667.01	1667.01
290.61	1196	1704.07	1704.07
291.11	1195.5	1719.97	1719.97
291.61	1195	1753.64	1753.64
292.11	1194.5	1754.4	1754.4
292.61	1194	1742.77	1742.77
293.11	1193.5	1742.27	1742.27
293.61	1193	1764.07	1764.07
294.11	1192.5	1767.58	1767.58
294.61	1192	1736.58	1736.58
295.11	1191.5	1736.58	1736.58
295.61	1191	1763.15	1763.15
296.11	1190.5	1732.49	1732.49
296.61	1190	1736.31	1736.31
297.11	1189.5	1768.36	1768.36
297.61	1189	1797.77	1797.77
298.11	1188.5	1777.09	1777.09
298.61	1188	1806.04	1806.04
299.11	1187.5	1799.86	1799.86
299.61	1187	1803.34	1803.34
300.11	1186.5	1760.26	1760.26
300.61	1186	1821.95	1821.95
301.11	1185.5	1810.66	1810.66
301.61	1185	1840.91	1840.91
302.11	1184.5	1845.55	1845.55
302.61	1184	1824.33	1824.33
303.11	1183.5	1854.85	1854.85
303.61	1183	1880.81	1880.81
304.11	1182.5	1882.06	1882.06
304.61	1182	1856.59	1856.59
305.11	1181.5	1824.89	1824.89
305.61	1181	1878.94	1878.94
306.11	1180.5	1948.48	1948.48
306.61	1180	1902.78	1902.78
307.11	1179.5	1926.28	1926.28
307.61	1179	1908.39	1908.39
308.11	1178.5	1878.83	1878.83
308.61	1178	1881.39	1881.39
309.11	1177.5	1920.8	1920.8
309.61	1177	1949.38	1949.38
310.11	1176.5	1943.51	1943.51
310.61	1176	1988.88	1988.88
311.11	1175.5	1950.92	1950.92
311.61	1175	1990.49	1990.49
312.11	1174.5	1957.33	1957.33
312.61	1174	1904.19	1904.19
313.11	1173.5	1939.7	1939.7
313.61	1173	1986.91	1986.91
314.11	1172.5	1944.76	1944.76
314.61	1172	1994.31	1994.31
315.11	1171.5	2064.63	2064.63
315.61	1171	2022.2	2022.2
316.11	1170.5	1961.65	1961.65
316.61	1170	2034.56	2034.56
317.11	1169.5	2027.95	2027.95
317.61	1169	2031.74	2031.74
318.11	1168.5	2038.81	2038.81
318.61	1168	2028.59	2028.59
319.11	1167.5	2056.52	2056.52
319.61	1167	2056.71	2056.71
320.11	1166.5	2075.6	2075.6
320.61	1166	2020.43	2020.43
321.11	1165.5	2096.34	2096.34
321.61	1165	2068.85	2068.85
322.11	1164.5	2123.57	2123.57
322.61	1164	2091.75	2091.75
323.11	1163.5	2123.87	2123.87
323.61	1163	2143.43	2143.43
324.11	1162.5	2133.89	2133.89
324.61	1162	2182.91	2182.91
325.11	1161.5	2153.39	2153.39
325.61	1161	2129.76	2129.76
326.11	1160.5	2146.01	2146.01
326.61	1160	2114.52	2114.52
327.11	1159.5	2077.3	2077.3
327.61	1159	2179.79	2179.79
328.11	1158.5	2215.29	2215.29
328.61	1158	2199.43	2199.43
329.11	1157.5	2174.73	2174.73
329.61	1157	2173.16	2173.16
330.11	1156.5	2180.19	2180.19
330.61	1156	2177.85	2177.85
331.11	1155.5	2220.59	2220.59
331.61	1155	2178.63	2178.63
332.11	1154.5	2216.73	2216.73
332.61	1154	2155.02	2155.02
333.11	1153.5	2217.57	2217.57
333.61	1153	2229.99	2229.99
334.11	1152.5	2250.44	2250.44
334.61	1152	2193.23	2193.23
335.11	1151.5	2273.31	2273.31
335.61	1151	2252.57	2252.57
336.11	1150.5	2236.35	2236.35
336.61	1150	2292.69	2292.69
337.11	1149.5	2276.63	2276.63
337.61	1149	2289.17	2289.17
338.11	1148.5	2238.08	2238.08
338.61	1148	2289.97	2289.97
339.11	1147.5	2290.8	2290.8
339.61	1147	2305.03	2305.03
340.11	1146.5	2300.25	2300.25
340.61	1146	2359.39	2359.39
341.11	1145.5	2325.07	2325.07
341.61	1145	2338.99	2338.99
342.11	1144.5	2344.19	2344.19
342.61	1144	2369.56	2369.56
343.11	1143.5	2367.96	2367.96
343.61	1143	2363.74	2363.74
344.11	1142.5	2405.08	2405.08
344.61	1142	2362.39	2362.39
345.11	1141.5	2399.69	2399.69
345.61	1141	2408.63	2408.63
346.11	1140.5	2422.05	2422.05
346.61	1140	2426.51	2426.51
347.11	1139.5	2418.75	2418.75
347.61	1139	2429.3	2429.3
348.11	1138.5	2433.71	2433.71
348.61	1138	2383.13	2383.13
349.11	1137.5	2399.12	2399.12
349.61	1137	2380.37	2380.37
350.11	1136.5	2432.67	2432.67
350.61	1136	2429.2	2429.2
351.11	1135.5	2423.13	2423.13
351.61	1135	2444.92	2444.92
352.11	1134.5	2436.26	2436.26
352.61	1134	2469.99	2469.99
353.11	1133.5	2448.2	2448.2
353.61	1133	2458.47	2458.47
354.11	1132.5	2468.73	2468.73
354.61	1132	2529.44	2529.44
355.11	1131.5	2477.48	2477.48
355.61	1131	2475.15	2475.15
356.11	1130.5	2466.91	2466.91
356.61	1130	2470.24	2470.24
357.11	1129.5	2441.29	2441.29
357.61	1129	2353.77	2353.77
358.11	1128.5	2424.35	2424.35
358.61	1128	2542.62	2542.62
359.11	1127.5	2544.39	2544.39
359.61	1127	2488.64	2488.64
360.11	1126.5	2442.27	2442.27
360.61	1126	2581.75	2581.75
361.11	1125.5	2601.32	2601.32
361.61	1125	2506.19	2506.19
362.11	1124.5	2481.81	2481.81
362.61	1124	2577.7	2577.7
363.11	1123.5	2591.55	2591.55
363.61	1123	2545.24	2545.24
364.11	1122.5	2628.66	2628.66
364.61	1122	2628.12	2628.12
365.11	1121.5	2624.56	2624.56
365.61	1121	2632.1	2632.1
366.11	1120.5	2646.75	2646.75
366.61	1120	2693.95	2693.95
367.11	1119.5	2705.57	2705.57
367.61	1119	2734.42	2734.42
368.11	1118.5	2713.81	2713.81
368.61	1118	2636.61	2636.61
369.11	1117.5	2641.93	2641.93
369.61	1117	2571.73	2571.73
370.11	1116.5	2599.55	2599.55
370.61	1116	2636.7	2636.7
371.11	1115.5	2640.71	2640.71
371.61	1115	2654.73	2654.73
372.11	1114.5	2600.14	2600.14
372.61	1114	2535.41	2535.41
373.11	1113.5	2556.98	2556.98
373.61	1113	2594.96	2594.96
374.11	1112.5	2709.82	2709.82
374.61	1112	2670.21	2670.21
375.11	1111.5	2596.49	2596.49
375.61	1111	2627.25	2627.25
376.11	1110.5	2646.81	2646.81
376.61	1110	2578.71	2578.71
377.11	1109.5	2626.37	2626.37
377.61	1109	2624.5	2624.5
378.11	1108.5	2630.04	2630.04
378.61	1108	2688.04	2688.04
379.11	1107.5	2655.53	2655.53
379.61	1107	2675.14	2675.14
380.11	1106.5	2672.61	2672.61
380.61	1106	2658.11	2658.11
381.11	1105.5	2636.35	2636.35
381.61	1105	2615.27	2615.27
382.11	1104.5	2666.77	2666.77
382.61	1104	2655.51	2655.51
383.11	1103.5	2695.3	2695.3
383.61	1103	2671.37	2671.37
384.11	1102.5	2616.32	2616.32
384.61	1102	2679.36	2679.36
385.11	1101.5	2699.33	2699.33
385.61	1101	2727.18	2727.18
386.11	1100.5	2653.65	2653.65
386.61	1100	2746.98	2746.98
387.11	1099.5	2815.65	2815.65
387.61	1099	2727.87	2727.87
388.11	1098.5	2762.52	2762.52
388.61	1098	2780.72	2780.72
389.11	1097.5	2797.55	2797.55
389.61	1097	2738.5	2738.5
390.11	1096.5	2806.24	2806.24
390.61	1096	2789.57	2789.57
391.11	1095.5	2862.91	2862.91
391.61	1095	2903.59	2903.59
392.11	1094.5	2787.05	2787.05
392.61	1094	2758.41	2758.41
393.11	1093.5	2787.2	2787.2
393.61	1093	2723.61	2723.61
394.11	1092.5	2787.5	2787.5
394.61	1092	2814.53	2814.53
395.11	1091.5	2804.55	2804.55
395.61	1091	2766.42	2766.42
396.11	1090.5	2762.79	2762.79
396.61	1090	2791.67	2791.67
397.11	1089.5	2762.42	2762.42
397.61	1089	2786.93	2786.93
398.11	1088.5	2801.27	2801.27
398.61	1088	2815.69	2815.69
399.11	1087.5	2817.41	2817.41
399.61	1087	2850.36	2850.36
400.11	1086.5	2818.55	2818.55
400.61	1086	2896.4	2896.4
401.11	1085.5	2818.69	2818.69
401.61	1085	2796.83	2796.83
402.11	1084.5	2833.06	2833.06
402.61	1084	2912.96	2912.96
403.11	1083.5	2879.09	2879.09
403.61	1083	2882.67	2882.67
404.11	1082.5	2805.57	2805.57
404.61	1082	2845.28	2845.28
405.11	1081.5	2845.25	2845.25
405.61	1081	2909.49	2909.49
406.11	1080.5	2935.73	2935.73
406.61	1080	2897.73	2897.73
407.11	1079.5	2910.03	2910.03
407.61	1079	2929.31	2929.31
408.11	1078.5	2944.33	2944.33
408.61	1078	2974.46	2974.46
409.11	1077.5	2950.3	2950.3
409.61	1077	2962.35	2962.35
410.11	1076.5	2906.78	2906.78
410.61	1076	2865.69	2865.69
411.11	1075.5	2950.57	2950.57
411.61	1075	3031.79	3031.79
412.11	1074.5	3017.11	3017.11
412.61	1074	2952.8	2952.8
413.11	1073.5	2981.43	2981.43
413.61	1073	2992.57	2992.57
414.11	1072.5	3019.87	3019.87
414.61	1072	3023.85	3023.85
415.11	1071.5	3018.28	3018.28
415.61	1071	2959.79	2959.79
416.11	1070.5	2991.51	2991.51
416.61	1070	2995.87	2995.87
417.11	1069.5	3073.29	3073.29
417.61	1069	3038.73	3038.73
418.11	1068.5	3011.17	3011.17
418.61	1068	3002.15	3002.15
419.11	1067.5	3105.52	3105.52
419.61	1067	3114.81	3114.81
420.11	1066.5	3122.22	3122.22
420.61	1066	3141.7	3141.7
421.11	1065.5	3098.84	3098.84
421.61	1065	3130.15	3130.15
422.11	1064.5	3109.13	3109.13
422.61	1064	3103.46	3103.46
423.11	1063.5	3154.21	3154.21
423.61	1063	3102.36	3102.36
424.11	1062.5	3155.71	3155.71
424.61	1062	3209.25	3209.25
425.11	1061.5	3193.09	3193.09
425.61	1061	3212.87	3212.87
426.11	1060.5	3241.45	3241.45
426.61	1060	3189.56	3189.56
427.11	1059.5	3167.45	3167.45
427.61	1059	3187.23	3187.23
428.11	1058.5	3199.28	3199.28
428.61	1058	3251.79	3251.79
429.11	1057.5	3347.33	3347.33
429.61	1057	3246.89	3246.89
430.11	1056.5	3255	3255
430.61	1056	3231.59	3231.59
431.11	1055.5	3235.63	3235.63
431.61	1055	3172.87	3172.87
432.11	1054.5	3264.41	3264.41
432.61	1054	3286.9	3286.9
433.11	1053.5	3333.04	3333.04
433.61	1053	3242.4	3242.4
434.11	1052.5	3341.45	3341.45
434.61	1052	3276.63	3276.63
435.11	1051.5	3247.76	3247.76
435.61	1051	3292.93	3292.93
436.11	1050.5	3345.65	3345.65
436.61	1050	3387.01	3387.01
437.11	1049.5	3337.7	3337.7
437.61	1049	3342.21	3342.21
438.11	1048.5	3335.57	3335.57
438.61	1048	3405.17	3405.17
439.11	1047.5	3395.77	3395.77
439.61	1047	3405.42	3405.42
440.11	1046.5	3370.27	3370.27
440.61	1046	3367.09	3367.09
441.11	1045.5	3423.4	3423.4
441.61	1045	3461.72	3461.72
442.11	1044.5	3376.49	3376.49
442.61	1044	3355.35	3355.35
443.11	1043.5	3393.99	3393.99
443.61	1043	3404.41	3404.41
444.11	1042.5	3392.58	3392.58
444.61	1042	3437.78	3437.78
445.11	1041.5	3415.39	3415.39
445.61	1041	3419.63	3419.63
446.11	1040.5	3415.35	3415.35
446.61	1040	3490.29	3490.29
447.11	1039.5	3510.93	3510.93
447.61	1039	3476.33	3476.33
448.11	1038.5	3487.83	3487.83
448.61	1038	3564.97	3564.97
449.11	1037.5	3522.59	3522.59
449.61	1037	3483.97	3483.97
450.11	1036.5	3501.42	3501.42
450.61	1036	3566.06	3566.06
451.11	1035.5	3582.47	3582.47
451.61	1035	3494.63	3494.63
452.11	1034.5	3562.79	3562.79
452.61	1034	3573.38	3573.38
453.11	1033.5	3556.89	3556.89
453.61	1033	3560.56	3560.56
454.11	1032.5	3539.65	3539.65
454.61	1032	3607.78	3607.78
455.11	1031.5	3595.85	3595.85
455.61	1031	3567.13	3567.13
456.11	1030.5	3692.2	3692.2
456.61	1030	3606.91	3606.91
457.11	1029.5	3583.78	3583.78
457.61	1029	3667.56	3667.56
458.11	1028.5	3633.42	3633.42
458.61	1028	3703.73	3703.73
459.11	1027.5	3690.02	3690.02
459.61	1027	3654.93	3654.93
460.11	1026.5	3702.19	3702.19
460.61	1026	3684.43	3684.43
461.11	1025.5	3711.85	3711.85
461.61	1025	3675.57	3675.57
462.11	1024.5	3751.89	3751.89
462.61	1024	3774.78	3774.78
463.11	1023.5	3778.69	3778.69
463.61	1023	3693.81	3693.81
464.11	1022.5	3674.38	3674.38
464.61	1022	3725.62	3725.62
465.11	1021.5	3859.17	3859.17
465.61	1021	3788.8	3788.8
466.11	1020.5	3703.12	3703.12
466.61	1020	3761.27	3761.27
467.11	1019.5	3793.71	3793.71
467.61	1019	3750.41	3750.41
468.11	1018.5	3748.01	3748.01
468.61	1018	3800.31	3800.31
469.11	1017.5	3790.53	3790.53
469.61	1017	3812.9	3812.9
470.11	1016.5	3840.69	3840.69
470.61	1016	3786.59	3786.59
471.11	1015.5	3779.35	3779.35
471.61	1015	3830.67	3830.67
472.11	1014.5	3860.72	3860.72
472.61	1014	3895.87	3895.87
473.11	1013.5	3832.69	3832.69
473.61	1013	3834.15	3834.15
474.11	1012.5	3892.29	3892.29
474.61	1012	3945.57	3945.57
475.11	1011.5	3847.27	3847.27
475.61	1011	3882.53	3882.53
476.11	1010.5	3909.37	3909.37
476.61	1010	3898.03	3898.03
477.11	1009.5	3871.74	3871.74
477.61	1009	3952.45	3952.45
478.11	1008.5	3887.99	3887.99
478.61	1008	3937.96	3937.96
479.11	1007.5	3933.02	3933.02
479.61	1007	3930.05	3930.05
480.11	1006.5	3940.75	3940.75
480.61	1006	4038.1	4038.1
481.11	1005.5	3967.96	3967.96
481.61	1005	3905.59	3905.59
482.11	1004.5	3927.41	3927.41
482.61	1004	3989.93	3989.93
483.11	1003.5	3961.39	3961.39
483.61	1003	3954.04	3954.04
484.11	1002.5	3956.58	3956.58
484.61	1002	4081.61	4081.61
485.11	1001.5	4051.68	4051.68
485.61	1001	4085.59	4085.59
486.11	1000.5	4072.25	4072.25
486.61	1000	4099.81	4099.81
487.11	999.5	4033.95	4033.95
487.61	999	4018.28	4018.28
488.11	998.5	4038.81	4038.81
488.61	998	4131.1	4131.1
489.11	997.5	4079.38	4079.38
489.61	997	4068.59	4068.59
490.11	996.5	4087.21	4087.21
490.61	996	4102.37	4102.37
491.11	995.5	4050.41	4050.41
491.61	995	4058.02	4058.02
492.11	994.5	4101.33	4101.33
492.61	994	4093.43	4093.43
493.11	993.5	4067.49	4067.49
493.61	993	4057.73	4057.73
494.11	992.5	4127.86	4127.86
494.61	992	4126.51	4126.51
495.11	991.5	4205.7	4205.7
495.61	991	4128.04	4128.04
496.11	990.5	4025.62	4025.62
496.61	990	4057.99	4057.99
497.11	989.5	4107.91	4107.91
497.61	989	4116.58	4116.58
498.11	988.5	4132.76	4132.76
498.61	988	4131.91	4131.91
499.11	987.5	4098.15	4098.15
499.61	987	4163.63	4163.63
500.11	986.5	4165.95	4165.95
500.61	986	4086.8	4086.8
501.11	985.5	4140.72	4140.72
501.61	985	4132.99	4132.99
502.11	984.5	4168.35	4168.35
502.61	984	4176.91	4176.91
503.11	983.5	4165.67	4165.67
503.61	983	4188.5	4188.5
504.11	982.5	4191.21	4191.21
504.61	982	4177.15	4177.15
505.11	981.5	4188.42	4188.42
505.61	981	4215.19	4215.19
506.11	980.5	4154.01	4154.01
506.61	980	4146.07	4146.07
507.11	979.5	4228.33	4228.33
507.61	979	4223.01	4223.01
508.11	978.5	4152.03	4152.03
508.61	978	4185.69	4185.69
509.11	977.5	4123.79	4123.79
509.61	977	4149.85	4149.85
510.11	976.5	4080.78	4080.78
510.61	976	4158.33	4158.33
511.11	975.5	4163.39	4163.39
511.61	975	4202.3	4202.3
512.11	974.5	4138.05	4138.05
512.61	974	4145.69	4145.69
513.11	973.5	4180.41	4180.41
513.61	973	4172.61	4172.61
514.11	972.5	4246.25	4246.25
514.61	972	4203.97	4203.97
515.11	971.5	4252.82	4252.82
515.61	971	4188.36	4188.36
516.11	970.5	4161.65	4161.65
516.61	970	4099.93	4099.93
517.11	969.5	4235.19	4235.19
517.61	969	4221.69	4221.69
518.11	968.5	4193.75	4193.75
518.61	968	4184.4	4184.4
519.11	967.5	4202.25	4202.25
519.61	967	4340.62	4340.62
520.11	966.5	4340.79	4340.79
520.61	966	4430.55	4430.55
521.11	965.5	4397.25	4397.25
521.61	965	4230.97	4230.97
522.11	964.5	4123.4	4123.4
522.61	964	4086.19	4086.19
523.11	963.5	4054.87	4054.87
523.61	963	4042.15	4042.15
524.11	962.5	3934.41	3934.41
524.61	962	3849.63	3849.63
525.11	961.5	3905.52	3905.52
525.61	961	3891.27	3891.27
526.11	960.5	3907.09	3907.09
526.61	960	3838.09	3838.09
527.11	959.5	3910.77	3910.77
527.61	959	3866.39	3866.39
528.11	958.5	3818.71	3818.71
528.61	958	3861.61	3861.61
529.11	957.5	3763.42	3763.42
529.61	957	3754.89	3754.89
530.11	956.5	3803.69	3803.69
530.61	956	3783.89	3783.89
531.11	955.5	3831.68	3831.68
531.61	955	3876.17	3876.17
532.11	954.5	4080.69	4080.69
532.61	954	4150.79	4150.79
533.11	953.5	4645.98	4645.98
533.61	953	5367.51	5367.51
534.11	952.5	5801.55	5801.55
534.61	952	5159.16	5159.16
535.11	951.5	4456.39	4456.39
535.61	951	4117.13	4117.13
536.11	950.5	3948.95	3948.95
536.61	950	3884.95	3884.95
537.11	949.5	3828.46	3828.46
537.61	949	3824.01	3824.01
538.11	948.5	3854.33	3854.33
538.61	948	3721.1	3721.1
539.11	947.5	3806.27	3806.27
539.61	947	4016.54	4016.54
540.11	946.5	4120.86	4120.86
540.61	946	4248.57	4248.57
541.11	945.5	4159.43	4159.43
541.61	945	3620.95	3620.95
542.11	944.5	3245.82	3245.82
542.61	944	3179.29	3179.29
543.11	943.5	3157.73	3157.73
543.61	943	3146.13	3146.13
544.11	942.5	3076.95	3076.95
544.61	942	3066.13	3066.13
545.11	941.5	3097.27	3097.27
545.61	941	2978.15	2978.15
546.11	940.5	2907.29	2907.29
546.61	940	2986.65	2986.65
547.11	939.5	2980.06	2980.06
547.61	939	2921.53	2921.53
548.11	938.5	3000.87	3000.87
548.61	938	3002.31	3002.31
549.11	937.5	2988.69	2988.69
549.61	937	3078.82	3078.82
550.11	936.5	3069.15	3069.15
550.61	936	3043.21	3043.21
551.11	935.5	3068.84	3068.84
551.61	935	3126.36	3126.36
552.11	934.5	3281.75	3281.75
552.61	934	3717.39	3717.39
553.11	933.5	5219.01	5219.01
553.61	933	8612.33	8612.33
554.11	932.5	8839.87	8839.87
554.61	932	5216.13	5216.13
555.11	931.5	3598.35	3598.35
555.61	931	3075.08	3075.08
556.11	930.5	2909.77	2909.77
556.61	930	2809.93	2809.93
557.11	929.5	2760.58	2760.58
557.61	929	2765.45	2765.45
558.11	928.5	2773.23	2773.23
558.61	928	2808.7	2808.7
559.11	927.5	2745.02	2745.02
559.61	927	2716.89	2716.89
560.11	926.5	2790.99	2790.99
560.61	926	2745.47	2745.47
561.11	925.5	2725.69	2725.69
561.61	925	2716.98	2716.98
562.11	924.5	2699.77	2699.77
562.61	924	2742.63	2742.63
563.11	923.5	2717.42	2717.42
563.61	923	2715.17	2715.17
564.11	922.5	2697.62	2697.62
564.61	922	2738.61	2738.61
565.11	921.5	2812.64	2812.64
565.61	921	2757.37	2757.37
566.11	920.5	2749.75	2749.75
566.61	920	2784.86	2784.86
567.11	919.5	2790.03	2790.03
567.61	919	2722.77	2722.77
568.11	918.5	2741.12	2741.12
568.61	918	2765.36	2765.36
569.11	917.5	2799.54	2799.54
569.61	917	2782.27	2782.27
570.11	916.5	2799.66	2799.66
570.61	916	2770.14	2770.14
571.11	915.5	2805.84	2805.84
571.61	915	2852.84	2852.84
572.11	914.5	2851.57	2851.57
572.61	914	2839.57	2839.57
573.11	913.5	2793.5	2793.5
573.61	913	2834.25	2834.25
574.11	912.5	2792.61	2792.61
574.61	912	2787.2	2787.2
575.11	911.5	2813.99	2813.99
575.61	911	2901.46	2901.46
576.11	910.5	2911.33	2911.33
576.61	910	2848.05	2848.05
577.11	909.5	2862.42	2862.42
577.61	909	2811.38	2811.38
578.11	908.5	2874.31	2874.31
578.61	908	2898.77	2898.77
579.11	907.5	2844.04	2844.04
579.61	907	2816.99	2816.99
580.11	906.5	2886	2886
580.61	906	2864.29	2864.29
581.11	905.5	2892.65	2892.65
581.61	905	2905.61	2905.61
582.11	904.5	2902.88	2902.88
582.61	904	2971.29	2971.29
583.11	903.5	2936.09	2936.09
583.61	903	2965.01	2965.01
584.11	902.5	2850.75	2850.75
584.61	902	2863.71	2863.71
585.11	901.5	2958.33	2958.33
585.61	901	2883.27	2883.27
586.11	900.5	2931.71	2931.71
586.61	900	2902.51	2902.51
587.11	899.5	2983.33	2983.33
587.61	899	3010.84	3010.84
588.11	898.5	3006.17	3006.17
588.61	898	2911.96	2911.96
589.11	897.5	2948.45	2948.45
589.61	897	2953.37	2953.37
590.11	896.5	2997.34	2997.34
590.61	896	2993.99	2993.99
591.11	895.5	2994.39	2994.39
591.61	895	2993.93	2993.93
592.11	894.5	3009.33	3009.33
592.61	894	2983.09	2983.09
593.11	893.5	2987.49	2987.49
593.61	893	3044.51	3044.51
594.11	892.5	3076.86	3076.86
594.61	892	3010.86	3010.86
595.11	891.5	3016.29	3016.29
595.61	891	3077.73	3077.73
596.11	890.5	3100.17	3100.17
596.61	890	3043.14	3043.14
597.11	889.5	3079.43	3079.43
597.61	889	3039.46	3039.46
598.11	888.5	3072.32	3072.32
598.61	888	3023.66	3023.66
599.11	887.5	3041.29	3041.29
599.61	887	3060.36	3060.36
600.11	886.5	3116.29	3116.29
600.61	886	3087.93	3087.93
601.11	885.5	3039.85	3039.85
601.61	885	3045.82	3045.82
602.11	884.5	3127.65	3127.65
602.61	884	3092.99	3092.99
603.11	883.5	3101.96	3101.96
603.61	883	3111.34	3111.34
604.11	882.5	3108.73	3108.73
604.61	882	3061.45	3061.45
605.11	881.5	3168.45	3168.45
605.61	881	3107.7	3107.7
606.11	880.5	3117.36	3117.36
606.61	880	3100.73	3100.73
607.11	879.5	3197.86	3197.86
607.61	879	3208.33	3208.33
608.11	878.5	3237.67	3237.67
608.61	878	3230.66	3230.66
609.11	877.5	3190.52	3190.52
609.61	877	3106.44	3106.44
610.11	876.5	3108.59	3108.59
610.61	876	3153.75	3153.75
611.11	875.5	3184.21	3184.21
611.61	875	3277.95	3277.95
612.11	874.5	3232.71	3232.71
612.61	874	3238.13	3238.13
613.11	873.5	3289.54	3289.54
613.61	873	3235.68	3235.68
614.11	872.5	3165.49	3165.49
614.61	872	3204.17	3204.17
615.11	871.5	3231.27	3231.27
615.61	871	3303.75	3303.75
616.11	870.5	3246.49	3246.49
616.61	870	3230.51	3230.51
617.11	869.5	3263.25	3263.25
617.61	869	3168.75	3168.75
618.11	868.5	3177.49	3177.49
618.61	868	3312.07	3312.07
619.11	867.5	3266.27	3266.27
619.61	867	3283.59	3283.59
620.11	866.5	3267.23	3267.23
620.61	866	3347.59	3347.59
621.11	865.5	3289.09	3289.09
621.61	865	3233.81	3233.81
622.11	864.5	3265.18	3265.18
622.61	864	3262.93	3262.93
623.11	863.5	3316.87	3316.87
623.61	863	3292.37	3292.37
624.11	862.5	3432.93	3432.93
624.61	862	3362.1	3362.1
625.11	861.5	3377.27	3377.27
625.61	861	3425.89	3425.89
626.11	860.5	3396.79	3396.79
626.61	860	3386.02	3386.02
627.11	859.5	3326.43	3326.43
627.61	859	3342.98	3342.98
628.11	858.5	3379.49	3379.49
628.61	858	3498.93	3498.93
629.11	857.5	3440.02	3440.02
629.61	857	3414.23	3414.23
630.11	856.5	3426.32	3426.32
630.61	856	3482.09	3482.09
631.11	855.5	3371.44	3371.44
631.61	855	3367.53	3367.53
632.11	854.5	3367.57	3367.57
632.61	854	3426.61	3426.61
633.11	853.5	3421.44	3421.44
633.61	853	3424.36	3424.36
634.11	852.5	3412.21	3412.21
634.61	852	3431.32	3431.32
635.11	851.5	3388.65	3388.65
635.61	851	3430.49	3430.49
636.11	850.5	3463.46	3463.46
636.61	850	3499.33	3499.33
637.11	849.5	3490.84	3490.84
637.61	849	3424.61	3424.61
638.11	848.5	3471.81	3471.81
638.61	848	3507.47	3507.47
639.11	847.5	3483.91	3483.91
639.61	847	3525.29	3525.29
640.11	846.5	3548.25	3548.25
640.61	846	3595.29	3595.29
641.11	845.5	3526.37	3526.37
641.61	845	3534.03	3534.03
642.11	844.5	3519.07	3519.07
642.61	844	3530.44	3530.44
643.11	843.5	3542.25	3542.25
643.61	843	3554.8	3554.8
644.11	842.5	3501.61	3501.61
644.61	842	3511.87	3511.87
645.11	841.5	3577.87	3577.87
645.61	841	3591.85	3591.85
646.11	840.5	3544.87	3544.87
646.61	840	3532.37	3532.37
647.11	839.5	3530.06	3530.06
647.61	839	3616.42	3616.42
648.11	838.5	3567.93	3567.93
648.61	838	3532.22	3532.22
649.11	837.5	3626.83	3626.83
649.61	837	3631.42	3631.42
650.11	836.5	3661.68	3661.68
650.61	836	3659.86	3659.86
651.11	835.5	3638.99	3638.99
651.61	835	3658.79	3658.79
652.11	834.5	3710.29	3710.29
652.61	834	3692.33	3692.33
653.11	833.5	3752.85	3752.85
653.61	833	3677.99	3677.99
654.11	832.5	3621.43	3621.43
654.61	832	3635.95	3635.95
655.11	831.5	3712.46	3712.46
655.61	831	3679.34	3679.34
656.11	830.5	3675.47	3675.47
656.61	830	3699.79	3699.79
657.11	829.5	3695.65	3695.65
657.61	829	3731.25	3731.25
658.11	828.5	3765.67	3765.67
658.61	828	3782.86	3782.86
659.11	827.5	3736.78	3736.78
659.61	827	3739.35	3739.35
660.11	826.5	3792.15	3792.15
660.61	826	3698.67	3698.67
661.11	825.5	3758.71	3758.71
661.61	825	3719.49	3719.49
662.11	824.5	3731.08	3731.08
662.61	824	3810.71	3810.71
663.11	823.5	3829.21	3829.21
663.61	823	3834.86	3834.86
664.11	822.5	3830.65	3830.65
664.61	822	3770.31	3770.31
665.11	821.5	3808.28	3808.28
665.61	821	3802.73	3802.73
666.11	820.5	3867.73	3867.73
666.61	820	3867.55	3867.55
667.11	819.5	3814.44	3814.44
667.61	819	3761.79	3761.79
668.11	818.5	3780.53	3780.53
668.61	818	3888.42	3888.42
669.11	817.5	3858.83	3858.83
669.61	817	3850.67	3850.67
670.11	816.5	3771.1	3771.1
670.61	816	3850.34	3850.34
671.11	815.5	3939.95	3939.95
671.61	815	3925.31	3925.31
672.11	814.5	3888.35	3888.35
672.61	814	3844.51	3844.51
673.11	813.5	3880.87	3880.87
673.61	813	3921.77	3921.77
674.11	812.5	3918.09	3918.09
674.61	812	3864.79	3864.79
675.11	811.5	3903.77	3903.77
675.61	811	3923.63	3923.63
676.11	810.5	3906.59	3906.59
676.61	810	3948.99	3948.99
677.11	809.5	3926.48	3926.48
677.61	809	4009.8	4009.8
678.11	808.5	3944.85	3944.85
678.61	808	3947.67	3947.67
679.11	807.5	3978.82	3978.82
679.61	807	3915.42	3915.42
680.11	806.5	4006.05	4006.05
680.61	806	4066.71	4066.71
681.11	805.5	4003.13	4003.13
681.61	805	4014.4	4014.4
682.11	804.5	4033.68	4033.68
682.61	804	4021.03	4021.03
683.11	803.5	4026.23	4026.23
683.61	803	4101.29	4101.29
684.11	802.5	4109.19	4109.19
684.61	802	4152.55	4152.55
685.11	801.5	4044.16	4044.16
685.61	801	4068.21	4068.21
686.11	800.5	3980.49	3980.49
686.61	800	4059.08	4059.08
687.11	799.5	4051.29	4051.29
687.61	799	4067.25	4067.25
688.11	798.5	4065.9	4065.9
688.61	798	4110.05	4110.05
689.11	797.5	4036.55	4036.55
689.61	797	4063.95	4063.95
690.11	796.5	4112.71	4112.71
690.61	796	4107.51	4107.51
691.11	795.5	4139.23	4139.23
691.61	795	4174.19	4174.19
692.11	794.5	4167.45	4167.45
692.61	794	4142.33	4142.33
693.11	793.5	4156.07	4156.07
693.61	793	4121.23	4121.23
694.11	792.5	4173.3	4173.3
694.61	792	4108.54	4108.54
695.11	791.5	4199.83	4199.83
695.61	791	4212.14	4212.14
696.11	790.5	4194.4	4194.4
696.61	790	4154.41	4154.41
697.11	789.5	4200.34	4200.34
697.61	789	4234.19	4234.19
698.11	788.5	4277.7	4277.7
698.61	788	4272.77	4272.77
699.11	787.5	4181.89	4181.89
699.61	787	4169.3	4169.3
700.11	786.5	4179.4	4179.4
700.61	786	4256.97	4256.97
701.11	785.5	4239.12	4239.12
701.61	785	4228.76	4228.76
702.11	784.5	4231.17	4231.17
702.61	784	4357.47	4357.47
703.11	783.5	4299.29	4299.29
703.61	783	4389.34	4389.34
704.11	782.5	4381.03	4381.03
704.61	782	4285.31	4285.31
705.11	781.5	4316.5	4316.5
705.61	781	4273.18	4273.18
706.11	780.5	4259.02	4259.02
706.61	780	4250.99	4250.99
707.11	779.5	4306.94	4306.94
707.61	779	4285.29	4285.29
708.11	778.5	4294.73	4294.73
708.61	778	4369.92	4369.92
709.11	777.5	4375.54	4375.54
709.61	777	4421.48	4421.48
710.11	776.5	4341.49	4341.49
710.61	776	4317.15	4317.15
711.11	775.5	4316.14	4316.14
711.61	775	4404.26	4404.26
712.11	774.5	4312.35	4312.35
712.61	774	4461.69	4461.69
713.11	773.5	4431.5	4431.5
713.61	773	4429.93	4429.93
714.11	772.5	4400.24	4400.24
714.61	772	4437.49	4437.49
715.11	771.5	4399.83	4399.83
715.61	771	4492.75	4492.75
716.11	770.5	4531.37	4531.37
716.61	770	4483.28	4483.28
717.11	769.5	4475.57	4475.57
717.61	769	4398.66	4398.66
718.11	768.5	4366.43	4366.43
718.61	768	4459.7	4459.7
719.11	767.5	4423.29	4423.29
719.61	767	4428.48	4428.48
720.11	766.5	4398.96	4398.96
720.61	766	4321.21	4321.21
721.11	765.5	4408.49	4408.49
721.61	765	4478.19	4478.19
722.11	764.5	4491.98	4491.98
722.61	764	4413.94	4413.94
723.11	763.5	4416	4416
723.61	763	4487.75	4487.75
724.11	762.5	4398.65	4398.65
724.61	762	4433.83	4433.83
725.11	761.5	4509.95	4509.95
725.61	761	4542.91	4542.91
726.11	760.5	4413.67	4413.67
726.61	760	4481.75	4481.75
727.11	759.5	4524.83	4524.83
727.61	759	4491.47	4491.47
728.11	758.5	4483.62	4483.62
728.61	758	4545.96	4545.96
729.11	757.5	4595.17	4595.17
729.61	757	4560.26	4560.26
730.11	756.5	4537.92	4537.92
730.61	756	4529.63	4529.63
731.11	755.5	4530.97	4530.97
731.61	755	4613.07	4613.07
732.11	754.5	4612.16	4612.16
732.61	754	4528.66	4528.66
733.11	753.5	4528.87	4528.87
733.61	753	4589.63	4589.63
734.11	752.5	4499.07	4499.07
734.61	752	4520.35	4520.35
735.11	751.5	4536.27	4536.27
735.61	751	4510.81	4510.81
736.11	750.5	4481.09	4481.09
736.61	750	4595.48	4595.48
737.11	749.5	4569.38	4569.38
737.61	749	4486.01	4486.01
738.11	748.5	4532.93	4532.93
738.61	748	4554.54	4554.54
739.11	747.5	4508.6	4508.6
739.61	747	4520.34	4520.34
740.11	746.5	4479.28	4479.28
740.61	746	4415.53	4415.53
741.11	745.5	4473.5	4473.5
741.61	745	4467.48	4467.48
742.11	744.5	4466.78	4466.78
742.61	744	4550.67	4550.67
743.11	743.5	4572.15	4572.15
743.61	743	4509.79	4509.79
744.11	742.5	4565.99	4565.99
744.61	742	4602.23	4602.23
745.11	741.5	4543.62	4543.62
745.61	741	4580.22	4580.22
746.11	740.5	4561.61	4561.61
746.61	740	4599.56	4599.56
747.11	739.5	4509.85	4509.85
747.61	739	4553.66	4553.66
748.11	738.5	4546.84	4546.84
748.61	738	4545.85	4545.85
749.11	737.5	4464.73	4464.73
749.61	737	4536.38	4536.38
750.11	736.5	4594.87	4594.87
750.61	736	4610.18	4610.18
751.11	735.5	4508.21	4508.21
751.61	735	4521.69	4521.69
752.11	734.5	4588.13	4588.13
752.61	734	4523.93	4523.93
753.11	733.5	4643.29	4643.29
753.61	733	4500.49	4500.49
754.11	732.5	4563.82	4563.82
754.61	732	4623.67	4623.67
755.11	731.5	4561.6	4561.6
755.61	731	4529.05	4529.05
756.11	730.5	4549.83	4549.83
756.61	730	4607.07	4607.07
757.11	729.5	4570.07	4570.07
757.61	729	4527.73	4527.73
758.11	728.5	4553.32	4553.32
758.61	728	4569.23	4569.23
759.11	727.5	4560.61	4560.61
759.61	727	4595.63	4595.63
760.11	726.5	4612.52	4612.52
760.61	726	4561.97	4561.97
761.11	725.5	4600.69	4600.69
761.61	725	4607.42	4607.42
762.11	724.5	4546.22	4546.22
762.61	724	4531.38	4531.38
763.11	723.5	4488.06	4488.06
763.61	723	4562.69	4562.69
764.11	722.5	4541.3	4541.3
764.61	722	4588.87	4588.87
765.11	721.5	4557.31	4557.31
765.61	721	4557.35	4557.35
766.11	720.5	4564.07	4564.07
766.61	720	4697.66	4697.66
767.11	719.5	4636.74	4636.74
767.61	719	4593.92	4593.92
768.11	718.5	4541.37	4541.37
768.61	718	4598.71	4598.71
769.11	717.5	4521.65	4521.65
769.61	717	4458.95	4458.95
770.11	716.5	4495.97	4495.97
770.61	716	4447.31	4447.31
771.11	715.5	4498.42	4498.42
771.61	715	4504.06	4504.06
772.11	714.5	4483.23	4483.23
772.61	714	4476.23	4476.23
773.11	713.5	4494.07	4494.07
773.61	713	4500.77	4500.77
774.11	712.5	4543.61	4543.61
774.61	712	4520.11	4520.11
775.11	711.5	4431.21	4431.21
775.61	711	4388.35	4388.35
776.11	710.5	4397.03	4397.03
776.61	710	4364.09	4364.09
777.11	709.5	4331.08	4331.08
777.61	709	4253.84	4253.84
778.11	708.5	4234.37	4234.37
778.61	708	4228.09	4228.09
779.11	707.5	4120.36	4120.36
779.61	707	4079.2	4079.2
780.11	706.5	4047.35	4047.35
780.61	706	4134.76	4134.76
781.11	705.5	4172.21	4172.21
781.61	705	4208.23	4208.23
782.11	704.5	4193.13	4193.13
782.61	704	4107.53	4107.53
783.11	703.5	4117.4	4117.4
783.61	703	4208.31	4208.31
784.11	702.5	4088.53	4088.53
784.61	702	4087.71	4087.71
785.11	701.5	4077.59	4077.59
785.61	701	4077.48	4077.48
786.11	700.5	4051.85	4051.85
786.61	700	4065.97	4065.97
787.11	699.5	4043.75	4043.75
787.61	699	4070.93	4070.93
788.11	698.5	4036.7	4036.7
788.61	698	4127.55	4127.55
789.11	697.5	3992.63	3992.63
789.61	697	4111.37	4111.37
790.11	696.5	4105.63	4105.63
790.61	696	4094.19	4094.19
791.11	695.5	4078.61	4078.61
791.61	695	4062.21	4062.21
792.11	694.5	4120.6	4120.6
792.61	694	4178.23	4178.23
793.11	693.5	4051.14	4051.14
793.61	693	4007.38	4007.38
794.11	692.5	4165.82	4165.82
794.61	692	4104	4104
795.11	691.5	4034.06	4034.06
795.61	691	4023.51	4023.51
796.11	690.5	4077.75	4077.75
796.61	690	4115.75	4115.75
797.11	689.5	4094.76	4094.76
797.61	689	4187.53	4187.53
798.11	688.5	4094.99	4094.99
798.61	688	4106.01	4106.01
799.11	687.5	4056.99	4056.99
799.61	687	3989.68	3989.68
800.11	686.5	4056.48	4056.48
800.61	686	4108.8	4108.8
801.11	685.5	4056.42	4056.42
801.61	685	4012.8	4012.8
802.11	684.5	3966.3	3966.3
802.61	684	3972.99	3972.99
803.11	683.5	3980.96	3980.96
803.61	683	4000.69	4000.69
804.11	682.5	4020.79	4020.79
804.61	682	4010.53	4010.53
805.11	681.5	4009.4	4009.4
805.61	681	4022.88	4022.88
806.11	680.5	4097.09	4097.09
806.61	680	4067.09	4067.09
807.11	679.5	4103.53	4103.53
807.61	679	4050.91	4050.91
808.11	678.5	4053.81	4053.81
808.61	678	4031.99	4031.99
809.11	677.5	4011.54	4011.54
809.61	677	4006.99	4006.99
810.11	676.5	4032.15	4032.15
810.61	676	4042.85	4042.85
811.11	675.5	3984.95	3984.95
811.61	675	4027.06	4027.06
812.11	674.5	4210.37	4210.37
812.61	674	4178.41	4178.41
813.11	673.5	4113.31	4113.31
813.61	673	4070.14	4070.14
814.11	672.5	4148.99	4148.99
814.61	672	4112.72	4112.72
815.11	671.5	4122.78	4122.78
815.61	671	4073.11	4073.11
816.11	670.5	4058.82	4058.82
816.61	670	4152.32	4152.32
817.11	669.5	4125.61	4125.61
817.61	669	4103.29	4103.29
818.11	668.5	4112.67	4112.67
818.61	668	4117.69	4117.69
819.11	667.5	4102.09	4102.09
819.61	667	4045.53	4045.53
820.11	666.5	4150.43	4150.43
820.61	666	4069.03	4069.03
821.11	665.5	4042.42	4042.42
821.61	665	4118.78	4118.78
822.11	664.5	4195.92	4195.92
822.61	664	4091.93	4091.93
823.11	663.5	4151.01	4151.01
823.61	663	4143.01	4143.01
824.11	662.5	4116.63	4116.63
824.61	662	4100.07	4100.07
825.11	661.5	4077.99	4077.99
825.61	661	4071.76	4071.76
826.11	660.5	3997.94	3997.94
826.61	660	3985.37	3985.37
827.11	659.5	3943.39	3943.39
827.61	659	3930.66	3930.66
828.11	658.5	4045.49	4045.49
828.61	658	4084.73	4084.73
829.11	657.5	4030.49	4030.49
829.61	657	4051.29	4051.29
830.11	656.5	4051.44	4051.44
830.61	656	3974.85	3974.85
831.11	655.5	4076.67	4076.67
831.61	655	4075.64	4075.64
832.11	654.5	4026.73	4026.73
832.61	654	4048.71	4048.71
833.11	653.5	4007.96	4007.96
833.61	653	4024.9	4024.9
834.11	652.5	4020.48	4020.48
834.61	652	4009.27	4009.27
835.11	651.5	4014.26	4014.26
835.61	651	4021.01	4021.01
836.11	650.5	3966.05	3966.05
836.61	650	4036.79	4036.79
837.11	649.5	4141.8	4141.8
837.61	649	4226.98	4226.98
838.11	648.5	4273.59	4273.59
838.61	648	4418.91	4418.91
839.11	647.5	4338.52	4338.52
839.61	647	4225.29	4225.29
840.11	646.5	4081.08	4081.08
840.61	646	4000.63	4000.63
841.11	645.5	3874.22	3874.22
841.61	645	3764.69	3764.69
842.11	644.5	3706.28	3706.28
842.61	644	3625.11	3625.11
843.11	643.5	3693.77	3693.77
843.61	643	3633.07	3633.07
844.11	642.5	3643.35	3643.35
844.61	642	3642.37	3642.37
845.11	641.5	3803.35	3803.35
845.61	641	3813.26	3813.26
846.11	640.5	3879.42	3879.42
846.61	640	3886.23	3886.23
847.11	639.5	3838.37	3838.37
847.61	639	3696.8	3696.8
848.11	638.5	3578.52	3578.52
848.61	638	3509.4	3509.4
849.11	637.5	3475.68	3475.68
849.61	637	3406.35	3406.35
850.11	636.5	3346.37	3346.37
850.61	636	3270.18	3270.18
851.11	635.5	3303.25	3303.25
851.61	635	3222.76	3222.76
852.11	634.5	3254.67	3254.67
852.61	634	3153.73	3153.73
853.11	633.5	3193.37	3193.37
853.61	633	3199.47	3199.47
854.11	632.5	3198.11	3198.11
854.61	632	3170.45	3170.45
855.11	631.5	3121.77	3121.77
855.61	631	3115.58	3115.58
856.11	630.5	3086.95	3086.95
856.61	630	3165.29	3165.29
857.11	629.5	3163.31	3163.31
857.61	629	3142.76	3142.76
858.11	628.5	3213.03	3213.03
858.61	628	3126.66	3126.66
859.11	627.5	3137.47	3137.47
859.61	627	3132.58	3132.58
860.11	626.5	3053.94	3053.94
860.61	626	3048.33	3048.33
861.11	625.5	3011.2	3011.2
861.61	625	3043.08	3043.08
862.11	624.5	2944.55	2944.55
862.61	624	2925.94	2925.94
863.11	623.5	2996.59	2996.59
863.61	623	3023.64	3023.64
864.11	622.5	3006.65	3006.65
864.61	622	2981.27	2981.27
865.11	621.5	2963.99	2963.99
865.61	621	3043.77	3043.77
866.11	620.5	2997.43	2997.43
866.61	620	2934.53	2934.53
867.11	619.5	2951.25	2951.25
867.61	619	2984.34	2984.34
868.11	618.5	2925.23	2925.23
868.61	618	2866.48	2866.48
869.11	617.5	2928.33	2928.33
869.61	617	2942.47	2942.47
870.11	616.5	2963.19	2963.19
870.61	616	2988.14	2988.14
871.11	615.5	2919.63	2919.63
871.61	615	2976.74	2976.74
872.11	614.5	2902.18	2902.18
872.61	614	2854.51	2854.51
873.11	613.5	2951.11	2951.11
873.61	613	2925.81	2925.81
874.11	612.5	2944.66	2944.66
874.61	612	2941.3	2941.3
875.11	611.5	2931.65	2931.65
875.61	611	2930.16	2930.16
876.11	610.5	2940.98	2940.98
876.61	610	2898.35	2898.35
877.11	609.5	2898.66	2898.66
877.61	609	2889.49	2889.49
878.11	608.5	2934.95	2934.95
878.61	608	2966.53	2966.53
879.11	607.5	3014.83	3014.83
879.61	607	2941.95	2941.95
880.11	606.5	2886.27	2886.27
880.61	606	2960.07	2960.07
881.11	605.5	2987.61	2987.61
881.61	605	2994.84	2994.84
882.11	604.5	2914.99	2914.99
882.61	604	2972.37	2972.37
883.11	603.5	3022.54	3022.54
883.61	603	3003.31	3003.31
884.11	602.5	3038.29	3038.29
884.61	602	2998.9	2998.9
885.11	601.5	3006.62	3006.62
885.61	601	3080.12	3080.12
886.11	600.5	2976.53	2976.53
886.61	600	3012.97	3012.97
887.11	599.5	2947.33	2947.33
887.61	599	3022.25	3022.25
888.11	598.5	3010.25	3010.25
888.61	598	3034.01	3034.01
889.11	597.5	3025.85	3025.85
889.61	597	3052.71	3052.71
890.11	596.5	2932.59	2932.59
890.61	596	2963.49	2963.49
891.11	595.5	2998.45	2998.45
891.61	595	2989.65	2989.65
892.11	594.5	2945.76	2945.76
892.61	594	2937.76	2937.76
893.11	593.5	3024.54	3024.54
893.61	593	2957.62	2957.62
894.11	592.5	2934.49	2934.49
894.61	592	2979.03	2979.03
895.11	591.5	2992.61	2992.61
895.61	591	3013.25	3013.25
896.11	590.5	2988.55	2988.55
896.61	590	3055.48	3055.48
897.11	589.5	2986.45	2986.45
897.61	589	3015.56	3015.56
898.11	588.5	3038.18	3038.18
898.61	588	3069.01	3069.01
899.11	587.5	2980.56	2980.56
899.61	587	2949.83	2949.83
900.11	586.5	2987.57	2987.57
900.61	586	2980.49	2980.49
901.11	585.5	3000.75	3000.75
901.61	585	2906.07	2906.07
902.11	584.5	2941.9	2941.9
902.61	584	2981.85	2981.85
903.11	583.5	2972.73	2972.73
903.61	583	2894.65	2894.65
904.11	582.5	2932.53	2932.53
904.61	582	2947.98	2947.98
905.11	581.5	2985.32	2985.32
905.61	581	2955.61	2955.61
906.11	580.5	2842.65	2842.65
906.61	580	2700.19	2700.19
907.11	579.5	2688.71	2688.71
907.61	579	2661.42	2661.42
908.11	578.5	2601.9	2601.9
908.61	578	2632.09	2632.09
909.11	577.5	2494.91	2494.91
909.61	577	2546.43	2546.43
910.11	576.5	2477.39	2477.39
910.61	576	2524.83	2524.83
911.11	575.5	2582.2	2582.2
911.61	575	2556.92	2556.92
912.11	574.5	2582.7	2582.7
912.61	574	2707.78	2707.78
913.11	573.5	2814.46	2814.46
913.61	573	2941.48	2941.48
914.11	572.5	2999.91	2999.91
914.61	572	2985.55	2985.55
915.11	571.5	2911.29	2911.29
915.61	571	2949.69	2949.69
916.11	570.5	3136.04	3136.04
916.61	570	3117.98	3117.98
917.11	569.5	3188.66	3188.66
917.61	569	3643.66	3643.66
918.11	568.5	4798.17	4798.17
918.61	568	5498.67	5498.67
919.11	567.5	4169.29	4169.29
919.61	567	3179.37	3179.37
920.11	566.5	2678.47	2678.47
920.61	566	2476.45	2476.45
921.11	565.5	2612.09	2612.09
921.61	565	2408.97	2408.97
922.11	564.5	1950.65	1950.65
922.61	564	1705.09	1705.09
923.11	563.5	1594.77	1594.77
923.61	563	1551.65	1551.65
924.11	562.5	1530.83	1530.83
924.61	562	1512.19	1512.19
925.11	561.5	1475.91	1475.91
925.61	561	1449.1	1449.1
926.11	560.5	1423.4	1423.4
926.61	560	1375.55	1375.55
927.11	559.5	1352.52	1352.52
927.61	559	1353.01	1353.01
928.11	558.5	1313.6	1313.6
928.61	558	1271.83	1271.83
929.11	557.5	1247.33	1247.33
929.61	557	1198.77	1198.77
930.11	556.5	1192.07	1192.07
930.61	556	1141.61	1141.61
931.11	555.5	1124.25	1124.25
931.61	555	1207.37	1207.37
932.11	554.5	1199.56	1199.56
932.61	554	1185.43	1185.43
933.11	553.5	1178.32	1178.32
933.61	553	1198.12	1198.12
934.11	552.5	1214.31	1214.31
934.61	552	1277.39	1277.39
935.11	551.5	1221.22	1221.22
935.61	551	1129.78	1129.78
936.11	550.5	1100.19	1100.19
936.61	550	1121.83	1121.83
937.11	549.5	1196.49	1196.49
937.61	549	1285.07	1285.07
938.11	548.5	1468.4	1468.4
938.61	548	1405.51	1405.51
939.11	547.5	1276.05	1276.05
939.61	547	1157.85	1157.85
940.11	546.5	1022.04	1022.04
940.61	546	997.313	997.313
941.11	545.5	975.753	975.753
941.61	545	918.467	918.467
942.11	544.5	855.66	855.66
942.61	544	814.66	814.66
943.11	543.5	803.56	803.56
943.61	543	785.527	785.527
944.11	542.5	782.127	782.127
944.61	542	755.56	755.56
945.11	541.5	744.2	744.2
945.61	541	732.08	732.08
946.11	540.5	712.12	712.12
946.61	540	723.64	723.64
947.11	539.5	761.433	761.433
947.61	539	715.14	715.14
948.11	538.5	735.033	735.033
948.61	538	719.753	719.753
949.11	537.5	721.92	721.92
949.61	537	713.92	713.92
950.11	536.5	712.513	712.513
950.61	536	689.927	689.927
951.11	535.5	724.553	724.553
951.61	535	766.447	766.447
952.11	534.5	722.027	722.027
952.61	534	692.26	692.26
953.11	533.5	768.173	768.173
953.61	533	800.607	800.607
954.11	532.5	852.647	852.647
954.61	532	898.987	898.987
955.11	531.5	901.227	901.227
955.61	531	865.067	865.067
956.11	530.5	746.36	746.36
956.61	530	696.673	696.673
957.11	529.5	667.74	667.74
957.61	529	657.526	657.526
958.11	528.5	672.113	672.113
958.61	528	676.487	676.487
959.11	527.5	681.953	681.953
959.61	527	667.693	667.693
960.11	526.5	667.267	667.267
960.61	526	660.177	660.177
961.11	525.5	665.367	665.367
961.61	525	700.333	700.333
962.11	524.5	702.6	702.6
962.61	524	681.347	681.347
963.11	523.5	671.653	671.653
963.61	523	643.682	643.682
964.11	522.5	678.627	678.627
964.61	522	670.953	670.953
965.11	521.5	659.238	659.238
965.61	521	656.902	656.902
966.11	520.5	676.8	676.8
966.61	520	693.913	693.913
967.11	519.5	682.073	682.073
967.61	519	673.9	673.9
968.11	518.5	668.987	668.987
968.61	518	677.587	677.587
969.11	517.5	678.687	678.687
969.61	517	664.735	664.735
970.11	516.5	682.347	682.347
970.61	516	688.487	688.487
971.11	515.5	682.347	682.347
971.61	515	684.173	684.173
972.11	514.5	697.287	697.287
972.61	514	706.28	706.28
973.11	513.5	697	697
973.61	513	706.007	706.007
974.11	512.5	702.58	702.58
974.61	512	668.38	668.38
975.11	511.5	682.393	682.393
975.61	511	686.267	686.267
976.11	510.5	690.34	690.34
976.61	510	705.82	705.82
977.11	509.5	682.6	682.6
977.61	509	694.247	694.247
978.11	508.5	688.28	688.28
978.61	508	694.9	694.9
979.11	507.5	669.093	669.093
979.61	507	658.733	658.733
980.11	506.5	684.107	684.107
980.61	506	692.22	692.22
981.11	505.5	680.36	680.36
981.61	505	676.473	676.473
982.11	504.5	704.247	704.247
982.61	504	703.7	703.7
983.11	503.5	700.367	700.367
983.61	503	708.507	708.507
984.11	502.5	672.367	672.367
984.61	502	724.847	724.847
985.11	501.5	741.293	741.293
985.61	501	697.567	697.567
986.11	500.5	698.02	698.02
986.61	500	715.187	715.187
987.11	499.5	691.133	691.133
987.61	499	696.42	696.42
988.11	498.5	741.947	741.947
988.61	498	698.233	698.233
989.11	497.5	712.387	712.387
989.61	497	729.587	729.587
990.11	496.5	724.247	724.247
990.61	496	711.247	711.247
991.11	495.5	752.353	752.353
991.61	495	705.753	705.753
992.11	494.5	735.873	735.873
992.61	494	722.727	722.727
993.11	493.5	741.587	741.587
993.61	493	701.02	701.02
994.11	492.5	716.387	716.387
994.61	492	712.293	712.293
995.11	491.5	724.247	724.247
995.61	491	738.933	738.933
996.11	490.5	735.02	735.02
996.61	490	766.127	766.127
997.11	489.5	725.787	725.787
997.61	489	713.66	713.66
998.11	488.5	712.267	712.267
998.61	488	696.24	696.24
999.11	487.5	739.62	739.62
999.61	487	719.527	719.527
1000.11	486.5	727.887	727.887
1000.61	486	735.36	735.36
1001.11	485.5	724.787	724.787
1001.61	485	727.567	727.567
1002.11	484.5	744.4	744.4
1002.61	484	752.32	752.32
1003.11	483.5	730.773	730.773
1003.61	483	741.32	741.32
1004.11	482.5	750.687	750.687
1004.61	482	722	722
1005.11	481.5	746.153	746.153
1005.61	481	745.453	745.453
1006.11	480.5	714.993	714.993
1006.61	480	761.5	761.5
1007.11	479.5	738.82	738.82
1007.61	479	735.593	735.593
1008.11	478.5	751.033	751.033
1008.61	478	752.787	752.787
1009.11	477.5	764.1	764.1
1009.61	477	754.807	754.807
1010.11	476.5	772.007	772.007
1010.61	476	786.82	786.82
1011.11	475.5	741.64	741.64
1011.61	475	749.127	749.127
1012.11	474.5	749.14	749.14
1012.61	474	753.747	753.747
1013.11	473.5	780.407	780.407
1013.61	473	756.033	756.033
1014.11	472.5	781.347	781.347
1014.61	472	739.093	739.093
1015.11	471.5	743.053	743.053
1015.61	471	776.833	776.833
1016.11	470.5	766.887	766.887
1016.61	470	802.373	802.373
1017.11	469.5	735.96	735.96
1017.61	469	767.893	767.893
1018.11	468.5	789.173	789.173
1018.61	468	769.693	769.693
1019.11	467.5	761.307	761.307
1019.61	467	773.94	773.94
1020.11	466.5	750.867	750.867
1020.61	466	763.973	763.973
1021.11	465.5	797.553	797.553
1021.61	465	782.647	782.647
1022.11	464.5	767.767	767.767
1022.61	464	761.393	761.393
1023.11	463.5	766.553	766.553
1023.61	463	790.593	790.593
1024.11	462.5	800.34	800.34
1024.61	462	804.3	804.3
1025.11	461.5	790.347	790.347
1025.61	461	808.82	808.82
1026.11	460.5	805.373	805.373
1026.61	460	813.753	813.753
1027.11	459.5	798.047	798.047
1027.61	459	816.267	816.267
1028.11	458.5	799.547	799.547
1028.61	458	813.367	813.367
1029.11	457.5	814.927	814.927
1029.61	457	826.013	826.013
1030.11	456.5	822.22	822.22
1030.61	456	786.287	786.287
1031.11	455.5	826.72	826.72
1031.61	455	809.8	809.8
1032.11	454.5	794.433	794.433
1032.61	454	811.9	811.9
1033.11	453.5	820.627	820.627
1033.61	453	837.387	837.387
1034.11	452.5	815.98	815.98
1034.61	452	804.867	804.867
1035.11	451.5	796.187	796.187
1035.61	451	797.673	797.673
1036.11	450.5	811.76	811.76
1036.61	450	848.987	848.987
1037.11	449.5	855.093	855.093
1037.61	449	847.307	847.307
1038.11	448.5	828.88	828.88
1038.61	448	843.807	843.807
1039.11	447.5	821.787	821.787
1039.61	447	837.573	837.573
1040.11	446.5	835.12	835.12
1040.61	446	816.367	816.367
1041.11	445.5	827.693	827.693
1041.61	445	820.553	820.553
1042.11	444.5	844.12	844.12
1042.61	444	826.667	826.667
1043.11	443.5	789.6	789.6
1043.61	443	835.1	835.1
1044.11	442.5	849.933	849.933
1044.61	442	828.52	828.52
1045.11	441.5	815.427	815.427
1045.61	441	839.787	839.787
1046.11	440.5	849.92	849.92
1046.61	440	841.167	841.167
1047.11	439.5	850.427	850.427
1047.61	439	844.2	844.2
1048.11	438.5	856.993	856.993
1048.61	438	884.92	884.92
1049.11	437.5	885.58	885.58
1049.61	437	894.073	894.073
1050.11	436.5	867.713	867.713
1050.61	436	897.76	897.76
1051.11	435.5	892.873	892.873
1051.61	435	918.44	918.44
1052.11	434.5	906.767	906.767
1052.61	434	897.827	897.827
1053.11	433.5	876.047	876.047
1053.61	433	867.667	867.667
1054.11	432.5	854.407	854.407
1054.61	432	868.267	868.267
1055.11	431.5	901.153	901.153
1055.61	431	958.02	958.02
1056.11	430.5	930.66	930.66
1056.61	430	848.093	848.093
1057.11	429.5	905.067	905.067
1057.61	429	925.06	925.06
1058.11	428.5	886.487	886.487
1058.61	428	862.38	862.38
1059.11	427.5	844.287	844.287
1059.61	427	807.16	807.16
1060.11	426.5	841.593	841.593
1060.61	426	906.993	906.993
1061.11	425.5	918.073	918.073
1061.61	425	918.293	918.293
1062.11	424.5	926.633	926.633
1062.61	424	929.687	929.687
1063.11	423.5	938.453	938.453
1063.61	423	1068.04	1068.04
1064.11	422.5	1118.45	1118.45
1064.61	422	1091.27	1091.27
1065.11	421.5	1008.52	1008.52
1065.61	421	944.887	944.887
1066.11	420.5	1011.61	1011.61
1066.61	420	1081.21	1081.21
1067.11	419.5	1094.67	1094.67
1067.61	419	1136.97	1136.97
1068.11	418.5	889.173	889.173
1068.61	418	761.68	761.68
1069.11	417.5	717.84	717.84
1069.61	417	741.733	741.733
1070.11	416.5	768.4	768.4
1070.61	416	834.267	834.267
1071.11	415.5	858.46	858.46
1071.61	415	805.34	805.34
1072.11	414.5	764.2	764.2
1072.61	414	767.72	767.72
1073.11	413.5	765.407	765.407
1073.61	413	747.12	747.12
1074.11	412.5	742.187	742.187
1074.61	412	702.073	702.073
1075.11	411.5	737.713	737.713
1075.61	411	753.993	753.993
1076.11	410.5	743.627	743.627
1076.61	410	769.847	769.847
1077.11	409.5	781.453	781.453
1077.61	409	764.793	764.793
1078.11	408.5	787.407	787.407
1078.61	408	810.247	810.247
1079.11	407.5	926.727	926.727
1079.61	407	1545.22	1545.22
1080.11	406.5	4181.07	4181.07
1080.61	406	5963.15	5963.15
1081.11	405.5	2036.47	2036.47
1081.61	405	871.387	871.387
1082.11	404.5	780.52	780.52
1082.61	404	775.453	775.453
1083.11	403.5	764.007	764.007
1083.61	403	758.48	758.48
1084.11	402.5	755.54	755.54
1084.61	402	768.033	768.033
1085.11	401.5	762.447	762.447
1085.61	401	778.793	778.793
1086.11	400.5	774.327	774.327
1086.61	400	776.76	776.76
1087.11	399.5	772.68	772.68
1087.61	399	775.48	775.48
1088.11	398.5	754.56	754.56
1088.61	398	763.587	763.587
1089.11	397.5	756.607	756.607
1089.61	397	764.36	764.36
1090.11	396.5	736	736
1090.61	396	741.087	741.087
1091.11	395.5	724.407	724.407
1091.61	395	749.633	749.633
1092.11	394.5	738.02	738.02
1092.61	394	728.827	728.827
1093.11	393.5	741.987	741.987
1093.61	393	736.967	736.967
1094.11	392.5	766.62	766.62
1094.61	392	721.38	721.38
1095.11	391.5	715.96	715.96
1095.61	391	737.047	737.047
1096.11	390.5	720.48	720.48
1096.61	390	736.487	736.487
1097.11	389.5	745.587	745.587
1097.61	389	751.747	751.747
1098.11	388.5	710.973	710.973
1098.61	388	765.907	765.907
1099.11	387.5	769.66	769.66
1099.61	387	745.493	745.493
1100.11	386.5	735.26	735.26
1100.61	386	760.22	760.22
1101.11	385.5	751.333	751.333
1101.61	385	780.24	780.24
1102.11	384.5	764.207	764.207
1102.61	384	753.227	753.227
1103.11	383.5	741.413	741.413
1103.61	383	781.6	781.6
1104.11	382.5	774.833	774.833
1104.61	382	781.74	781.74
1105.11	381.5	745.873	745.873
1105.61	381	762.533	762.533
1106.11	380.5	768.727	768.727
1106.61	380	764.96	764.96
1107.11	379.5	757.253	757.253
1107.61	379	718.227	718.227
1108.11	378.5	755.687	755.687
1108.61	378	756.193	756.193
1109.11	377.5	793.7	793.7
1109.61	377	801.78	801.78
1110.11	376.5	793.927	793.927
1110.61	376	769.4	769.4
1111.11	375.5	750.233	750.233
1111.61	375	758.633	758.633
1112.11	374.5	744.513	744.513
1112.61	374	754.793	754.793
1113.11	373.5	815.087	815.087
1113.61	373	769.987	769.987
1114.11	372.5	787.933	787.933
1114.61	372	770.053	770.053
1115.11	371.5	774.587	774.587
1115.61	371	780.82	780.82
1116.11	370.5	762.933	762.933
1116.61	370	757.253	757.253
1117.11	369.5	787.793	787.793
1117.61	369	766.5	766.5
1118.11	368.5	796.427	796.427
1118.61	368	762.107	762.107
1119.11	367.5	764.193	764.193
1119.61	367	796.893	796.893
1120.11	366.5	761.707	761.707
1120.61	366	762.513	762.513
1121.11	365.5	772.733	772.733
1121.61	365	796.827	796.827
1122.11	364.5	793.333	793.333
1122.61	364	792.16	792.16
1123.11	363.5	779.24	779.24
1123.61	363	787.887	787.887
1124.11	362.5	793.913	793.913
1124.61	362	779.653	779.653
1125.11	361.5	765.967	765.967
1125.61	361	808.173	808.173
1126.11	360.5	753.16	753.16
1126.61	360	783.88	783.88
1127.11	359.5	783.787	783.787
1127.61	359	759.167	759.167
1128.11	358.5	799.82	799.82
1128.61	358	795.28	795.28
1129.11	357.5	782.56	782.56
1129.61	357	838.333	838.333
1130.11	356.5	826.72	826.72
1130.61	356	779.52	779.52
1131.11	355.5	786.347	786.347
1131.61	355	784.333	784.333
1132.11	354.5	788.227	788.227
1132.61	354	789.853	789.853
1133.11	353.5	795.613	795.613
1133.61	353	820.9	820.9
1134.11	352.5	820.2	820.2
1134.61	352	790.08	790.08
1135.11	351.5	805.293	805.293
1135.61	351	802.94	802.94
1136.11	350.5	782.347	782.347
1136.61	350	777.56	777.56
1137.11	349.5	798.047	798.047
1137.61	349	828.627	828.627
1138.11	348.5	807.72	807.72
1138.61	348	796.8	796.8
1139.11	347.5	780.027	780.027
1139.61	347	789.86	789.86
1140.11	346.5	823.193	823.193
1140.61	346	807.873	807.873
1141.11	345.5	812.56	812.56
1141.61	345	840.26	840.26
1142.11	344.5	844.32	844.32
1142.61	344	821.793	821.793
1143.11	343.5	870.867	870.867
1143.61	343	843.807	843.807
1144.11	342.5	836.353	836.353
1144.61	342	786.473	786.473
1145.11	341.5	820.347	820.347
1145.61	341	828.673	828.673
1146.11	340.5	813.087	813.087
1146.61	340	789.9	789.9
1147.11	339.5	808.593	808.593
1147.61	339	825.507	825.507
1148.11	338.5	814.907	814.907
1148.61	338	802.54	802.54
1149.11	337.5	807.627	807.627
1149.61	337	816.187	816.187
1150.11	336.5	819.167	819.167
1150.61	336	813.273	813.273
1151.11	335.5	845.393	845.393
1151.61	335	811.367	811.367
1152.11	334.5	825.107	825.107
1152.61	334	837.967	837.967
1153.11	333.5	853.92	853.92
1153.61	333	810.773	810.773
1154.11	332.5	800.253	800.253
1154.61	332	839.453	839.453
1155.11	331.5	847.907	847.907
1155.61	331	821.22	821.22
1156.11	330.5	842.567	842.567
1156.61	330	801.313	801.313
1157.11	329.5	800.353	800.353
1157.61	329	827.26	827.26
1158.11	328.5	844.547	844.547
1158.61	328	817.52	817.52
1159.11	327.5	818.293	818.293
1159.61	327	828.227	828.227
1160.11	326.5	837.893	837.893
1160.61	326	827.473	827.473
1161.11	325.5	824.4	824.4
1161.61	325	852.753	852.753
1162.11	324.5	845.853	845.853
1162.61	324	829.793	829.793
1163.11	323.5	855.573	855.573
1163.61	323	849.047	849.047
1164.11	322.5	874.58	874.58
1164.61	322	876.3	876.3
1165.11	321.5	832.04	832.04
1165.61	321	870.847	870.847
1166.11	320.5	856.947	856.947
1166.61	320	853.993	853.993
1167.11	319.5	849.167	849.167
1167.61	319	870.22	870.22
1168.11	318.5	850.793	850.793
1168.61	318	841.2	841.2
1169.11	317.5	851.427	851.427
1169.61	317	850.367	850.367
1170.11	316.5	887.84	887.84
1170.61	316	873.447	873.447
1171.11	315.5	889.7	889.7
1171.61	315	871.473	871.473
1172.11	314.5	863.993	863.993
1172.61	314	860.953	860.953
1173.11	313.5	870.253	870.253
1173.61	313	872.393	872.393
1174.11	312.5	843.18	843.18
1174.61	312	882.84	882.84
1175.11	311.5	862.833	862.833
1175.61	311	863.353	863.353
1176.11	310.5	897.107	897.107
1176.61	310	822.147	822.147
1177.11	309.5	849.96	849.96
1177.61	309	867.747	867.747
1178.11	308.5	865.413	865.413
1178.61	308	877.84	877.84
1179.11	307.5	897.247	897.247
1179.61	307	906.42	906.42
1180.11	306.5	862.747	862.747
1180.61	306	834.26	834.26
1181.11	305.5	879.02	879.02
1181.61	305	880.107	880.107
1182.11	304.5	866.26	866.26
1182.61	304	850.86	850.86
1183.11	303.5	868.5	868.5
1183.61	303	869.94	869.94
1184.11	302.5	902.673	902.673
1184.61	302	890	890
1185.11	301.5	864.693	864.693
1185.61	301	887.747	887.747
1186.11	300.5	874.667	874.667
1186.61	300	856.613	856.613
1187.11	299.5	912.4	912.4
1187.61	299	907.447	907.447
1188.11	298.5	865.42	865.42
1188.61	298	882.647	882.647
1189.11	297.5	904.253	904.253
1189.61	297	879.607	879.607
1190.11	296.5	878.587	878.587
1190.61	296	905.393	905.393
1191.11	295.5	914.207	914.207
1191.61	295	874.127	874.127
1192.11	294.5	870.827	870.827
1192.61	294	865.007	865.007
1193.11	293.5	843.98	843.98
1193.61	293	838.34	838.34
1194.11	292.5	853.98	853.98
1194.61	292	890.94	890.94
1195.11	291.5	862.4	862.4
1195.61	291	874.367	874.367
1196.11	290.5	862.4	862.4
1196.61	290	932.64	932.64
1197.11	289.5	890.707	890.707
1197.61	289	936.42	936.42
1198.11	288.5	964.84	964.84
1198.61	288	975.467	975.467
1199.11	287.5	934.16	934.16
1199.61	287	919.86	919.86
1200.11	286.5	953.353	953.353
1200.61	286	1070.73	1070.73
1201.11	285.5	1125.87	1125.87
1201.61	285	1088.5	1088.5
1202.11	284.5	994.867	994.867
1202.61	284	945.387	945.387
1203.11	283.5	932.307	932.307
1203.61	283	914.033	914.033
1204.11	282.5	872.2	872.2
1204.61	282	867.933	867.933
1205.11	281.5	892.233	892.233
1205.61	281	846.84	846.84
1206.11	280.5	842.72	842.72
1206.61	280	880.547	880.547
1207.11	279.5	857.72	857.72
1207.61	279	852.013	852.013
1208.11	278.5	877.6	877.6
1208.61	278	899.86	899.86
1209.11	277.5	872.84	872.84
1209.61	277	876.607	876.607
1210.11	276.5	912.533	912.533
1210.61	276	913.58	913.58
1211.11	275.5	872.167	872.167
1211.61	275	891.7	891.7
1212.11	274.5	891.34	891.34
1212.61	274	891.133	891.133
1213.11	273.5	848.74	848.74
1213.61	273	869.92	869.92
1214.11	272.5	902.62	902.62
1214.61	272	919.047	919.047
1215.11	271.5	890.8	890.8
1215.61	271	898.42	898.42
1216.11	270.5	871.353	871.353
1216.61	270	890.02	890.02
1217.11	269.5	885.94	885.94
1217.61	269	906.867	906.867
1218.11	268.5	909.56	909.56
1218.61	268	885.353	885.353
1219.11	267.5	897.907	897.907
1219.61	267	853.707	853.707
1220.11	266.5	893.68	893.68
1220.61	266	906.347	906.347
1221.11	265.5	879.113	879.113
1221.61	265	887.5	887.5
1222.11	264.5	926.48	926.48
1222.61	264	908.307	908.307
1223.11	263.5	938.507	938.507
1223.61	263	917.567	917.567
1224.11	262.5	913.56	913.56
1224.61	262	935.54	935.54
1225.11	261.5	928.127	928.127
1225.61	261	946.44	946.44
1226.11	260.5	910.8	910.8
1226.61	260	878.393	878.393
1227.11	259.5	934.6	934.6
1227.61	259	931.74	931.74
1228.11	258.5	926.507	926.507
1228.61	258	919.373	919.373
1229.11	257.5	919.967	919.967
1229.61	257	945.4	945.4
1230.11	256.5	940.867	940.867
1230.61	256	906.22	906.22
1231.11	255.5	886.207	886.207
1231.61	255	965.887	965.887
1232.11	254.5	913.733	913.733
1232.61	254	900.96	900.96
1233.11	253.5	896.227	896.227
1233.61	253	916.86	916.86
1234.11	252.5	916.933	916.933
1234.61	252	886.02	886.02
1235.11	251.5	904.38	904.38
1235.61	251	931.447	931.447
1236.11	250.5	944.533	944.533
1236.61	250	929.007	929.007
1237.11	249.5	906.327	906.327
1237.61	249	899.913	899.913
1238.11	248.5	948.533	948.533
1238.61	248	960.287	960.287
1239.11	247.5	943.08	943.08
1239.61	247	978.313	978.313
1240.11	246.5	945.78	945.78
1240.61	246	923.513	923.513
1241.11	245.5	955.113	955.113
1241.61	245	979.153	979.153
1242.11	244.5	983.133	983.133
1242.61	244	956.02	956.02
1243.11	243.5	941.787	941.787
1243.61	243	1000.4	1000.4
1244.11	242.5	979.64	979.64
1244.61	242	1033.75	1033.75
1245.11	241.5	1015.53	1015.53
1245.61	241	918.04	918.04
1246.11	240.5	946.3	946.3
1246.61	240	931.64	931.64
1247.11	239.5	936.093	936.093
1247.61	239	942.5	942.5
1248.11	238.5	952.947	952.947
1248.61	238	925.46	925.46
1249.11	237.5	941.873	941.873
1249.61	237	932.78	932.78
1250.11	236.5	923.42	923.42
1250.61	236	925.773	925.773
1251.11	235.5	955.667	955.667
1251.61	235	948.56	948.56
1252.11	234.5	968.527	968.527
1252.61	234	947.2	947.2
1253.11	233.5	969.533	969.533
1253.61	233	974.513	974.513
1254.11	232.5	933.753	933.753
1254.61	232	921.293	921.293
1255.11	231.5	965.587	965.587
1255.61	231	937.367	937.367
1256.11	230.5	966.94	966.94
1256.61	230	1006.11	1006.11
1257.11	229.5	959.953	959.953
1257.61	229	963.98	963.98
1258.11	228.5	974.847	974.847
1258.61	228	943.12	943.12
1259.11	227.5	968.167	968.167
1259.61	227	987.593	987.593
1260.11	226.5	983.58	983.58
1260.61	226	1019.04	1019.04
1261.11	225.5	975.58	975.58
1261.61	225	947.093	947.093
1262.11	224.5	977.287	977.287
1262.61	224	951.913	951.913
1263.11	223.5	975.5	975.5
1263.61	223	958.26	958.26
1264.11	222.5	993.7	993.7
1264.61	222	989.647	989.647
1265.11	221.5	1025.07	1025.07
1265.61	221	1028.34	1028.34
1266.11	220.5	993.167	993.167
1266.61	220	998.467	998.467
1267.11	219.5	997.653	997.653
1267.61	219	946.893	946.893
1268.11	218.5	969.02	969.02
1268.61	218	986.74	986.74
1269.11	217.5	1014.84	1014.84
1269.61	217	994.16	994.16
1270.11	216.5	1005.89	1005.89
1270.61	216	960.86	960.86
1271.11	215.5	980.367	980.367
1271.61	215	991.007	991.007
1272.11	214.5	1011.26	1011.26
1272.61	214	1027.18	1027.18
1273.11	213.5	1010.4	1010.4
1273.61	213	976.053	976.053
1274.11	212.5	953.96	953.96
1274.61	212	962.953	962.953
1275.11	211.5	1013.93	1013.93
1275.61	211	1000.61	1000.61
1276.11	210.5	1024.48	1024.48
1276.61	210	1034.22	1034.22
1277.11	209.5	1033.25	1033.25
1277.61	209	987.333	987.333
1278.11	208.5	971.02	971.02
1278.61	208	1000.93	1000.93
1279.11	207.5	991.66	991.66
1279.61	207	993.86	993.86
1280.11	206.5	1035.9	1035.9
1280.61	206	996.613	996.613
1281.11	205.5	1023.12	1023.12
1281.61	205	1037.37	1037.37
1282.11	204.5	1017.85	1017.85
1282.61	204	1045.87	1045.87
1283.11	203.5	1029.04	1029.04
1283.61	203	1022.14	1022.14
1284.11	202.5	1024.43	1024.43
1284.61	202	1031.33	1031.33
1285.11	201.5	1034.89	1034.89
1285.61	201	1077.81	1077.81
1286.11	200.5	1060.85	1060.85
1286.61	200	1036.56	1036.56
1287.11	199.5	1026.03	1026.03
1287.61	199	1042.48	1042.48
1288.11	198.5	1034.76	1034.76
1288.61	198	1091.78	1091.78
1289.11	197.5	1063.43	1063.43
1289.61	197	1059.33	1059.33
1290.11	196.5	1018.88	1018.88
1290.61	196	1028.21	1028.21
1291.11	195.5	1054.91	1054.91
1291.61	195	1066.44	1066.44
1292.11	194.5	1055.01	1055.01
1292.61	194	1043.07	1043.07
1293.11	193.5	1036.61	1036.61
1293.61	193	1085.55	1085.55
1294.11	192.5	1063.87	1063.87
1294.61	192	1024.32	1024.32
1295.11	191.5	1047.77	1047.77
1295.61	191	1074.82	1074.82
1296.11	190.5	1046.02	1046.02
1296.61	190	1082.43	1082.43
1297.11	189.5	1069.53	1069.53
1297.61	189	1090.41	1090.41
1298.11	188.5	1128.38	1128.38
1298.61	188	1086.57	1086.57
1299.11	187.5	1088.68	1088.68
1299.61	187	1109.83	1109.83
1300.11	186.5	1111.21	1111.21
1300.61	186	1077.09	1077.09
1301.11	185.5	1077.86	1077.86
1301.61	185	1087.28	1087.28
1302.11	184.5	1089.26	1089.26
1302.61	184	1071.17	1071.17
1303.11	183.5	1098.64	1098.64
1303.61	183	1094.63	1094.63
1304.11	182.5	1112.74	1112.74
1304.61	182	1140.54	1140.54
1305.11	181.5	1112.19	1112.19
1305.61	181	1127.66	1127.66
1306.11	180.5	1122.61	1122.61
1306.61	180	1133.19	1133.19
1307.11	179.5	1105.79	1105.79
1307.61	179	1062.27	1062.27
1308.11	178.5	1098.75	1098.75
1308.61	178	1154.15	1154.15
1309.11	177.5	1093.55	1093.55
1309.61	177	1133.19	1133.19
1310.11	176.5	1100.47	1100.47
1310.61	176	1106.26	1106.26
1311.11	175.5	1159.75	1159.75
1311.61	175	1145.76	1145.76
1312.11	174.5	1120.45	1120.45
1312.61	174	1115.99	1115.99
1313.11	173.5	1148.51	1148.51
1313.61	173	1135.19	1135.19
1314.11	172.5	1178.22	1178.22
1314.61	172	1154.4	1154.4
1315.11	171.5	1110.95	1110.95
1315.61	171	1106.37	1106.37
1316.11	170.5	1158.05	1158.05
1316.61	170	1173.21	1173.21
1317.11	169.5	1173.43	1173.43
1317.61	169	1185.98	1185.98
1318.11	168.5	1140.9	1140.9
1318.61	168	1154.95	1154.95
1319.11	167.5	1142.93	1142.93
1319.61	167	1157.97	1157.97
1320.11	166.5	1125.59	1125.59
1320.61	166	1154.81	1154.81
1321.11	165.5	1167.45	1167.45
1321.61	165	1164.49	1164.49
1322.11	164.5	1190.53	1190.53
1322.61	164	1185.35	1185.35
1323.11	163.5	1148.29	1148.29
1323.61	163	1190.17	1190.17
1324.11	162.5	1164.79	1164.79
1324.61	162	1189.89	1189.89
1325.11	161.5	1189.27	1189.27
1325.61	161	1175.83	1175.83
1326.11	160.5	1147.83	1147.83
1326.61	160	1170.99	1170.99
1327.11	159.5	1173.62	1173.62
1327.61	159	1241.65	1241.65
1328.11	158.5	1205.33	1205.33
1328.61	158	1177.01	1177.01
1329.11	157.5	1197.49	1197.49
1329.61	157	1193.56	1193.56
1330.11	156.5	1171.71	1171.71
1330.61	156	1193.39	1193.39
1331.11	155.5	1228.89	1228.89
1331.61	155	1223.1	1223.1
1332.11	154.5	1236.73	1236.73
1332.61	154	1202.54	1202.54
1333.11	153.5	1178.61	1178.61
1333.61	153	1219.5	1219.5
1334.11	152.5	1196.43	1196.43
1334.61	152	1185.75	1185.75
1335.11	151.5	1223.02	1223.02
1335.61	151	1230.37	1230.37
1336.11	150.5	1252.14	1252.14
1336.61	150	1197.62	1197.62
1337.11	149.5	1213.27	1213.27
1337.61	149	1246.94	1246.94
1338.11	148.5	1210.03	1210.03
1338.61	148	1217.38	1217.38
1339.11	147.5	1226.68	1226.68
1339.61	147	1237.67	1237.67
1340.11	146.5	1203.37	1203.37
1340.61	146	1207.89	1207.89
1341.11	145.5	1231.55	1231.55
1341.61	145	1230.4	1230.4
1342.11	144.5	1260.97	1260.97
1342.61	144	1277.66	1277.66
1343.11	143.5	1195.29	1195.29
1343.61	143	1233.44	1233.44
1344.11	142.5	1290.41	1290.41
1344.61	142	1293.57	1293.57
1345.11	141.5	1253.87	1253.87
1345.61	141	1269.89	1269.89
1346.11	140.5	1272.66	1272.66
1346.61	140	1216.23	1216.23
1347.11	139.5	1240.13	1240.13
1347.61	139	1251.07	1251.07
1348.11	138.5	1247.84	1247.84
1348.61	138	1275.17	1275.17
1349.11	137.5	1253.61	1253.61
1349.61	137	1240.71	1240.71
1350.11	136.5	1310.19	1310.19
1350.61	136	1287.48	1287.48
1351.11	135.5	1240.31	1240.31
1351.61	135	1290.74	1290.74
1352.11	134.5	1246.13	1246.13
1352.61	134	1251.96	1251.96
1353.11	133.5	1189.52	1189.52
1353.61	133	1158.73	1158.73
1354.11	132.5	1150.19	1150.19
1354.61	132	1216.06	1216.06
1355.11	131.5	1188.43	1188.43
1355.61	131	1147.39	1147.39
1356.11	130.5	1157.71	1157.71
1356.61	130	1174.21	1174.21
1357.11	129.5	1168.39	1168.39
1357.61	129	1150.28	1150.28
1358.11	128.5	1174.73	1174.73
1358.61	128	1157.24	1157.24
1359.11	127.5	1185.06	1185.06
1359.61	127	1214.15	1214.15
1360.11	126.5	1230.56	1230.56
1360.61	126	1241.15	1241.15
1361.11	125.5	1282.17	1282.17
1361.61	125	1327.29	1327.29
1362.11	124.5	1433.35	1433.35
1362.61	124	1542.71	1542.71
1363.11	123.5	1720.13	1720.13
1363.61	123	1917.59	1917.59
1364.11	122.5	2053.82	2053.82
1364.61	122	1929.06	1929.06
1365.11	121.5	1648.55	1648.55
1365.61	121	1453.58	1453.58
1366.11	120.5	1310.13	1310.13
1366.61	120	1228.46	1228.46
1367.11	119.5	1193.83	1193.83
1367.61	119	1154.71	1154.71
1368.11	118.5	1118.37	1118.37
1368.61	118	1123.37	1123.37
1369.11	117.5	1102.43	1102.43
1369.61	117	1128.3	1128.3
1370.11	116.5	1102.79	1102.79
1370.61	116	1076.77	1076.77
1371.11	115.5	1101.87	1101.87
1371.61	115	1073.53	1073.53
1372.11	114.5	1050.8	1050.8
1372.61	114	1056.05	1056.05
1373.11	113.5	1051.65	1051.65
1373.61	113	1060.93	1060.93
1374.11	112.5	1077.71	1077.71
1374.61	112	1042.25	1042.25
1375.11	111.5	1033.62	1033.62
1375.61	111	1060.91	1060.91
1376.11	110.5	1070.97	1070.97
1376.61	110	1101.81	1101.81
1377.11	109.5	1046.68	1046.68
1377.61	109	1076.31	1076.31
1378.11	108.5	1082.2	1082.2
1378.61	108	1095.62	1095.62
1379.11	107.5	1092.27	1092.27
1379.61	107	1103.99	1103.99
1380.11	106.5	1128.67	1128.67
1380.61	106	1073.51	1073.51
1381.11	105.5	1112.68	1112.68
1381.61	105	1128.34	1128.34
1382.11	104.5	1143.66	1143.66
1382.61	104	1114.87	1114.87
1383.11	103.5	1086.75	1086.75
1383.61	103	1096.85	1096.85
1384.11	102.5	1064.85	1064.85
1384.61	102	1098.53	1098.53
1385.11	101.5	1131.45	1131.45
1385.61	101	1105.41	1105.41
1386.11	100.5	1054.7	1054.7
1386.61	100	1056	1056
1387.11	99.5	1110.35	1110.35
1387.61	99	1116.87	1116.87
1388.11	98.5	1065.35	1065.35
1388.61	98	1080.33	1080.33
1389.11	97.5	1093.49	1093.49
1389.61	97	1086.93	1086.93
1390.11	96.5	1123.6	1123.6
1390.61	96	1147.45	1147.45
1391.11	95.5	1159.7	1159.7
1391.61	95	1136.87	1136.87
1392.11	94.5	1112.89	1112.89
1392.61	94	1125.9	1125.9
1393.11	93.5	1115.2	1115.2
1393.61	93	1100.26	1100.26
1394.11	92.5	1081.88	1081.88
1394.61	92	1135.13	1135.13
1395.11	91.5	1127.09	1127.09
1395.61	91	1128.4	1128.4
1396.11	90.5	1106.47	1106.47
1396.61	90	1097.23	1097.23
1397.11	89.5	1053.66	1053.66
1397.61	89	1015.76	1015.76
1398.11	88.5	1043.45	1043.45
1398.61	88	1034.78	1034.78
1399.11	87.5	958.427	958.427
1399.61	87	880.06	880.06
1400.11	86.5	822.993	822.993
1400.61	86	812.213	812.213
1401.11	85.5	794.72	794.72
1401.61	85	730.927	730.927
1402.11	84.5	745.093	745.093
1402.61	84	773.147	773.147
1403.11	83.5	691.38	691.38
1403.61	83	715.633	715.633
1404.11	82.5	749.487	749.487
1404.61	82	766.687	766.687
1405.11	81.5	736.667	736.667
1405.61	81	785.16	785.16
1406.11	80.5	827.24	827.24
1406.61	80	903.673	903.673
1407.11	79.5	1011.2	1011.2
1407.61	79	1185.27	1185.27
1408.11	78.5	1406.22	1406.22
1408.61	78	1732.24	1732.24
1409.11	77.5	1956.93	1956.93
1409.61	77	1931.29	1931.29
1410.11	76.5	1928.93	1928.93
1410.61	76	2167.93	2167.93
1411.11	75.5	2431.13	2431.13
1411.61	75	2553.67	2553.67
1412.11	74.5	2182.81	2182.81
1412.61	74	1541.19	1541.19
1413.11	73.5	1122.77	1122.77
1413.61	73	836.973	836.973
1414.11	72.5	649.179	649.179
1414.61	72	568.195	568.195
1415.11	71.5	464.41	464.41
1415.61	71	407.216	407.216
1416.11	70.5	422.228	422.228
1416.61	70	382.768	382.768
1417.11	69.5	358.77	358.77
1417.61	69	322.577	322.577
1418.11	68.5	316.516	316.516
1418.61	68	312.723	312.723
1419.11	67.5	319.291	319.291
1419.61	67	308.57	308.57
1420.11	66.5	311.864	311.864
1420.61	66	315.708	315.708
1421.11	65.5	284.563	284.563
1421.61	65	279.488	279.488
1422.11	64.5	290.923	290.923
1422.61	64	289.917	289.917
1423.11	63.5	274.407	274.407
1423.61	63	280.058	280.058
1424.11	62.5	272.869	272.869
1424.61	62	289.851	289.851
1425.11	61.5	276.453	276.453
1425.61	61	269.83	269.83
1426.11	60.5	268.104	268.104
1426.61	60	272.961	272.961
1427.11	59.5	270.353	270.353
1427.61	59	266.537	266.537
1428.11	58.5	262.951	262.951
1428.61	58	273.883	273.883
1429.11	57.5	277.93	277.93
1429.61	57	268.738	268.738
1430.11	56.5	251.213	251.213
1430.61	56	282.464	282.464
1431.11	55.5	296.927	296.927
1431.61	55	280.181	280.181
1432.11	54.5	282.468	282.468
1432.61	54	273.757	273.757
1433.11	53.5	280.763	280.763
1433.61	53	270.478	270.478
1434.11	52.5	286.057	286.057
1434.61	52	267.954	267.954
1435.11	51.5	276.236	276.236
1435.61	51	266.547	266.547
1436.11	50.5	270.802	270.802
1436.61	50	278.845	278.845
1437.11	49.5	279.123	279.123
1437.61	49	277.319	277.319
1438.11	48.5	270.139	270.139
1438.61	48	262.008	262.008
1439.11	47.5	264.277	264.277
1439.61	47	274.677	274.677
1440.11	46.5	280.965	280.965
1440.61	46	288.618	288.618
1441.11	45.5	261.813	261.813
1441.61	45	276.304	276.304
1442.11	44.5	268.936	268.936
1442.61	44	295.429	295.429
1443.11	43.5	288.218	288.218
1443.61	43	264.291	264.291
1444.11	42.5	276.378	276.378
1444.61	42	289.022	289.022
1445.11	41.5	267.461	267.461
1445.61	41	257.52	257.52
1446.11	40.5	256.113	256.113
1446.61	40	267.763	267.763
1447.11	39.5	280.737	280.737
1447.61	39	282.384	282.384
1448.11	38.5	291.698	291.698
1448.61	38	288.593	288.593
1449.11	37.5	278.149	278.149
1449.61	37	295.245	295.245
1450.11	36.5	293.707	293.707
1450.61	36	297.72	297.72
1451.11	35.5	276.475	276.475
1451.61	35	313.045	313.045
1452.11	34.5	345.297	345.297
1452.61	34	328.379	328.379
1453.11	33.5	328.207	328.207
1453.61	33	360.847	360.847
1454.11	32.5	320.41	320.41
1454.61	32	316.601	316.601
1455.11	31.5	297.577	297.577
1455.61	31	285.303	285.303
1456.11	30.5	306.06	306.06
1456.61	30	314.116	314.116
1457.11	29.5	311.572	311.572
1457.61	29	301.665	301.665
1458.11	28.5	309.918	309.918
1458.61	28	297.474	297.474
1459.11	27.5	308.503	308.503
1459.61	27	309.741	309.741
1460.11	26.5	275.432	275.432
1460.61	26	305.014	305.014
1461.11	25.5	301.968	301.968
1461.61	25	287.319	287.319
1462.11	24.5	317.214	317.214
1462.61	24	308.225	308.225
1463.11	23.5	297.796	297.796
1463.61	23	296.757	296.757
1464.11	22.5	303.355	303.355
1464.61	22	296.119	296.119
1465.11	21.5	293.209	293.209
1465.61	21	302.382	302.382
1466.11	20.5	282.073	282.073
1466.61	20	298.326	298.326
1467.11	19.5	291.921	291.921
1467.61	19	290.234	290.234
1468.11	18.5	296.599	296.599
1468.61	18	307.354	307.354
1469.11	17.5	311.964	311.964
1469.61	17	289.399	289.399
1470.11	16.5	317.437	317.437
1470.61	16	319.532	319.532
1471.11	15.5	349.945	349.945
1471.61	15	409.964	409.964
1472.11	14.5	275.613	275.613
1472.61	14	193.295	193.295
1473.11	13.5	173.09	173.09
1473.61	13	169.396	169.396
1474.11	12.5	154.905	154.905
1474.61	12	185.315	185.315
1475.11	11.5	179.297	179.297
1475.61	11	134.232	134.232
1476.11	10.5	134.059	134.059
1476.61	10	144.873	144.873
1477.11	9.5	135.92	135.92
1477.61	9	145.261	145.261
1478.11	8.5	139.922	139.922
1478.61	8	147.828	147.828
1479.11	7.5	162.337	162.337
1479.61	7	190.081	190.081
1480.11	6.5	202.345	202.345
1480.61	6	219.237	219.237
1481.11	5.5	312.694	312.694
1481.61	5	508.463	508.463
1482.11	4.5	715.32	715.32
1482.61	4	903.86	903.86
1483.11	3.5	1124.26	1124.26
1483.61	3	1226.97	1226.97
1484.11	2.5	1179.05	1179.05
1484.61	2	652.082	652.082
1485.11	1.5	178.634	178.634
1485.61	1	114.1	114.1
1486.11	0.5	91.3567	91.3567
1486.61	-2.27374e-013	43.2001	43.2001