c:\users\mark\owncloud\muelheim group\projects\gas phase background\ex340_cec356_cu n2 largearea.vms
Cu2p
	Characteristic Energy eV	1486.61	Acquisition Time s	4.5
KE_Cu2p	BE_Cu2p	CPS_Cu2p
456.61	1030	3671.87
456.71	1029.9	3568.49
456.81	1029.8	3607.64
456.91	1029.7	3623.87
457.01	1029.6	3653.24
457.11	1029.5	3650.98
457.21	1029.4	3650.29
457.31	1029.3	3597.44
457.41	1029.2	3616.49
457.51	1029.1	3647.64
457.61	1029	3651.04
457.71	1028.9	3621.87
457.81	1028.8	3612.11
457.91	1028.7	3644.91
458.01	1028.6	3630.49
458.11	1028.5	3645.4
458.21	1028.4	3634
458.31	1028.3	3681.07
458.41	1028.2	3664.36
458.51	1028.1	3643.11
458.61	1028	3642.73
458.71	1027.9	3639.71
458.81	1027.8	3647.56
458.91	1027.7	3703.4
459.01	1027.6	3663.31
459.11	1027.5	3639.69
459.21	1027.4	3682.69
459.31	1027.3	3676.64
459.41	1027.2	3653.11
459.51	1027.1	3643.4
459.61	1027	3667.36
459.71	1026.9	3658.82
459.81	1026.8	3707.33
459.91	1026.7	3680.51
460.01	1026.6	3612.87
460.11	1026.5	3658.71
460.21	1026.4	3686.18
460.31	1026.3	3682.2
460.41	1026.2	3704.76
460.51	1026.1	3684.76
460.61	1026	3693.53
460.71	1025.9	3654.98
460.81	1025.8	3674.64
460.91	1025.7	3699.16
461.01	1025.6	3693.8
461.11	1025.5	3708.96
461.21	1025.4	3704.69
461.31	1025.3	3659.49
461.41	1025.2	3703.93
461.51	1025.1	3719.8
461.61	1025	3692.76
461.71	1024.9	3685.04
461.81	1024.8	3712.27
461.91	1024.7	3698.07
462.01	1024.6	3706.73
462.11	1024.5	3759.36
462.21	1024.4	3750.96
462.31	1024.3	3745.18
462.41	1024.2	3711.38
462.51	1024.1	3740.56
462.61	1024	3740.6
462.71	1023.9	3757.53
462.81	1023.8	3759.82
462.91	1023.7	3713.91
463.01	1023.6	3675.16
463.11	1023.5	3731.18
463.21	1023.4	3715.64
463.31	1023.3	3730.96
463.41	1023.2	3759.6
463.51	1023.1	3747.13
463.61	1023	3695.44
463.71	1022.9	3703.09
463.81	1022.8	3748.44
463.91	1022.7	3713.67
464.01	1022.6	3746.76
464.11	1022.5	3738.53
464.21	1022.4	3732.09
464.31	1022.3	3720
464.41	1022.2	3717.64
464.51	1022.1	3690.51
464.61	1022	3729.93
464.71	1021.9	3703.22
464.81	1021.8	3738.36
464.91	1021.7	3746.36
465.01	1021.6	3776.98
465.11	1021.5	3770.93
465.21	1021.4	3736.38
465.31	1021.3	3745.76
465.41	1021.2	3750.8
465.51	1021.1	3756.47
465.61	1021	3778.11
465.71	1020.9	3744.67
465.81	1020.8	3774.8
465.91	1020.7	3746.87
466.01	1020.6	3782.62
466.11	1020.5	3759.36
466.21	1020.4	3779.69
466.31	1020.3	3735.36
466.41	1020.2	3777.42
466.51	1020.1	3767.89
466.61	1020	3776.11
466.71	1019.9	3772.71
466.81	1019.8	3708.24
466.91	1019.7	3802.31
467.01	1019.6	3795.73
467.11	1019.5	3729.96
467.21	1019.4	3819.09
467.31	1019.3	3783.29
467.41	1019.2	3765.07
467.51	1019.1	3758.49
467.61	1019	3806.44
467.71	1018.9	3777.78
467.81	1018.8	3799.84
467.91	1018.7	3799
468.01	1018.6	3728.11
468.11	1018.5	3767.04
468.21	1018.4	3767.58
468.31	1018.3	3776.36
468.41	1018.2	3782.07
468.51	1018.1	3795.09
468.61	1018	3833.64
468.71	1017.9	3808.67
468.81	1017.8	3778.93
468.91	1017.7	3801.89
469.01	1017.6	3799.36
469.11	1017.5	3821
469.21	1017.4	3837.56
469.31	1017.3	3786.29
469.41	1017.2	3790.76
469.51	1017.1	3786.11
469.61	1017	3810.16
469.71	1016.9	3838.44
469.81	1016.8	3775.6
469.91	1016.7	3823.24
470.01	1016.6	3848.22
470.11	1016.5	3833.27
470.21	1016.4	3834.13
470.31	1016.3	3801.62
470.41	1016.2	3785.49
470.51	1016.1	3815.98
470.61	1016	3796.58
470.71	1015.9	3873.27
470.81	1015.8	3836.47
470.91	1015.7	3815.33
471.01	1015.6	3839.16
471.11	1015.5	3824.31
471.21	1015.4	3857.78
471.31	1015.3	3823.62
471.41	1015.2	3901.62
471.51	1015.1	3847.13
471.61	1015	3794
471.71	1014.9	3840.42
471.81	1014.8	3842.27
471.91	1014.7	3856.49
472.01	1014.6	3840.2
472.11	1014.5	3854.36
472.21	1014.4	3895.31
472.31	1014.3	3866.76
472.41	1014.2	3865.67
472.51	1014.1	3887.56
472.61	1014	3850.07
472.71	1013.9	3840.07
472.81	1013.8	3862.31
472.91	1013.7	3875.71
473.01	1013.6	3866
473.11	1013.5	3851.93
473.21	1013.4	3855.04
473.31	1013.3	3904.18
473.41	1013.2	3909.49
473.51	1013.1	3845.62
473.61	1013	3860.62
473.71	1012.9	3893.58
473.81	1012.8	3878.42
473.91	1012.7	3805.69
474.01	1012.6	3849.31
474.11	1012.5	3856.76
474.21	1012.4	3907.98
474.31	1012.3	3891.8
474.41	1012.2	3876.22
474.51	1012.1	3889.78
474.61	1012	3875.89
474.71	1011.9	3845.11
474.81	1011.8	3887.62
474.91	1011.7	3886.6
475.01	1011.6	3828.76
475.11	1011.5	3871.38
475.21	1011.4	3878.84
475.31	1011.3	3883.18
475.41	1011.2	3899.53
475.51	1011.1	3926.93
475.61	1011	3913.44
475.71	1010.9	3906.27
475.81	1010.8	3928.47
475.91	1010.7	3938.84
476.01	1010.6	3936.38
476.11	1010.5	3932.51
476.21	1010.4	3873.49
476.31	1010.3	3838.71
476.41	1010.2	3876.62
476.51	1010.1	3888.38
476.61	1010	3869.76
476.71	1009.9	3923.16
476.81	1009.8	3966.76
476.91	1009.7	3912.56
477.01	1009.6	3923.78
477.11	1009.5	3876.13
477.21	1009.4	3897.76
477.31	1009.3	3876.58
477.41	1009.2	3870.56
477.51	1009.1	3952.89
477.61	1009	3944.47
477.71	1008.9	3926.27
477.81	1008.8	3905.67
477.91	1008.7	3948.69
478.01	1008.6	3928.07
478.11	1008.5	3914.76
478.21	1008.4	3913.69
478.31	1008.3	3921.67
478.41	1008.2	3933.6
478.51	1008.1	3931.89
478.61	1008	3950.76
478.71	1007.9	3953.07
478.81	1007.8	3937.24
478.91	1007.7	3928.33
479.01	1007.6	3909.2
479.11	1007.5	3933.53
479.21	1007.4	3909.18
479.31	1007.3	3878.16
479.41	1007.2	3950.04
479.51	1007.1	3958.13
479.61	1007	3964.24
479.71	1006.9	3981
479.81	1006.8	3979.78
479.91	1006.7	3952.49
480.01	1006.6	3912.76
480.11	1006.5	3943.67
480.21	1006.4	3957.22
480.31	1006.3	3946.56
480.41	1006.2	3933.67
480.51	1006.1	3946.13
480.61	1006	3996.42
480.71	1005.9	3989.42
480.81	1005.8	3937.71
480.91	1005.7	3973.91
481.01	1005.6	3971.11
481.11	1005.5	3943.69
481.21	1005.4	3922.29
481.31	1005.3	3956.73
481.41	1005.2	3971.87
481.51	1005.1	4016.84
481.61	1005	4023.47
481.71	1004.9	4036.07
481.81	1004.8	4007.16
481.91	1004.7	4000.09
482.01	1004.6	3957.71
482.11	1004.5	3965.2
482.21	1004.4	4005.62
482.31	1004.3	3981.09
482.41	1004.2	3990.22
482.51	1004.1	3953.84
482.61	1004	3967.53
482.71	1003.9	3990.76
482.81	1003.8	4000.22
482.91	1003.7	3957.56
483.01	1003.6	3936.29
483.11	1003.5	3950.62
483.21	1003.4	3979.4
483.31	1003.3	3995.47
483.41	1003.2	3985.44
483.51	1003.1	3991.42
483.61	1003	3993.78
483.71	1002.9	3980.29
483.81	1002.8	4009.8
483.91	1002.7	3973.78
484.01	1002.6	4001.51
484.11	1002.5	3969.16
484.21	1002.4	4013.69
484.31	1002.3	4006.6
484.41	1002.2	3994.36
484.51	1002.1	4015.18
484.61	1002	3996.16
484.71	1001.9	4016.4
484.81	1001.8	4029.47
484.91	1001.7	3993.91
485.01	1001.6	4021.36
485.11	1001.5	4046.49
485.21	1001.4	4049.04
485.31	1001.3	3999.69
485.41	1001.2	3957.69
485.51	1001.1	4009.91
485.61	1001	4050.8
485.71	1000.9	4025.78
485.81	1000.8	4031.89
485.91	1000.7	4021.6
486.01	1000.6	4019.89
486.11	1000.5	4034.6
486.21	1000.4	4065.51
486.31	1000.3	4056.09
486.41	1000.2	4057.33
486.51	1000.1	4047.33
486.61	1000	4045.96
486.71	999.9	4027.47
486.81	999.8	4005.22
486.91	999.7	4041.87
487.01	999.6	4025.16
487.11	999.5	3997.64
487.21	999.4	4066.62
487.31	999.3	4019.33
487.41	999.2	3998.27
487.51	999.1	4030.09
487.61	999	4032.82
487.71	998.9	4027.16
487.81	998.8	4048.44
487.91	998.7	4101.67
488.01	998.6	4074.09
488.11	998.5	4060.56
488.21	998.4	4015.38
488.31	998.3	4025.42
488.41	998.2	4042.49
488.51	998.1	4037.42
488.61	998	4054.07
488.71	997.9	4074.91
488.81	997.8	4044.24
488.91	997.7	4052.4
489.01	997.6	4043.16
489.11	997.5	4040.69
489.21	997.4	4032.47
489.31	997.3	4053.2
489.41	997.2	4009.31
489.51	997.1	4087.91
489.61	997	4079.22
489.71	996.9	4018.91
489.81	996.8	4055.2
489.91	996.7	4045.33
490.01	996.6	4076.4
490.11	996.5	4051
490.21	996.4	4078.89
490.31	996.3	4102.4
490.41	996.2	4057.6
490.51	996.1	4069.24
490.61	996	4047.53
490.71	995.9	4066.91
490.81	995.8	4018.51
490.91	995.7	4072.42
491.01	995.6	4074.71
491.11	995.5	4054.33
491.21	995.4	4111.02
491.31	995.3	4061.47
491.41	995.2	4033.04
491.51	995.1	4075.69
491.61	995	4101.18
491.71	994.9	4111.38
491.81	994.8	4099.71
491.91	994.7	4119.84
492.01	994.6	4050.76
492.11	994.5	4118.62
492.21	994.4	4090.16
492.31	994.3	4067.33
492.41	994.2	4019.89
492.51	994.1	4074.53
492.61	994	4086.62
492.71	993.9	4092.22
492.81	993.8	4087.13
492.91	993.7	4084.91
493.01	993.6	4099.4
493.11	993.5	4088.84
493.21	993.4	4058.49
493.31	993.3	4087.56
493.41	993.2	4120.69
493.51	993.1	4156.69
493.61	993	4104.73
493.71	992.9	4056.24
493.81	992.8	4105.87
493.91	992.7	4120.8
494.01	992.6	4126.53
494.11	992.5	4071.09
494.21	992.4	4112.78
494.31	992.3	4124.76
494.41	992.2	4106.33
494.51	992.1	4079.91
494.61	992	4087.8
494.71	991.9	4140.33
494.81	991.8	4101.04
494.91	991.7	4134.51
495.01	991.6	4148.27
495.11	991.5	4082.67
495.21	991.4	4092.11
495.31	991.3	4071.64
495.41	991.2	4077.89
495.51	991.1	4114.18
495.61	991	4096.33
495.71	990.9	4136.62
495.81	990.8	4072.33
495.91	990.7	4076.87
496.01	990.6	4102.16
496.11	990.5	4136.56
496.21	990.4	4112.78
496.31	990.3	4082.6
496.41	990.2	4109.78
496.51	990.1	4117.44
496.61	990	4098.89
496.71	989.9	4148.93
496.81	989.8	4131.98
496.91	989.7	4115.04
497.01	989.6	4113.93
497.11	989.5	4142.22
497.21	989.4	4121.91
497.31	989.3	4125.24
497.41	989.2	4119.91
497.51	989.1	4091.67
497.61	989	4099.47
497.71	988.9	4071.98
497.81	988.8	4100.31
497.91	988.7	4134.22
498.01	988.6	4115.18
498.11	988.5	4092.82
498.21	988.4	4074.82
498.31	988.3	4114.22
498.41	988.2	4081.29
498.51	988.1	4078.2
498.61	988	4088.53
498.71	987.9	4096.56
498.81	987.8	4071.42
498.91	987.7	4114.16
499.01	987.6	4144.89
499.11	987.5	4146.53
499.21	987.4	4144.38
499.31	987.3	4150.53
499.41	987.2	4097.56
499.51	987.1	4133.93
499.61	987	4138.11
499.71	986.9	4144.98
499.81	986.8	4168.71
499.91	986.7	4207.87
500.01	986.6	4167.69
500.11	986.5	4091.16
500.21	986.4	4099.29
500.31	986.3	4120.87
500.41	986.2	4184.11
500.51	986.1	4128.62
500.61	986	4183.91
500.71	985.9	4144.02
500.81	985.8	4167.18
500.91	985.7	4108.58
501.01	985.6	4171.13
501.11	985.5	4163.33
501.21	985.4	4170.42
501.31	985.3	4193.36
501.41	985.2	4175.27
501.51	985.1	4148.33
501.61	985	4126.2
501.71	984.9	4121.18
501.81	984.8	4165.62
501.91	984.7	4194.29
502.01	984.6	4167.71
502.11	984.5	4150.8
502.21	984.4	4173.89
502.31	984.3	4186.96
502.41	984.2	4179.76
502.51	984.1	4160.33
502.61	984	4177.09
502.71	983.9	4162.93
502.81	983.8	4128.38
502.91	983.7	4154.38
503.01	983.6	4181.64
503.11	983.5	4118.49
503.21	983.4	4172.44
503.31	983.3	4160.8
503.41	983.2	4190.58
503.51	983.1	4148.04
503.61	983	4176.4
503.71	982.9	4189.89
503.81	982.8	4154.18
503.91	982.7	4135.42
504.01	982.6	4158.09
504.11	982.5	4142.82
504.21	982.4	4183.53
504.31	982.3	4201.47
504.41	982.2	4180.09
504.51	982.1	4196.2
504.61	982	4206.42
504.71	981.9	4194.09
504.81	981.8	4192.22
504.91	981.7	4179.98
505.01	981.6	4184.96
505.11	981.5	4224.62
505.21	981.4	4177.64
505.31	981.3	4158.78
505.41	981.2	4177.53
505.51	981.1	4199.64
505.61	981	4173.33
505.71	980.9	4212.18
505.81	980.8	4176
505.91	980.7	4247.84
506.01	980.6	4166.49
506.11	980.5	4195.22
506.21	980.4	4164
506.31	980.3	4188.04
506.41	980.2	4175.78
506.51	980.1	4208.2
506.61	980	4230.33
506.71	979.9	4212.8
506.81	979.8	4226.22
506.91	979.7	4159.16
507.01	979.6	4131.22
507.11	979.5	4202.84
507.21	979.4	4228.64
507.31	979.3	4238.62
507.41	979.2	4215.13
507.51	979.1	4234.04
507.61	979	4194.6
507.71	978.9	4174.78
507.81	978.8	4209.76
507.91	978.7	4199.93
508.01	978.6	4214.38
508.11	978.5	4191.62
508.21	978.4	4176.78
508.31	978.3	4120.24
508.41	978.2	4132.73
508.51	978.1	4145.36
508.61	978	4160.82
508.71	977.9	4184.04
508.81	977.8	4182.33
508.91	977.7	4190.91
509.01	977.6	4136.73
509.11	977.5	4196.33
509.21	977.4	4174.36
509.31	977.3	4169.02
509.41	977.2	4160.6
509.51	977.1	4162.89
509.61	977	4149.18
509.71	976.9	4157.02
509.81	976.8	4125.53
509.91	976.7	4137.87
510.01	976.6	4142.64
510.11	976.5	4122.18
510.21	976.4	4166.98
510.31	976.3	4131.33
510.41	976.2	4140.91
510.51	976.1	4165.96
510.61	976	4177
510.71	975.9	4163.4
510.81	975.8	4163.76
510.91	975.7	4141.82
511.01	975.6	4189.82
511.11	975.5	4172.42
511.21	975.4	4177.11
511.31	975.3	4217.33
511.41	975.2	4171.2
511.51	975.1	4180.69
511.61	975	4164.89
511.71	974.9	4163.56
511.81	974.8	4146.69
511.91	974.7	4151.27
512.01	974.6	4189.38
512.11	974.5	4156.6
512.21	974.4	4168.31
512.31	974.3	4121.69
512.41	974.2	4163.91
512.51	974.1	4183.6
512.61	974	4157.96
512.71	973.9	4136.09
512.81	973.8	4158.8
512.91	973.7	4211.82
513.01	973.6	4170.58
513.11	973.5	4155.27
513.21	973.4	4188.51
513.31	973.3	4146.82
513.41	973.2	4122.31
513.51	973.1	4188.93
513.61	973	4170.67
513.71	972.9	4166.31
513.81	972.8	4192.56
513.91	972.7	4212.29
514.01	972.6	4197.38
514.11	972.5	4152.91
514.21	972.4	4171.64
514.31	972.3	4180.2
514.41	972.2	4199.29
514.51	972.1	4197.84
514.61	972	4202.51
514.71	971.9	4212.2
514.81	971.8	4176.2
514.91	971.7	4158.49
515.01	971.6	4184.36
515.11	971.5	4173.62
515.21	971.4	4136.02
515.31	971.3	4144.02
515.41	971.2	4181.87
515.51	971.1	4196.58
515.61	971	4173.82
515.71	970.9	4162.93
515.81	970.8	4173.33
515.91	970.7	4168.69
516.01	970.6	4203.64
516.11	970.5	4178.33
516.21	970.4	4190.76
516.31	970.3	4218.47
516.41	970.2	4168.33
516.51	970.1	4175.53
516.61	970	4190.16
516.71	969.9	4249.27
516.81	969.8	4189.11
516.91	969.7	4181.47
517.01	969.6	4208.09
517.11	969.5	4224.4
517.21	969.4	4229.6
517.31	969.3	4229.67
517.41	969.2	4228.42
517.51	969.1	4232.47
517.61	969	4186.16
517.71	968.9	4193.22
517.81	968.8	4235.49
517.91	968.7	4206.76
518.01	968.6	4232.67
518.11	968.5	4230.11
518.21	968.4	4221.6
518.31	968.3	4224.58
518.41	968.2	4226.67
518.51	968.1	4274.27
518.61	968	4223.87
518.71	967.9	4310.49
518.81	967.8	4221.78
518.91	967.7	4234.93
519.01	967.6	4221.27
519.11	967.5	4209.82
519.21	967.4	4248.47
519.31	967.3	4251.96
519.41	967.2	4219.33
519.51	967.1	4202.07
519.61	967	4285.64
519.71	966.9	4279.04
519.81	966.8	4298.91
519.91	966.7	4277.02
520.01	966.6	4327.69
520.11	966.5	4333.98
520.21	966.4	4328.49
520.31	966.3	4362.76
520.41	966.2	4360.67
520.51	966.1	4365.82
520.61	966	4432.89
520.71	965.9	4365.84
520.81	965.8	4370.2
520.91	965.7	4386.51
521.01	965.6	4417.53
521.11	965.5	4390.18
521.21	965.4	4346.27
521.31	965.3	4322.2
521.41	965.2	4262.58
521.51	965.1	4259.84
521.61	965	4235.6
521.71	964.9	4188.6
521.81	964.8	4221.33
521.91	964.7	4199.67
522.01	964.6	4153.58
522.11	964.5	4126.31
522.21	964.4	4052.64
522.31	964.3	4067.31
522.41	964.2	4092.36
522.51	964.1	4034.8
522.61	964	4017.53
522.71	963.9	4034.53
522.81	963.8	4017.04
522.91	963.7	3982.13
523.01	963.6	3990.91
523.11	963.5	3988.02
523.21	963.4	3989.84
523.31	963.3	3972.71
523.41	963.2	3910.11
523.51	963.1	3903.29
523.61	963	3976.58
523.71	962.9	3956.07
523.81	962.8	3944.64
523.91	962.7	3922.49
524.01	962.6	3921.47
524.11	962.5	3922.98
524.21	962.4	3902.6
524.31	962.3	3935.76
524.41	962.2	3885.4
524.51	962.1	3881
524.61	962	3868.89
524.71	961.9	3917.67
524.81	961.8	3907.47
524.91	961.7	3908.33
525.01	961.6	3887.16
525.11	961.5	3857.27
525.21	961.4	3866.96
525.31	961.3	3912.04
525.41	961.2	3913.42
525.51	961.1	3845.64
525.61	961	3891.51
525.71	960.9	3873.22
525.81	960.8	3918.53
525.91	960.7	3869.69
526.01	960.6	3871.16
526.11	960.5	3876.87
526.21	960.4	3897.96
526.31	960.3	3891.04
526.41	960.2	3877.96
526.51	960.1	3857.89
526.61	960	3880.69
526.71	959.9	3874.49
526.81	959.8	3887.04
526.91	959.7	3894.91
527.01	959.6	3816.64
527.11	959.5	3843.71
527.21	959.4	3812.11
527.31	959.3	3878.69
527.41	959.2	3852.49
527.51	959.1	3828.89
527.61	959	3860.78
527.71	958.9	3845.84
527.81	958.8	3856.78
527.91	958.7	3903.22
528.01	958.6	3824.29
528.11	958.5	3804.36
528.21	958.4	3806.33
528.31	958.3	3823.13
528.41	958.2	3804.53
528.51	958.1	3789.6
528.61	958	3786.8
528.71	957.9	3815.8
528.81	957.8	3774.24
528.91	957.7	3778.09
529.01	957.6	3775.71
529.11	957.5	3763.6
529.21	957.4	3840.29
529.31	957.3	3821.91
529.41	957.2	3818.13
529.51	957.1	3850.67
529.61	957	3806.78
529.71	956.9	3805.22
529.81	956.8	3763.36
529.91	956.7	3775.93
530.01	956.6	3809.98
530.11	956.5	3799.93
530.21	956.4	3777.56
530.31	956.3	3864.31
530.41	956.2	3856.56
530.51	956.1	3847.16
530.61	956	3859.93
530.71	955.9	3831.36
530.81	955.8	3838.69
530.91	955.7	3824.58
531.01	955.6	3854.8
531.11	955.5	3850.69
531.21	955.4	3854.29
531.31	955.3	3938
531.41	955.2	3900.4
531.51	955.1	3888.8
531.61	955	3917.76
531.71	954.9	3967.11
531.81	954.8	3950.02
531.91	954.7	3968.78
532.01	954.6	3984.33
532.11	954.5	4023.8
532.21	954.4	4054.13
532.31	954.3	4051.96
532.41	954.2	4082.44
532.51	954.1	4099.29
532.61	954	4154
532.71	953.9	4282.71
532.81	953.8	4376.36
532.91	953.7	4428.04
533.01	953.6	4501.36
533.11	953.5	4619.53
533.21	953.4	4713.6
533.31	953.3	4866.73
533.41	953.2	5040
533.51	953.1	5252.09
533.61	953	5421.51
533.71	952.9	5569.56
533.81	952.8	5692.8
533.91	952.7	5838.04
534.01	952.6	5891.96
534.11	952.5	5893.33
534.21	952.4	5898.4
534.31	952.3	5768.71
534.41	952.2	5588.71
534.51	952.1	5403
534.61	952	5266.29
534.71	951.9	4997.56
534.81	951.8	4854.4
534.91	951.7	4707.24
535.01	951.6	4552.16
535.11	951.5	4422.24
535.21	951.4	4353.18
535.31	951.3	4287.04
535.41	951.2	4209.33
535.51	951.1	4149.2
535.61	951	4100.29
535.71	950.9	4057.93
535.81	950.8	3975.98
535.91	950.7	3981.02
536.01	950.6	3976.87
536.11	950.5	3951.02
536.21	950.4	3930.07
536.31	950.3	3869.09
536.41	950.2	3880.73
536.51	950.1	3813.6
536.61	950	3853.6
536.71	949.9	3843.87
536.81	949.8	3854.13
536.91	949.7	3852.27
537.01	949.6	3843.64
537.11	949.5	3823.2
537.21	949.4	3843.02
537.31	949.3	3853.58
537.41	949.2	3807.56
537.51	949.1	3800.18
537.61	949	3833.44
537.71	948.9	3838.98
537.81	948.8	3807.31
537.91	948.7	3837.36
538.01	948.6	3818.64
538.11	948.5	3805.16
538.21	948.4	3771.69
538.31	948.3	3774.29
538.41	948.2	3753.76
538.51	948.1	3743.71
538.61	948	3797.73
538.71	947.9	3706.42
538.81	947.8	3748.6
538.91	947.7	3766.64
539.01	947.6	3780.09
539.11	947.5	3793.62
539.21	947.4	3864.36
539.31	947.3	3922.76
539.41	947.2	3941.4
539.51	947.1	3961.84
539.61	947	4065.73
539.71	946.9	4088.67
539.81	946.8	4131.27
539.91	946.7	4202.38
540.01	946.6	4158.13
540.11	946.5	4122.4
540.21	946.4	4150.62
540.31	946.3	4178.73
540.41	946.2	4181.73
540.51	946.1	4214.6
540.61	946	4251.22
540.71	945.9	4259.82
540.81	945.8	4270.98
540.91	945.7	4317.64
541.01	945.6	4233.82
541.11	945.5	4209.44
541.21	945.4	4083.87
541.31	945.3	3942.8
541.41	945.2	3808.78
541.51	945.1	3724.49
541.61	945	3573.6
541.71	944.9	3510.73
541.81	944.8	3447.6
541.91	944.7	3354.56
542.01	944.6	3289.87
542.11	944.5	3289.96
542.21	944.4	3247.02
542.31	944.3	3251.11
542.41	944.2	3222.16
542.51	944.1	3173.84
542.61	944	3178.2
542.71	943.9	3172.76
542.81	943.8	3152.02
542.91	943.7	3149.42
543.01	943.6	3175.67
543.11	943.5	3164.22
543.21	943.4	3107.18
543.31	943.3	3071.62
543.41	943.2	3109.2
543.51	943.1	3141.67
543.61	943	3107.64
543.71	942.9	3117.6
543.81	942.8	3076.91
543.91	942.7	3046.53
544.01	942.6	3082.4
544.11	942.5	3096.58
544.21	942.4	3088.16
544.31	942.3	3098.16
544.41	942.2	3106.24
544.51	942.1	3118.58
544.61	942	3095.98
544.71	941.9	3038.64
544.81	941.8	3047.69
544.91	941.7	3056.96
545.01	941.6	3008.11
545.11	941.5	3039.69
545.21	941.4	2998.67
545.31	941.3	2980.07
545.41	941.2	2926.8
545.51	941.1	2994.31
545.61	941	2998.71
545.71	940.9	2944.62
545.81	940.8	2953.31
545.91	940.7	2944.11
546.01	940.6	2945.58
546.11	940.5	2964.29
546.21	940.4	2966.67
546.31	940.3	2995.64
546.41	940.2	2985.38
546.51	940.1	2983.04
546.61	940	2964.58
546.71	939.9	2962.76
546.81	939.8	2940.62
546.91	939.7	2962.87
547.01	939.6	2961.98
547.11	939.5	2957.64
547.21	939.4	2981.8
547.31	939.3	2984.36
547.41	939.2	2965.67
547.51	939.1	2970.44
547.61	939	2989.8
547.71	938.9	2954.93
547.81	938.8	2955.16
547.91	938.7	2972.04
548.01	938.6	2960.56
548.11	938.5	2996.62
548.21	938.4	2993.82
548.31	938.3	2951.42
548.41	938.2	2965.4
548.51	938.1	2945.33
548.61	938	3010.11
548.71	937.9	2996.42
548.81	937.8	3014.89
548.91	937.7	3016
549.01	937.6	3059.31
549.11	937.5	3009.22
549.21	937.4	3041.4
549.31	937.3	3036.6
549.41	937.2	3009.24
549.51	937.1	3020.71
549.61	937	2996.93
549.71	936.9	3032.53
549.81	936.8	3063.58
549.91	936.7	3078.4
550.01	936.6	3081.29
550.11	936.5	3042.07
550.21	936.4	3060
550.31	936.3	3094.44
550.41	936.2	3081.87
550.51	936.1	3064.2
550.61	936	3069.89
550.71	935.9	3065.24
550.81	935.8	3078.64
550.91	935.7	3084.4
551.01	935.6	3122.87
551.11	935.5	3138.56
551.21	935.4	3124.22
551.31	935.3	3109.44
551.41	935.2	3122.02
551.51	935.1	3093.91
551.61	935	3129.2
551.71	934.9	3158.04
551.81	934.8	3164.16
551.91	934.7	3184.98
552.01	934.6	3218.53
552.11	934.5	3307.42
552.21	934.4	3305.71
552.31	934.3	3373.71
552.41	934.2	3479.53
552.51	934.1	3564.8
552.61	934	3670.29
552.71	933.9	3827.29
552.81	933.8	4007.24
552.91	933.7	4284.6
553.01	933.6	4575.38
553.11	933.5	4976.07
553.21	933.4	5532.47
553.31	933.3	6251.87
553.41	933.2	7127.87
553.51	933.1	8040.53
553.61	933	8943.27
553.71	932.9	9772.07
553.81	932.8	10363.6
553.91	932.7	10525.9
554.01	932.6	10139.6
554.11	932.5	9327.16
554.21	932.4	8362.38
554.31	932.3	7329.27
554.41	932.2	6304.02
554.51	932.1	5524.53
554.61	932	4971.29
554.71	931.9	4473.93
554.81	931.8	4058.13
554.91	931.7	3788.87
555.01	931.6	3628.8
555.11	931.5	3477.49
555.21	931.4	3315.04
555.31	931.3	3232.02
555.41	931.2	3163.09
555.51	931.1	3121.69
555.61	931	3051.13
555.71	930.9	3033.44
555.81	930.8	3000.82
555.91	930.7	2942.47
556.01	930.6	2930.38
556.11	930.5	2899.84
556.21	930.4	2876.4
556.31	930.3	2843.4
556.41	930.2	2837.4
556.51	930.1	2789.11
556.61	930	2800.11
556.71	929.9	2824.51
556.81	929.8	2805.58
556.91	929.7	2796.93
557.01	929.6	2801.33
557.11	929.5	2812.2
557.21	929.4	2810.84
557.31	929.3	2749.42
557.41	929.2	2796.47
557.51	929.1	2786.24
557.61	929	2779.87
557.71	928.9	2747
557.81	928.8	2761.42
557.91	928.7	2731.71
558.01	928.6	2744.22
558.11	928.5	2742.82
558.21	928.4	2730.96
558.31	928.3	2744.82
558.41	928.2	2748.16
558.51	928.1	2746.91
558.61	928	2767.69
558.71	927.9	2761.96
558.81	927.8	2761.33
558.91	927.7	2772.58
559.01	927.6	2756.36
559.11	927.5	2742.24
559.21	927.4	2730.22
559.31	927.3	2745.62
559.41	927.2	2704.56
559.51	927.1	2726.51
559.61	927	2743.56
559.71	926.9	2742.84
559.81	926.8	2724.02
559.91	926.7	2736.58
560.01	926.6	2736.13
560.11	926.5	2724.16
560.21	926.4	2752.33
560.31	926.3	2708.62
560.41	926.2	2714.87
560.51	926.1	2708.84
560.61	926	2718.33
560.71	925.9	2744.09
560.81	925.8	2751.64
560.91	925.7	2726.69
561.01	925.6	2715.16
561.11	925.5	2735.64
561.21	925.4	2752.87
561.31	925.3	2730.8
561.41	925.2	2744.69
561.51	925.1	2749.49
561.61	925	2785.4
561.71	924.9	2754.56
561.81	924.8	2760.22
561.91	924.7	2717.4
562.01	924.6	2721.67
562.11	924.5	2734.82
562.21	924.4	2722.6
562.31	924.3	2715.51
562.41	924.2	2738.2
562.51	924.1	2758.02
562.61	924	2741.58
562.71	923.9	2719.11
562.81	923.8	2726.24
562.91	923.7	2750.58
563.01	923.6	2725.56
563.11	923.5	2746.44
563.21	923.4	2745.78
563.31	923.3	2751.27
563.41	923.2	2743.49
563.51	923.1	2728.04
563.61	923	2774.98
563.71	922.9	2744.04
563.81	922.8	2733.27
563.91	922.7	2723.98
564.01	922.6	2753.02
564.11	922.5	2779.93
564.21	922.4	2775.47
564.31	922.3	2738.36
564.41	922.2	2755.82
564.51	922.1	2726.78
564.61	922	2752.62
564.71	921.9	2746.04
564.81	921.8	2752.73
564.91	921.7	2757.18
565.01	921.6	2757.29
565.11	921.5	2744.98
565.21	921.4	2745.31
565.31	921.3	2748.49
565.41	921.2	2724
565.51	921.1	2749.09
565.61	921	2780.84
565.71	920.9	2778.6
565.81	920.8	2739.89
565.91	920.7	2756.8
566.01	920.6	2778.22
566.11	920.5	2744.33
566.21	920.4	2748.69
566.31	920.3	2787.51
566.41	920.2	2747.4
566.51	920.1	2728.16
566.61	920	2766.07