c:\users\mark\owncloud\muelheim group\projects\gas phase background\ex340_cec356_cu n2 largearea.vms
Cu2p
	Characteristic Energy eV	1486.61	Acquisition Time s	3
KE_Cu2p	BE_Cu2p	CPS_Cu2p
456.61	1030	16623.8
456.71	1029.9	16660.9
456.81	1029.8	16678.4
456.91	1029.7	16633.3
457.01	1029.6	16556
457.11	1029.5	16674.7
457.21	1029.4	16818.4
457.31	1029.3	16741.9
457.41	1029.2	16706.3
457.51	1029.1	16737.8
457.61	1029	16683
457.71	1028.9	16633.9
457.81	1028.8	16721.5
457.91	1028.7	16621.7
458.01	1028.6	16759.6
458.11	1028.5	16720.6
458.21	1028.4	16725.7
458.31	1028.3	16750.4
458.41	1028.2	16670.3
458.51	1028.1	16651.7
458.61	1028	16686.5
458.71	1027.9	16798.3
458.81	1027.8	16818.9
458.91	1027.7	16814
459.01	1027.6	16810.1
459.11	1027.5	16762.9
459.21	1027.4	16771.7
459.31	1027.3	16844.8
459.41	1027.2	16731.5
459.51	1027.1	16801
459.61	1027	16725.1
459.71	1026.9	16744.3
459.81	1026.8	16859
459.91	1026.7	16916.7
460.01	1026.6	16723.2
460.11	1026.5	16832.3
460.21	1026.4	16872.5
460.31	1026.3	16841.6
460.41	1026.2	16799.2
460.51	1026.1	16802.8
460.61	1026	16813.8
460.71	1025.9	16771.1
460.81	1025.8	16804.7
460.91	1025.7	16823.5
461.01	1025.6	16945.7
461.11	1025.5	16843.5
461.21	1025.4	16746.3
461.31	1025.3	16772.7
461.41	1025.2	16823.8
461.51	1025.1	16900.2
461.61	1025	16891.1
461.71	1024.9	16956.5
461.81	1024.8	16928.3
461.91	1024.7	16890.8
462.01	1024.6	16830.7
462.11	1024.5	16774.2
462.21	1024.4	16921.1
462.31	1024.3	16920.9
462.41	1024.2	16951.2
462.51	1024.1	16974.8
462.61	1024	16875.1
462.71	1023.9	16921.6
462.81	1023.8	17003.7
462.91	1023.7	16902.2
463.01	1023.6	16932.5
463.11	1023.5	16995.7
463.21	1023.4	16952.9
463.31	1023.3	16986.6
463.41	1023.2	17017
463.51	1023.1	16940.4
463.61	1023	17019.2
463.71	1022.9	16844.9
463.81	1022.8	16910.8
463.91	1022.7	16918.9
464.01	1022.6	16956.8
464.11	1022.5	16941.4
464.21	1022.4	16984.1
464.31	1022.3	16925.2
464.41	1022.2	16864.2
464.51	1022.1	16950.8
464.61	1022	16913.4
464.71	1021.9	17032.9
464.81	1021.8	17087.6
464.91	1021.7	17117.4
465.01	1021.6	17039.9
465.11	1021.5	17103.8
465.21	1021.4	17168.1
465.31	1021.3	17100.4
465.41	1021.2	17031.8
465.51	1021.1	17063.9
465.61	1021	17015.8
465.71	1020.9	17007.3
465.81	1020.8	16990.2
465.91	1020.7	16999.3
466.01	1020.6	17034.2
466.11	1020.5	17114
466.21	1020.4	17089.4
466.31	1020.3	17152.6
466.41	1020.2	17064.3
466.51	1020.1	16957.3
466.61	1020	16958.6
466.71	1019.9	17200.9
466.81	1019.8	17203.5
466.91	1019.7	17222.6
467.01	1019.6	17165.2
467.11	1019.5	17073.7
467.21	1019.4	17201.6
467.31	1019.3	17157
467.41	1019.2	17278.7
467.51	1019.1	17226
467.61	1019	17076.1
467.71	1018.9	17170.9
467.81	1018.8	17276
467.91	1018.7	17226.3
468.01	1018.6	17168.9
468.11	1018.5	17238.3
468.21	1018.4	17282.8
468.31	1018.3	17091.2
468.41	1018.2	17199.3
468.51	1018.1	17273.1
468.61	1018	17217.2
468.71	1017.9	17232.5
468.81	1017.8	17143.6
468.91	1017.7	17246.5
469.01	1017.6	17210.9
469.11	1017.5	17161.7
469.21	1017.4	17277.6
469.31	1017.3	17292.8
469.41	1017.2	17223.2
469.51	1017.1	17319.7
469.61	1017	17229
469.71	1016.9	17234.8
469.81	1016.8	17328.4
469.91	1016.7	17364.7
470.01	1016.6	17266.4
470.11	1016.5	17255.3
470.21	1016.4	17362.1
470.31	1016.3	17315.8
470.41	1016.2	17223.8
470.51	1016.1	17372.4
470.61	1016	17381.3
470.71	1015.9	17235.1
470.81	1015.8	17325.4
470.91	1015.7	17377.7
471.01	1015.6	17361.7
471.11	1015.5	17304.6
471.21	1015.4	17405.6
471.31	1015.3	17300.7
471.41	1015.2	17340
471.51	1015.1	17279.6
471.61	1015	17328
471.71	1014.9	17463.2
471.81	1014.8	17328.9
471.91	1014.7	17447
472.01	1014.6	17448.7
472.11	1014.5	17431.9
472.21	1014.4	17383.9
472.31	1014.3	17304.1
472.41	1014.2	17372.1
472.51	1014.1	17417.2
472.61	1014	17410.4
472.71	1013.9	17411.7
472.81	1013.8	17459.8
472.91	1013.7	17449.3
473.01	1013.6	17551.5
473.11	1013.5	17503.8
473.21	1013.4	17410.1
473.31	1013.3	17432
473.41	1013.2	17389.9
473.51	1013.1	17424.3
473.61	1013	17416.5
473.71	1012.9	17555.5
473.81	1012.8	17525.5
473.91	1012.7	17530.3
474.01	1012.6	17563.9
474.11	1012.5	17562.9
474.21	1012.4	17525.8
474.31	1012.3	17415.5
474.41	1012.2	17612.6
474.51	1012.1	17575.4
474.61	1012	17583.9
474.71	1011.9	17560.9
474.81	1011.8	17672.4
474.91	1011.7	17566.6
475.01	1011.6	17556.4
475.11	1011.5	17610.2
475.21	1011.4	17572.8
475.31	1011.3	17650.8
475.41	1011.2	17528.4
475.51	1011.1	17581.4
475.61	1011	17674.2
475.71	1010.9	17564.3
475.81	1010.8	17612.9
475.91	1010.7	17579.8
476.01	1010.6	17604.8
476.11	1010.5	17692.4
476.21	1010.4	17588.7
476.31	1010.3	17533.9
476.41	1010.2	17564
476.51	1010.1	17537.2
476.61	1010	17609.2
476.71	1009.9	17585.6
476.81	1009.8	17699.7
476.91	1009.7	17780.3
477.01	1009.6	17600.3
477.11	1009.5	17735.9
477.21	1009.4	17677.3
477.31	1009.3	17700.8
477.41	1009.2	17719.7
477.51	1009.1	17718
477.61	1009	17737.9
477.71	1008.9	17803.1
477.81	1008.8	17698.8
477.91	1008.7	17663.9
478.01	1008.6	17738.8
478.11	1008.5	17838.4
478.21	1008.4	17768.6
478.31	1008.3	17763.2
478.41	1008.2	17715.1
478.51	1008.1	17720.2
478.61	1008	17752.6
478.71	1007.9	17753.5
478.81	1007.8	17702.2
478.91	1007.7	17848.4
479.01	1007.6	17729.6
479.11	1007.5	17713.6
479.21	1007.4	17766.9
479.31	1007.3	17852.2
479.41	1007.2	17844.2
479.51	1007.1	17863.3
479.61	1007	17886.1
479.71	1006.9	17853.3
479.81	1006.8	17838.2
479.91	1006.7	17785
480.01	1006.6	17759.7
480.11	1006.5	17908
480.21	1006.4	17862
480.31	1006.3	17876.5
480.41	1006.2	17827.4
480.51	1006.1	17846.5
480.61	1006	17694.4
480.71	1005.9	17850.9
480.81	1005.8	17906.1
480.91	1005.7	17894.3
481.01	1005.6	17922.3
481.11	1005.5	17822.1
481.21	1005.4	17789
481.31	1005.3	17895.7
481.41	1005.2	17935.7
481.51	1005.1	17943
481.61	1005	17984.9
481.71	1004.9	17994.9
481.81	1004.8	18005.5
481.91	1004.7	17896.5
482.01	1004.6	17932.1
482.11	1004.5	18077.3
482.21	1004.4	17997
482.31	1004.3	18011.1
482.41	1004.2	18034.8
482.51	1004.1	18032.1
482.61	1004	17868.9
482.71	1003.9	17905.4
482.81	1003.8	18002.1
482.91	1003.7	18111
483.01	1003.6	18035.3
483.11	1003.5	18073.9
483.21	1003.4	18099.3
483.31	1003.3	17975
483.41	1003.2	18104.3
483.51	1003.1	18131.2
483.61	1003	18107.3
483.71	1002.9	18149.7
483.81	1002.8	18098.7
483.91	1002.7	18189.3
484.01	1002.6	18139.5
484.11	1002.5	18111.5
484.21	1002.4	18182.8
484.31	1002.3	18072.9
484.41	1002.2	18206.2
484.51	1002.1	18197.4
484.61	1002	18225.7
484.71	1001.9	18164.7
484.81	1001.8	18116.4
484.91	1001.7	18282.1
485.01	1001.6	18322.1
485.11	1001.5	18261.1
485.21	1001.4	18098.2
485.31	1001.3	18240.7
485.41	1001.2	18303.4
485.51	1001.1	18153.7
485.61	1001	18135.1
485.71	1000.9	18230.4
485.81	1000.8	18241
485.91	1000.7	18264.5
486.01	1000.6	18278.2
486.11	1000.5	18284.9
486.21	1000.4	18250.5
486.31	1000.3	18352.8
486.41	1000.2	18333.4
486.51	1000.1	18403.1
486.61	1000	18395.2
486.71	999.9	18371.5
486.81	999.8	18310
486.91	999.7	18324.5
487.01	999.6	18316.2
487.11	999.5	18310.6
487.21	999.4	18285.2
487.31	999.3	18375.8
487.41	999.2	18344
487.51	999.1	18464.2
487.61	999	18392.6
487.71	998.9	18437.2
487.81	998.8	18448.8
487.91	998.7	18537.6
488.01	998.6	18354.8
488.11	998.5	18462.6
488.21	998.4	18498.8
488.31	998.3	18546.2
488.41	998.2	18473.7
488.51	998.1	18396.9
488.61	998	18639.6
488.71	997.9	18531.9
488.81	997.8	18494.8
488.91	997.7	18443.5
489.01	997.6	18476.5
489.11	997.5	18532.3
489.21	997.4	18526.6
489.31	997.3	18617.1
489.41	997.2	18583
489.51	997.1	18595.7
489.61	997	18506.2
489.71	996.9	18465.1
489.81	996.8	18462.9
489.91	996.7	18541.3
490.01	996.6	18551.8
490.11	996.5	18532.1
490.21	996.4	18536.2
490.31	996.3	18448.9
490.41	996.2	18640.2
490.51	996.1	18699.2
490.61	996	18798.2
490.71	995.9	18607.2
490.81	995.8	18557.4
490.91	995.7	18647.6
491.01	995.6	18676.1
491.11	995.5	18671.5
491.21	995.4	18740.5
491.31	995.3	18788.3
491.41	995.2	18669.6
491.51	995.1	18689.4
491.61	995	18726.7
491.71	994.9	18653.9
491.81	994.8	18703.1
491.91	994.7	18755
492.01	994.6	18716.9
492.11	994.5	18663.4
492.21	994.4	18657.9
492.31	994.3	18712.6
492.41	994.2	18647
492.51	994.1	18740.5
492.61	994	18793.7
492.71	993.9	18734.2
492.81	993.8	18675.3
492.91	993.7	18755.3
493.01	993.6	18793.3
493.11	993.5	18817.6
493.21	993.4	18749.5
493.31	993.3	18868
493.41	993.2	18750.8
493.51	993.1	18633.4
493.61	993	18671.3
493.71	992.9	18659.8
493.81	992.8	18762.6
493.91	992.7	18838.8
494.01	992.6	18854
494.11	992.5	18866
494.21	992.4	18782
494.31	992.3	18766
494.41	992.2	18652.1
494.51	992.1	18764.5
494.61	992	18874.5
494.71	991.9	18770.4
494.81	991.8	18753.3
494.91	991.7	18759.8
495.01	991.6	18924.6
495.11	991.5	18837.3
495.21	991.4	18871.4
495.31	991.3	18855.6
495.41	991.2	18981
495.51	991.1	18785.5
495.61	991	18911.1
495.71	990.9	18875.8
495.81	990.8	18932.5
495.91	990.7	18813.3
496.01	990.6	18900.9
496.11	990.5	18899.6
496.21	990.4	19006.9
496.31	990.3	18863.8
496.41	990.2	18947
496.51	990.1	19047.3
496.61	990	19049.1
496.71	989.9	18831
496.81	989.8	18839.8
496.91	989.7	18913.3
497.01	989.6	19022
497.11	989.5	18910.6
497.21	989.4	18902
497.31	989.3	19012.9
497.41	989.2	18947.2
497.51	989.1	19095.1
497.61	989	19106.6
497.71	988.9	18999.9
497.81	988.8	18970.5
497.91	988.7	19069.5
498.01	988.6	19108.2
498.11	988.5	19056.2
498.21	988.4	19119.1
498.31	988.3	18980.5
498.41	988.2	19071.9
498.51	988.1	19080.3
498.61	988	19131.5
498.71	987.9	19051.7
498.81	987.8	19139.1
498.91	987.7	19021.2
499.01	987.6	19063.7
499.11	987.5	19082.6
499.21	987.4	19028.3
499.31	987.3	19097.6
499.41	987.2	19057.8
499.51	987.1	19208
499.61	987	19179.1
499.71	986.9	19227.6
499.81	986.8	19279.4
499.91	986.7	19266.4
500.01	986.6	19239.3
500.11	986.5	19190
500.21	986.4	19214
500.31	986.3	19303.3
500.41	986.2	19349.6
500.51	986.1	19230.5
500.61	986	19485.3
500.71	985.9	19180.3
500.81	985.8	19252.8
500.91	985.7	19374.4
501.01	985.6	19377.2
501.11	985.5	19231.1
501.21	985.4	19321
501.31	985.3	19325.2
501.41	985.2	19335.8
501.51	985.1	19403.6
501.61	985	19369.1
501.71	984.9	19242.8
501.81	984.8	19328.5
501.91	984.7	19419.9
502.01	984.6	19273.5
502.11	984.5	19227.7
502.21	984.4	19272.3
502.31	984.3	19434.2
502.41	984.2	19442.8
502.51	984.1	19466
502.61	984	19397.1
502.71	983.9	19387.6
502.81	983.8	19408.8
502.91	983.7	19647.7
503.01	983.6	19521.1
503.11	983.5	19477.9
503.21	983.4	19528.1
503.31	983.3	19562.3
503.41	983.2	19600.5
503.51	983.1	19726
503.61	983	19660.1
503.71	982.9	19581.3
503.81	982.8	19595
503.91	982.7	19593
504.01	982.6	19643
504.11	982.5	19615.5
504.21	982.4	19767.7
504.31	982.3	19529.9
504.41	982.2	19677.1
504.51	982.1	19741.4
504.61	982	19661
504.71	981.9	19698.4
504.81	981.8	19613.9
504.91	981.7	19827.2
505.01	981.6	19850.9
505.11	981.5	19777.7
505.21	981.4	19744.2
505.31	981.3	19793.7
505.41	981.2	19837.5
505.51	981.1	19793.8
505.61	981	19859.6
505.71	980.9	19886.2
505.81	980.8	19885.5
505.91	980.7	19890.8
506.01	980.6	19891.4
506.11	980.5	20066.6
506.21	980.4	19885.8
506.31	980.3	19835.5
506.41	980.2	19956.8
506.51	980.1	20010.8
506.61	980	19985
506.71	979.9	20013
506.81	979.8	19990.2
506.91	979.7	20009.1
507.01	979.6	20012.1
507.11	979.5	20040.5
507.21	979.4	20108.6
507.31	979.3	20118.1
507.41	979.2	20065.6
507.51	979.1	20112.7
507.61	979	20036
507.71	978.9	20040.9
507.81	978.8	20086.6
507.91	978.7	20205
508.01	978.6	20160.7
508.11	978.5	20115.6
508.21	978.4	20206.5
508.31	978.3	20160.3
508.41	978.2	20199.2
508.51	978.1	20218.1
508.61	978	20128.9
508.71	977.9	20073.8
508.81	977.8	20224.2
508.91	977.7	20348.7
509.01	977.6	20313.2
509.11	977.5	20199.5
509.21	977.4	20248.9
509.31	977.3	20301.5
509.41	977.2	20114.5
509.51	977.1	20290.2
509.61	977	20343.7
509.71	976.9	20410.4
509.81	976.8	20224.7
509.91	976.7	20307.6
510.01	976.6	20338.5
510.11	976.5	20423.8
510.21	976.4	20328.8
510.31	976.3	20427.8
510.41	976.2	20429.5
510.51	976.1	20345.2
510.61	976	20461.3
510.71	975.9	20415.1
510.81	975.8	20468
510.91	975.7	20456.7
511.01	975.6	20487
511.11	975.5	20529.4
511.21	975.4	20550.4
511.31	975.3	20532.4
511.41	975.2	20573.8
511.51	975.1	20632.5
511.61	975	20514.8
511.71	974.9	20643.8
511.81	974.8	20594.2
511.91	974.7	20531.5
512.01	974.6	20623.4
512.11	974.5	20765.1
512.21	974.4	20740.5
512.31	974.3	20535.1
512.41	974.2	20576.3
512.51	974.1	20726.5
512.61	974	20689
512.71	973.9	20844.7
512.81	973.8	20799.2
512.91	973.7	20944.7
513.01	973.6	20835
513.11	973.5	20879.2
513.21	973.4	20669.4
513.31	973.3	20812.3
513.41	973.2	20780.5
513.51	973.1	20790.3
513.61	973	20764
513.71	972.9	20764.7
513.81	972.8	20830.2
513.91	972.7	20746.8
514.01	972.6	20831.5
514.11	972.5	20827.6
514.21	972.4	20819
514.31	972.3	20804.5
514.41	972.2	20799.7
514.51	972.1	20734.3
514.61	972	20743.2
514.71	971.9	20746.7
514.81	971.8	20695.3
514.91	971.7	20765.9
515.01	971.6	20660.4
515.11	971.5	20697.8
515.21	971.4	20798.2
515.31	971.3	20708.1
515.41	971.2	20837.2
515.51	971.1	20668.5
515.61	971	20749.5
515.71	970.9	20700.6
515.81	970.8	20647.6
515.91	970.7	20755.8
516.01	970.6	20747.1
516.11	970.5	20743.3
516.21	970.4	20684.6
516.31	970.3	20717.5
516.41	970.2	20741.4
516.51	970.1	20702.1
516.61	970	20756
516.71	969.9	20707.2
516.81	969.8	20778.2
516.91	969.7	20714.8
517.01	969.6	20733.4
517.11	969.5	20728.6
517.21	969.4	20829.1
517.31	969.3	20607.5
517.41	969.2	20593
517.51	969.1	20665
517.61	969	20742.4
517.71	968.9	20764.1
517.81	968.8	20728.3
517.91	968.7	20671.6
518.01	968.6	20655.1
518.11	968.5	20656.7
518.21	968.4	20600.3
518.31	968.3	20572.6
518.41	968.2	20692.4
518.51	968.1	20680
518.61	968	20624.5
518.71	967.9	20527.3
518.81	967.8	20575.4
518.91	967.7	20575.4
519.01	967.6	20521.5
519.11	967.5	20504.8
519.21	967.4	20603
519.31	967.3	20577.3
519.41	967.2	20526.2
519.51	967.1	20458.8
519.61	967	20668.9
519.71	966.9	20585
519.81	966.8	20616.5
519.91	966.7	20644.9
520.01	966.6	20618.2
520.11	966.5	20741.3
520.21	966.4	20643.1
520.31	966.3	20728.4
520.41	966.2	20679.7
520.51	966.1	20725.5
520.61	966	20604.4
520.71	965.9	20746
520.81	965.8	20755.2
520.91	965.7	20738.5
521.01	965.6	20761.6
521.11	965.5	20865.9
521.21	965.4	20863.2
521.31	965.3	20814.3
521.41	965.2	20928.5
521.51	965.1	20851.3
521.61	965	20907.4
521.71	964.9	20872.7
521.81	964.8	20861
521.91	964.7	20845.7
522.01	964.6	20854.2
522.11	964.5	20879.6
522.21	964.4	20799.4
522.31	964.3	20842
522.41	964.2	20809.6
522.51	964.1	20694.2
522.61	964	20639.1
522.71	963.9	20541.9
522.81	963.8	20485.6
522.91	963.7	20502.7
523.01	963.6	20302.8
523.11	963.5	20194.3
523.21	963.4	20077.8
523.31	963.3	20266.4
523.41	963.2	20204.6
523.51	963.1	20049.1
523.61	963	20075.8
523.71	962.9	20102.6
523.81	962.8	20083.4
523.91	962.7	20046.1
524.01	962.6	19960.7
524.11	962.5	19889
524.21	962.4	19818.6
524.31	962.3	19744.5
524.41	962.2	19709.5
524.51	962.1	19799.1
524.61	962	19726.4
524.71	961.9	19828.8
524.81	961.8	19843.7
524.91	961.7	19684
525.01	961.6	19686.7
525.11	961.5	19678.7
525.21	961.4	19653.2
525.31	961.3	19724.4
525.41	961.2	19820.2
525.51	961.1	19748.5
525.61	961	19836.4
525.71	960.9	19724.2
525.81	960.8	19715.2
525.91	960.7	19811.8
526.01	960.6	19716
526.11	960.5	19741.6
526.21	960.4	19832.6
526.31	960.3	19803.8
526.41	960.2	19786.6
526.51	960.1	20000.3
526.61	960	19807.7
526.71	959.9	19699.9
526.81	959.8	19831.1
526.91	959.7	19871.3
527.01	959.6	20026.2
527.11	959.5	19929.7
527.21	959.4	20067.4
527.31	959.3	20048.7
527.41	959.2	20049.8
527.51	959.1	20011.7
527.61	959	19958.3
527.71	958.9	19986.3
527.81	958.8	19920.5
527.91	958.7	19956
528.01	958.6	20023.9
528.11	958.5	20091.5
528.21	958.4	19980.5
528.31	958.3	19909.8
528.41	958.2	20196.2
528.51	958.1	20223.3
528.61	958	20324
528.71	957.9	20196.6
528.81	957.8	20259.6
528.91	957.7	20359.8
529.01	957.6	20318.1
529.11	957.5	20372.6
529.21	957.4	20392.9
529.31	957.3	20378.3
529.41	957.2	20435.5
529.51	957.1	20553.6
529.61	957	20562.2
529.71	956.9	20605.2
529.81	956.8	20741.8
529.91	956.7	20783.5
530.01	956.6	20801.7
530.11	956.5	21006.6
530.21	956.4	20820.6
530.31	956.3	20901.9
530.41	956.2	21089.3
530.51	956.1	21156.1
530.61	956	21104.8
530.71	955.9	21269.8
530.81	955.8	21384.8
530.91	955.7	21465.2
531.01	955.6	21595
531.11	955.5	21590
531.21	955.4	21769
531.31	955.3	21922.6
531.41	955.2	21978.9
531.51	955.1	22155.5
531.61	955	22364.6
531.71	954.9	22702.7
531.81	954.8	22839.4
531.91	954.7	23029.5
532.01	954.6	23415.3
532.11	954.5	23749.6
532.21	954.4	24248.2
532.31	954.3	24667.4
532.41	954.2	25199.6
532.51	954.1	25834.7
532.61	954	26505.4
532.71	953.9	27433.2
532.81	953.8	28400.7
532.91	953.7	29475.5
533.01	953.6	30779.8
533.11	953.5	32517.8
533.21	953.4	34264
533.31	953.3	36169.3
533.41	953.2	38419.7
533.51	953.1	40905.7
533.61	953	43382.7
533.71	952.9	45889.3
533.81	952.8	48286.7
533.91	952.7	50049
534.01	952.6	51061
534.11	952.5	51164.7
534.21	952.4	50326.7
534.31	952.3	48743.7
534.41	952.2	46307.7
534.51	952.1	43550.3
534.61	952	40491.3
534.71	951.9	37821
534.81	951.8	35226.7
534.91	951.7	32849.4
535.01	951.6	30795.1
535.11	951.5	29090.6
535.21	951.4	27635.3
535.31	951.3	26346.6
535.41	951.2	25414.3
535.51	951.1	24355.1
535.61	951	23818.8
535.71	950.9	23233.9
535.81	950.8	22626.7
535.91	950.7	22103.3
536.01	950.6	21578.1
536.11	950.5	21357.1
536.21	950.4	21154.1
536.31	950.3	20734.7
536.41	950.2	20508.4
536.51	950.1	20414.1
536.61	950	20201.6
536.71	949.9	19996.9
536.81	949.8	19728.7
536.91	949.7	19604.4
537.01	949.6	19599.2
537.11	949.5	19421.3
537.21	949.4	19201.6
537.31	949.3	19005.4
537.41	949.2	18874.8
537.51	949.1	18831.3
537.61	949	18723.6
537.71	948.9	18570.5
537.81	948.8	18513.2
537.91	948.7	18604.8
538.01	948.6	18446.7
538.11	948.5	18411.3
538.21	948.4	18299.2
538.31	948.3	18235.1
538.41	948.2	18318.3
538.51	948.1	18312.4
538.61	948	18218.6
538.71	947.9	18136.5
538.81	947.8	18191.4
538.91	947.7	18057.1
539.01	947.6	18134
539.11	947.5	18134.4
539.21	947.4	17999.3
539.31	947.3	17953.8
539.41	947.2	17992
539.51	947.1	18054.1
539.61	947	18015.8
539.71	946.9	18034.9
539.81	946.8	17878.9
539.91	946.7	17858.9
540.01	946.6	18024.4
540.11	946.5	18029.6
540.21	946.4	17976.9
540.31	946.3	17887.1
540.41	946.2	17787
540.51	946.1	17874.6
540.61	946	17795.4
540.71	945.9	17725.2
540.81	945.8	17654.6
540.91	945.7	17499.8
541.01	945.6	17402.2
541.11	945.5	17422.8
541.21	945.4	17368.9
541.31	945.3	17155.7
541.41	945.2	17256.2
541.51	945.1	17003.2
541.61	945	16944.9
541.71	944.9	16957.5
541.81	944.8	16938.7
541.91	944.7	17023.1
542.01	944.6	16865.8
542.11	944.5	16872.9
542.21	944.4	16782.5
542.31	944.3	16738.8
542.41	944.2	16809.6
542.51	944.1	16676.8
542.61	944	16620.8
542.71	943.9	16579.6
542.81	943.8	16598.5
542.91	943.7	16497
543.01	943.6	16481.9
543.11	943.5	16413.1
543.21	943.4	16281.1
543.31	943.3	16129
543.41	943.2	16068.8
543.51	943.1	16072.3
543.61	943	16002.9
543.71	942.9	16026.8
543.81	942.8	15823.7
543.91	942.7	15787.3
544.01	942.6	15870.9
544.11	942.5	15714.7
544.21	942.4	15549.1
544.31	942.3	15470.8
544.41	942.2	15256.9
544.51	942.1	15250.3
544.61	942	15113
544.71	941.9	15010.9
544.81	941.8	15022.5
544.91	941.7	14886.4
545.01	941.6	14712.6
545.11	941.5	14752.7
545.21	941.4	14559.2
545.31	941.3	14587.4
545.41	941.2	14711.1
545.51	941.1	14515
545.61	941	14464.8
545.71	940.9	14560
545.81	940.8	14515.2
545.91	940.7	14468.9
546.01	940.6	14510.4
546.11	940.5	14544.6
546.21	940.4	14610
546.31	940.3	14484.8
546.41	940.2	14540.4
546.51	940.1	14489.4
546.61	940	14570.8
546.71	939.9	14557
546.81	939.8	14575.9
546.91	939.7	14663.3
547.01	939.6	14655.4
547.11	939.5	14565.1
547.21	939.4	14560.1
547.31	939.3	14599.5
547.41	939.2	14552.1
547.51	939.1	14569.7
547.61	939	14477.4
547.71	938.9	14545.2
547.81	938.8	14587.4
547.91	938.7	14557.7
548.01	938.6	14603.2
548.11	938.5	14623.9
548.21	938.4	14599.7
548.31	938.3	14686.7
548.41	938.2	14791.1
548.51	938.1	14778.2
548.61	938	14865.9
548.71	937.9	14890.6
548.81	937.8	14939.2
548.91	937.7	15000.2
549.01	937.6	15104.4
549.11	937.5	15164.3
549.21	937.4	15325.1
549.31	937.3	15356.7
549.41	937.2	15256.4
549.51	937.1	15318.3
549.61	937	15340.2
549.71	936.9	15398.3
549.81	936.8	15521.9
549.91	936.7	15523.8
550.01	936.6	15696.8
550.11	936.5	15710.4
550.21	936.4	15717.9
550.31	936.3	15695.5
550.41	936.2	15632.9
550.51	936.1	15844.3
550.61	936	15804.2
550.71	935.9	15832.2
550.81	935.8	15785.8
550.91	935.7	15902.4
551.01	935.6	15947.2
551.11	935.5	16046.4
551.21	935.4	16134.7
551.31	935.3	16235.5
551.41	935.2	16385.9
551.51	935.1	16434.2
551.61	935	16515.6
551.71	934.9	16855.4
551.81	934.8	17223.7
551.91	934.7	17543.3
552.01	934.6	17935.8
552.11	934.5	18538.8
552.21	934.4	19044
552.31	934.3	19763
552.41	934.2	20843.4
552.51	934.1	22037.2
552.61	934	23571.8
552.71	933.9	25490.4
552.81	933.8	27961.5
552.91	933.7	31400.3
553.01	933.6	35548
553.11	933.5	41210.3
553.21	933.4	48637.3
553.31	933.3	57835
553.41	933.2	68860
553.51	933.1	81374.7
553.61	933	94015.3
553.71	932.9	105203
553.81	932.8	112603
553.91	932.7	114914
554.01	932.6	110313
554.11	932.5	99814
554.21	932.4	86044
554.31	932.3	71731.3
554.41	932.2	58884
554.51	932.1	48281
554.61	932	39980
554.71	931.9	33542.7
554.81	931.8	28613
554.91	931.7	25065.6
555.01	931.6	22313.5
555.11	931.5	20245.5
555.21	931.4	18639
555.31	931.3	17355.7
555.41	931.2	16300
555.51	931.1	15473.8
555.61	931	14916.8
555.71	930.9	14441.3
555.81	930.8	13878.3
555.91	930.7	13517.9
556.01	930.6	13166.7
556.11	930.5	12838.9
556.21	930.4	12506.9
556.31	930.3	12363.6
556.41	930.2	12117.7
556.51	930.1	11924.4
556.61	930	11700.2
556.71	929.9	11558.4
556.81	929.8	11473.6
556.91	929.7	11341.6
557.01	929.6	11245.7
557.11	929.5	11142.3
557.21	929.4	11092.3
557.31	929.3	10928.2
557.41	929.2	10919.9
557.51	929.1	10806.9
557.61	929	10713.2
557.71	928.9	10690.3
557.81	928.8	10612.2
557.91	928.7	10585.9
558.01	928.6	10516.6
558.11	928.5	10500.3
558.21	928.4	10315.9
558.31	928.3	10364.1
558.41	928.2	10435.7
558.51	928.1	10318
558.61	928	10314.8
558.71	927.9	10201.1
558.81	927.8	10214.6
558.91	927.7	10302.8
559.01	927.6	10190.8
559.11	927.5	10204.4
559.21	927.4	10126.6
559.31	927.3	10124.4
559.41	927.2	10093
559.51	927.1	10189.3
559.61	927	10097.7
559.71	926.9	10162.9
559.81	926.8	10205.2
559.91	926.7	10147.1
560.01	926.6	10006.7
560.11	926.5	9981.2
560.21	926.4	10001.1
560.31	926.3	10028.9
560.41	926.2	9977.33
560.51	926.1	9961.7
560.61	926	10014.1
560.71	925.9	9984.57
560.81	925.8	9979.17
560.91	925.7	9839.53
561.01	925.6	9863.53
561.11	925.5	9904.07
561.21	925.4	9869.63
561.31	925.3	9851.77
561.41	925.2	9994.03
561.51	925.1	9911.8
561.61	925	9812.27
561.71	924.9	9935.53
561.81	924.8	9825.83
561.91	924.7	9809.77
562.01	924.6	9869.77
562.11	924.5	9830.63
562.21	924.4	9840.23
562.31	924.3	9845.4
562.41	924.2	9863.6
562.51	924.1	9910.87
562.61	924	9893.27
562.71	923.9	9926.87
562.81	923.8	9841.23
562.91	923.7	9857.33
563.01	923.6	9865.47
563.11	923.5	9783.4
563.21	923.4	9770.6
563.31	923.3	9798.97
563.41	923.2	9868.6
563.51	923.1	9846.7
563.61	923	9807.9
563.71	922.9	9810.2
563.81	922.8	9854.27
563.91	922.7	9763.33
564.01	922.6	9707
564.11	922.5	9805.23
564.21	922.4	9729.37
564.31	922.3	9852
564.41	922.2	9824.77
564.51	922.1	9807.87
564.61	922	9777.4
564.71	921.9	9738
564.81	921.8	9793.2
564.91	921.7	9818.9
565.01	921.6	9860.6
565.11	921.5	9733.9
565.21	921.4	9753
565.31	921.3	9783
565.41	921.2	9708.5
565.51	921.1	9720.3
565.61	921	9811.57
565.71	920.9	9822.67
565.81	920.8	9790.1
565.91	920.7	9843.03
566.01	920.6	9793.07
566.11	920.5	9763.2
566.21	920.4	9778.13
566.31	920.3	9765.1
566.41	920.2	9699.5
566.51	920.1	9711.03
566.61	920	9778.27