c:\users\mark\owncloud\muelheim group\projects\gas phase background\ex340_cec356_cu n2 largearea.vms
Pr:Cu2s
	Characteristic Energy eV	1486.61	Acquisition Time s	7.8
KE_Pr:Cu2s	BE_Pr:Cu2s	CPS_Pr:Cu2s
286.61	1200	128.228
286.71	1199.9	128.228
286.81	1199.8	128.228
286.91	1199.7	128.228
287.01	1199.6	128.228
287.11	1199.5	128.228
287.21	1199.4	104.524
287.31	1199.3	93.4093
287.41	1199.2	103.103
287.51	1199.1	111.501
287.61	1199	132.784
287.71	1198.9	117.759
287.81	1198.8	137.17
287.91	1198.7	126.44
288.01	1198.6	98.5823
288.11	1198.5	115.199
288.21	1198.4	115.687
288.31	1198.3	107.175
288.41	1198.2	108.945
288.51	1198.1	120.202
288.61	1198	110.306
288.71	1197.9	112.781
288.81	1197.8	117.038
288.91	1197.7	103.154
289.01	1197.6	106.335
289.11	1197.5	110.438
289.21	1197.4	117.554
289.31	1197.3	112.645
289.41	1197.2	129.03
289.51	1197.1	123.492
289.61	1197	104.968
289.71	1196.9	94.6991
289.81	1196.8	115.52
289.91	1196.7	108.56
290.01	1196.6	119.522
290.11	1196.5	106.971
290.21	1196.4	124.523
290.31	1196.3	109.011
290.41	1196.2	92.0373
290.51	1196.1	99.9354
290.61	1196	104.205
290.71	1195.9	110.078
290.81	1195.8	131.117
290.91	1195.7	116.194
291.01	1195.6	106.977
291.11	1195.5	119.99
291.21	1195.4	118.324
291.31	1195.3	100.286
291.41	1195.2	106.748
291.51	1195.1	117.967
291.61	1195	91.39
291.71	1194.9	108.993
291.81	1194.8	119.352
291.91	1194.7	116.955
292.01	1194.6	124.853
292.11	1194.5	113.059
292.21	1194.4	134.559
292.31	1194.3	126.341
292.41	1194.2	126.008
292.51	1194.1	115.175
292.61	1194	128.611
292.71	1193.9	120.381
292.81	1193.8	106.97
292.91	1193.7	119.65
293.01	1193.6	109.676
293.11	1193.5	103.137
293.21	1193.4	120.022
293.31	1193.3	127.907
293.41	1193.2	122.548
293.51	1193.1	100.778
293.61	1193	101.33
293.71	1192.9	80.5602
293.81	1192.8	121.522
293.91	1192.7	141.483
294.01	1192.6	120.175
294.11	1192.5	109.944
294.21	1192.4	115.726
294.31	1192.3	115.149
294.41	1192.2	114.494
294.51	1192.1	107.084
294.61	1192	88.3397
294.71	1191.9	110.339
294.81	1191.8	104.685
294.91	1191.7	99.5049
295.01	1191.6	104.03
295.11	1191.5	104.183
295.21	1191.4	107.939
295.31	1191.3	127.028
295.41	1191.2	124.515
295.51	1191.1	122.475
295.61	1191	113.064
295.71	1190.9	89.4865
295.81	1190.8	94.6779
295.91	1190.7	105.651
296.01	1190.6	91.2658
296.11	1190.5	112.098
296.21	1190.4	108.469
296.31	1190.3	99.8139
296.41	1190.2	111.364
296.51	1190.1	124.799
296.61	1190	138.362
296.71	1189.9	112.245
296.81	1189.8	111.18
296.91	1189.7	120.704
297.01	1189.6	115.241
297.11	1189.5	109.445
297.21	1189.4	90.8405
297.31	1189.3	108.121
297.41	1189.2	121.196
297.51	1189.1	140.156
297.61	1189	127.398
297.71	1188.9	115.345
297.81	1188.8	137.882
297.91	1188.7	127.982
298.01	1188.6	127.852
298.11	1188.5	102.581
298.21	1188.4	125.951
298.31	1188.3	121.705
298.41	1188.2	119.242
298.51	1188.1	121.714
298.61	1188	118.763
298.71	1187.9	104.799
298.81	1187.8	96.0915
298.91	1187.7	100.384
299.01	1187.6	132.548
299.11	1187.5	113.161
299.21	1187.4	120.274
299.31	1187.3	119.194
299.41	1187.2	111.063
299.51	1187.1	143.599
299.61	1187	106.084
299.71	1186.9	138.106
299.81	1186.8	123.026
299.91	1186.7	128.754
300.01	1186.6	118.469
300.11	1186.5	102.876
300.21	1186.4	98.5655
300.31	1186.3	108.844
300.41	1186.2	115.226
300.51	1186.1	117.132
300.61	1186	124.629
300.71	1185.9	113.985
300.81	1185.8	110.814
300.91	1185.7	108.529
301.01	1185.6	126.769
301.11	1185.5	110.701
301.21	1185.4	130.287
301.31	1185.3	118.052
301.41	1185.2	134.433
301.51	1185.1	123.108
301.61	1185	97.1425
301.71	1184.9	109.356
301.81	1184.8	127.48
301.91	1184.7	125.002
302.01	1184.6	131.907
302.11	1184.5	135.159
302.21	1184.4	118.014
302.31	1184.3	144.996
302.41	1184.2	133.556
302.51	1184.1	111.41
302.61	1184	110.957
302.71	1183.9	118.977
302.81	1183.8	99.1519
302.91	1183.7	119.339
303.01	1183.6	120.719
303.11	1183.5	139.521
303.21	1183.4	113.439
303.31	1183.3	107.716
303.41	1183.2	97.1206
303.51	1183.1	105.128
303.61	1183	91.4941
303.71	1182.9	119.129
303.81	1182.8	94.2776
303.91	1182.7	118.874
304.01	1182.6	114.599
304.11	1182.5	102.068
304.21	1182.4	110.549
304.31	1182.3	120.376
304.41	1182.2	111.075
304.51	1182.1	118.863
304.61	1182	130.601
304.71	1181.9	125.12
304.81	1181.8	148.447
304.91	1181.7	121.825
305.01	1181.6	124.254
305.11	1181.5	130.401
305.21	1181.4	115.868
305.31	1181.3	101.874
305.41	1181.2	104.495
305.51	1181.1	109.68
305.61	1181	128.224
305.71	1180.9	103.999
305.81	1180.8	120.376
305.91	1180.7	117.125
306.01	1180.6	143.861
306.11	1180.5	136.084
306.21	1180.4	154.359
306.31	1180.3	131.876
306.41	1180.2	103.445
306.51	1180.1	102.937
306.61	1180	129.75
306.71	1179.9	106.921
306.81	1179.8	117.169
306.91	1179.7	130.058
307.01	1179.6	137.101
307.11	1179.5	117.233
307.21	1179.4	123.083
307.31	1179.3	155.459
307.41	1179.2	153.386
307.51	1179.1	142.044
307.61	1179	132.291
307.71	1178.9	140.077
307.81	1178.8	138.401
307.91	1178.7	124.584
308.01	1178.6	100.305
308.11	1178.5	123.616
308.21	1178.4	111.106
308.31	1178.3	119.724
308.41	1178.2	133.843
308.51	1178.1	120.717
308.61	1178	115.964
308.71	1177.9	124.479
308.81	1177.8	110.199
308.91	1177.7	112.125
309.01	1177.6	108.55
309.11	1177.5	130.296
309.21	1177.4	137.247
309.31	1177.3	148.544
309.41	1177.2	139.225
309.51	1177.1	111.176
309.61	1177	148.254
309.71	1176.9	116.089
309.81	1176.8	122.257
309.91	1176.7	130.72
310.01	1176.6	126.785
310.11	1176.5	132.748
310.21	1176.4	95.454
310.31	1176.3	121.314
310.41	1176.2	142.904
310.51	1176.1	116.367
310.61	1176	112.944
310.71	1175.9	115.727
310.81	1175.8	109.791
310.91	1175.7	107.201
311.01	1175.6	103.689
311.11	1175.5	122.304
311.21	1175.4	125.881
311.31	1175.3	124.317
311.41	1175.2	117.919
311.51	1175.1	108.611
311.61	1175	119.854
311.71	1174.9	119.468
311.81	1174.8	130.403
311.91	1174.7	142.928
312.01	1174.6	144.965
312.11	1174.5	117.669
312.21	1174.4	151.758
312.31	1174.3	143.128
312.41	1174.2	142.704
312.51	1174.1	145.099
312.61	1174	130.149
312.71	1173.9	150.929
312.81	1173.8	137.055
312.91	1173.7	141.912
313.01	1173.6	147.589
313.11	1173.5	119.382
313.21	1173.4	121.507
313.31	1173.3	136.082
313.41	1173.2	135.745
313.51	1173.1	139.743
313.61	1173	150.381
313.71	1172.9	158.506
313.81	1172.8	159.503
313.91	1172.7	126.32
314.01	1172.6	148.15
314.11	1172.5	155.787
314.21	1172.4	147.232
314.31	1172.3	130.434
314.41	1172.2	146.366
314.51	1172.1	141.682
314.61	1172	147.05
314.71	1171.9	141.456
314.81	1171.8	120.298
314.91	1171.7	132.704
315.01	1171.6	131.277
315.11	1171.5	130.183
315.21	1171.4	115.999
315.31	1171.3	104.802
315.41	1171.2	131.694
315.51	1171.1	149.959
315.61	1171	146.697
315.71	1170.9	138.103
315.81	1170.8	145.187
315.91	1170.7	131.246
316.01	1170.6	116.472
316.11	1170.5	126.095
316.21	1170.4	131.858
316.31	1170.3	104.173
316.41	1170.2	125.296
316.51	1170.1	131.611
316.61	1170	146.323
316.71	1169.9	128.369
316.81	1169.8	143.76
316.91	1169.7	156.536
317.01	1169.6	140.082
317.11	1169.5	124.524
317.21	1169.4	143.762
317.31	1169.3	124.653
317.41	1169.2	103.98
317.51	1169.1	145.371
317.61	1169	131.839
317.71	1168.9	154.32
317.81	1168.8	139.096
317.91	1168.7	138.512
318.01	1168.6	164.762
318.11	1168.5	120.217
318.21	1168.4	129.005
318.31	1168.3	128.345
318.41	1168.2	147.018
318.51	1168.1	118.447
318.61	1168	128.145
318.71	1167.9	131.395
318.81	1167.8	150.336
318.91	1167.7	140.124
319.01	1167.6	125.835
319.11	1167.5	119.02
319.21	1167.4	138.77
319.31	1167.3	130.545
319.41	1167.2	117.666
319.51	1167.1	115.953
319.61	1167	161.549
319.71	1166.9	127.106
319.81	1166.8	151.945
319.91	1166.7	148.117
320.01	1166.6	142.058
320.11	1166.5	143.615
320.21	1166.4	141.992
320.31	1166.3	147.434
320.41	1166.2	128.888
320.51	1166.1	125.278
320.61	1166	151.142
320.71	1165.9	159.968
320.81	1165.8	152.473
320.91	1165.7	158.338
321.01	1165.6	156.458
321.11	1165.5	128.271
321.21	1165.4	127.841
321.31	1165.3	134.102
321.41	1165.2	120.12
321.51	1165.1	129.703
321.61	1165	139.67
321.71	1164.9	135.072
321.81	1164.8	120.488
321.91	1164.7	143.314
322.01	1164.6	135.909
322.11	1164.5	150.734
322.21	1164.4	150.176
322.31	1164.3	137.899
322.41	1164.2	165.443
322.51	1164.1	169.486
322.61	1164	141.479
322.71	1163.9	130.856
322.81	1163.8	156.682
322.91	1163.7	157.597
323.01	1163.6	138.282
323.11	1163.5	153.942
323.21	1163.4	128.844
323.31	1163.3	113.991
323.41	1163.2	129.214
323.51	1163.1	148.745
323.61	1163	160.456
323.71	1162.9	131.923
323.81	1162.8	136.211
323.91	1162.7	154.729
324.01	1162.6	152.683
324.11	1162.5	142.381
324.21	1162.4	139.015
324.31	1162.3	142.252
324.41	1162.2	147.296
324.51	1162.1	144.584
324.61	1162	147
324.71	1161.9	143.236
324.81	1161.8	140.973
324.91	1161.7	150.017
325.01	1161.6	132.562
325.11	1161.5	134.427
325.21	1161.4	133.817
325.31	1161.3	126.272
325.41	1161.2	155.496
325.51	1161.1	159.579
325.61	1161	136.752
325.71	1160.9	152.541
325.81	1160.8	174.316
325.91	1160.7	165.028
326.01	1160.6	155.637
326.11	1160.5	155.592
326.21	1160.4	137.752
326.31	1160.3	164.823
326.41	1160.2	143.061
326.51	1160.1	140.093
326.61	1160	171.972
326.71	1159.9	154.632
326.81	1159.8	154.973
326.91	1159.7	149.877
327.01	1159.6	156.576
327.11	1159.5	151.481
327.21	1159.4	152.065
327.31	1159.3	174.329
327.41	1159.2	164.695
327.51	1159.1	155.754
327.61	1159	158.954
327.71	1158.9	155.718
327.81	1158.8	169.033
327.91	1158.7	150.067
328.01	1158.6	153.613
328.11	1158.5	151.236
328.21	1158.4	153.693
328.31	1158.3	146.483
328.41	1158.2	150.543
328.51	1158.1	138.218
328.61	1158	147.842
328.71	1157.9	143.812
328.81	1157.8	155.743
328.91	1157.7	168.803
329.01	1157.6	150.043
329.11	1157.5	145.769
329.21	1157.4	158.83
329.31	1157.3	146.608
329.41	1157.2	151.617
329.51	1157.1	133.434
329.61	1157	164.2
329.71	1156.9	176.389
329.81	1156.8	151.873
329.91	1156.7	175.536
330.01	1156.6	154.187
330.11	1156.5	144.479
330.21	1156.4	141.54
330.31	1156.3	137.525
330.41	1156.2	146.548
330.51	1156.1	161.289
330.61	1156	151.928
330.71	1155.9	125.926
330.81	1155.8	127.398
330.91	1155.7	147.922
331.01	1155.6	158.83
331.11	1155.5	149.61
331.21	1155.4	143.263
331.31	1155.3	152.825
331.41	1155.2	173.721
331.51	1155.1	154.412
331.61	1155	139.706
331.71	1154.9	143.551
331.81	1154.8	146.769
331.91	1154.7	156.114
332.01	1154.6	174.319
332.11	1154.5	146.536
332.21	1154.4	171.754
332.31	1154.3	162.882
332.41	1154.2	167.818
332.51	1154.1	156.844
332.61	1154	168.767
332.71	1153.9	155.127
332.81	1153.8	177.986
332.91	1153.7	162.436
333.01	1153.6	162.296
333.11	1153.5	160.168
333.21	1153.4	153.041
333.31	1153.3	191.363
333.41	1153.2	193.993
333.51	1153.1	156.418
333.61	1153	190.548
333.71	1152.9	187.293
333.81	1152.8	171.783
333.91	1152.7	168.503
334.01	1152.6	165.313
334.11	1152.5	166.303
334.21	1152.4	169.973
334.31	1152.3	158.617
334.41	1152.2	168.556
334.51	1152.1	146.354
334.61	1152	158.101
334.71	1151.9	191.182
334.81	1151.8	175.647
334.91	1151.7	176.036
335.01	1151.6	173.86
335.11	1151.5	166.608
335.21	1151.4	150.549
335.31	1151.3	156.553
335.41	1151.2	165.687
335.51	1151.1	151.102
335.61	1151	140.389
335.71	1150.9	170.215
335.81	1150.8	169.426
335.91	1150.7	156.919
336.01	1150.6	161.477
336.11	1150.5	138.316
336.21	1150.4	130.938
336.31	1150.3	156.201
336.41	1150.2	141.874
336.51	1150.1	158.599
336.61	1150	151.171
336.71	1149.9	149.601
336.81	1149.8	158.711
336.91	1149.7	171.463
337.01	1149.6	143.42
337.11	1149.5	155.864
337.21	1149.4	166.924
337.31	1149.3	159.266
337.41	1149.2	170.774
337.51	1149.1	172.514
337.61	1149	168.152
337.71	1148.9	144.52
337.81	1148.8	139.543
337.91	1148.7	156.194
338.01	1148.6	150.512
338.11	1148.5	153.061
338.21	1148.4	167.763
338.31	1148.3	164.697
338.41	1148.2	165.362
338.51	1148.1	172.476
338.61	1148	152.257
338.71	1147.9	157.115
338.81	1147.8	159.562
338.91	1147.7	127.421
339.01	1147.6	154.395
339.11	1147.5	175.882
339.21	1147.4	179.638
339.31	1147.3	188.036
339.41	1147.2	168.998
339.51	1147.1	182.627
339.61	1147	180.435
339.71	1146.9	188.718
339.81	1146.8	181.425
339.91	1146.7	168.772
340.01	1146.6	159.889
340.11	1146.5	189.763
340.21	1146.4	174.073
340.31	1146.3	164.639
340.41	1146.2	183.604
340.51	1146.1	173.952
340.61	1146	165.943
340.71	1145.9	179.907
340.81	1145.8	158.808
340.91	1145.7	174.055
341.01	1145.6	178.021
341.11	1145.5	185.884
341.21	1145.4	200.811
341.31	1145.3	185.841
341.41	1145.2	161.987
341.51	1145.1	190.004
341.61	1145	190.445
341.71	1144.9	140.63
341.81	1144.8	161.995
341.91	1144.7	193.821
342.01	1144.6	194.801
342.11	1144.5	195.435
342.21	1144.4	193.993
342.31	1144.3	172.833
342.41	1144.2	198.839
342.51	1144.1	175.654
342.61	1144	184.622
342.71	1143.9	227.809
342.81	1143.8	205.483
342.91	1143.7	211.055
343.01	1143.6	192.999
343.11	1143.5	190.045
343.21	1143.4	181.399
343.31	1143.3	200.869
343.41	1143.2	192.455
343.51	1143.1	213.771
343.61	1143	220.306
343.71	1142.9	189.264
343.81	1142.8	165.312
343.91	1142.7	177.436
344.01	1142.6	158.074
344.11	1142.5	168.007
344.21	1142.4	214.556
344.31	1142.3	196.079
344.41	1142.2	182.538
344.51	1142.1	198.254
344.61	1142	202.201
344.71	1141.9	184.263
344.81	1141.8	189.685
344.91	1141.7	202.837
345.01	1141.6	212.297
345.11	1141.5	198.386
345.21	1141.4	224.372
345.31	1141.3	212.307
345.41	1141.2	185.704
345.51	1141.1	206.986
345.61	1141	228.281
345.71	1140.9	208.332
345.81	1140.8	201.537
345.91	1140.7	189.243
346.01	1140.6	204.435
346.11	1140.5	206.193
346.21	1140.4	228.565
346.31	1140.3	201.784
346.41	1140.2	221.029
346.51	1140.1	212.03
346.61	1140	214.327
346.71	1139.9	209.79
346.81	1139.8	189.51
346.91	1139.7	191.948
347.01	1139.6	207.283
347.11	1139.5	199.029
347.21	1139.4	198.929
347.31	1139.3	173.74
347.41	1139.2	181.294
347.51	1139.1	190.682
347.61	1139	193.403
347.71	1138.9	189.816
347.81	1138.8	197.923
347.91	1138.7	203.324
348.01	1138.6	186.751
348.11	1138.5	169.396
348.21	1138.4	165.823
348.31	1138.3	182.007
348.41	1138.2	178.934
348.51	1138.1	190.593
348.61	1138	191.175
348.71	1137.9	171.18
348.81	1137.8	166.236
348.91	1137.7	146.357
349.01	1137.6	168.798
349.11	1137.5	167.624
349.21	1137.4	142.63
349.31	1137.3	155.264
349.41	1137.2	183.68
349.51	1137.1	171.994
349.61	1137	169.911
349.71	1136.9	177.751
349.81	1136.8	160.475
349.91	1136.7	161.162
350.01	1136.6	142.297
350.11	1136.5	183.086
350.21	1136.4	174.991
350.31	1136.3	168.152
350.41	1136.2	172.608
350.51	1136.1	155.283
350.61	1136	159.47
350.71	1135.9	170.055
350.81	1135.8	187.255
350.91	1135.7	196.341
351.01	1135.6	184.439
351.11	1135.5	165.999
351.21	1135.4	162.956
351.31	1135.3	172.016
351.41	1135.2	165.089
351.51	1135.1	165.97
351.61	1135	155.8
351.71	1134.9	164.091
351.81	1134.8	172.716
351.91	1134.7	162.277
352.01	1134.6	161.031
352.11	1134.5	171.515
352.21	1134.4	133.282
352.31	1134.3	160.933
352.41	1134.2	149.956
352.51	1134.1	170.172
352.61	1134	186.913
352.71	1133.9	175.629
352.81	1133.8	169.781
352.91	1133.7	187.702
353.01	1133.6	197.982
353.11	1133.5	180.34
353.21	1133.4	166.479
353.31	1133.3	169.824
353.41	1133.2	174.528
353.51	1133.1	174.283
353.61	1133	157.898
353.71	1132.9	177.525
353.81	1132.8	203.089
353.91	1132.7	192.46
354.01	1132.6	179.78
354.11	1132.5	150.1
354.21	1132.4	138.408
354.31	1132.3	155.78
354.41	1132.2	164.203
354.51	1132.1	160.793
354.61	1132	163.485
354.71	1131.9	161.78
354.81	1131.8	181.73
354.91	1131.7	124.077
355.01	1131.6	169.68
355.11	1131.5	164.065
355.21	1131.4	163.323
355.31	1131.3	158.003
355.41	1131.2	167.325
355.51	1131.1	168.288
355.61	1131	144.52
355.71	1130.9	158.753
355.81	1130.8	163.575
355.91	1130.7	169.461
356.01	1130.6	145.027
356.11	1130.5	156.76
356.21	1130.4	157.057
356.31	1130.3	148.508
356.41	1130.2	150.779
356.51	1130.1	152.731
356.61	1130	126.566
356.71	1129.9	139.736
356.81	1129.8	177.777
356.91	1129.7	155.139
357.01	1129.6	148.206
357.11	1129.5	143.004
357.21	1129.4	131.366
357.31	1129.3	140.587
357.41	1129.2	155.437
357.51	1129.1	131.709
357.61	1129	143.226
357.71	1128.9	144.293
357.81	1128.8	124.81
357.91	1128.7	118.981
358.01	1128.6	138.369
358.11	1128.5	117.437
358.21	1128.4	107.89
358.31	1128.3	133.946
358.41	1128.2	131.617
358.51	1128.1	152.865
358.61	1128	137.126
358.71	1127.9	139.156
358.81	1127.8	148.225
358.91	1127.7	136.05
359.01	1127.6	127.991
359.11	1127.5	127.906
359.21	1127.4	104.373
359.31	1127.3	113.519
359.41	1127.2	139.255
359.51	1127.1	145.145
359.61	1127	123.996
359.71	1126.9	127.425
359.81	1126.8	131.328
359.91	1126.7	121.385
360.01	1126.6	127.634
360.11	1126.5	137.82
360.21	1126.4	126.736
360.31	1126.3	129.562
360.41	1126.2	168.261
360.51	1126.1	131.229
360.61	1126	98.7477
360.71	1125.9	115.626
360.81	1125.8	123.017
360.91	1125.7	139.087
361.01	1125.6	127.991
361.11	1125.5	117.857
361.21	1125.4	128.941
361.31	1125.3	123.589
361.41	1125.2	141.044
361.51	1125.1	117.808
361.61	1125	119.815
361.71	1124.9	132.758
361.81	1124.8	135.611
361.91	1124.7	149.118
362.01	1124.6	145.279
362.11	1124.5	126.082
362.21	1124.4	140.948
362.31	1124.3	159.661
362.41	1124.2	179.348
362.51	1124.1	194.804
362.61	1124	205.632
362.71	1123.9	208.05
362.81	1123.8	209.276
362.91	1123.7	213.669
363.01	1123.6	186.895
363.11	1123.5	168.108
363.21	1123.4	174.565
363.31	1123.3	191.24
363.41	1123.2	158.338
363.51	1123.1	171
363.61	1123	198.611
363.71	1122.9	204.016
363.81	1122.8	221.243
363.91	1122.7	237.764
364.01	1122.6	248.158
364.11	1122.5	239.23
364.21	1122.4	221.188
364.31	1122.3	257.696
364.41	1122.2	227.449
364.51	1122.1	235.099
364.61	1122	234.12
364.71	1121.9	198.488
364.81	1121.8	195.433
364.91	1121.7	177.006
365.01	1121.6	183.143
365.11	1121.5	179.191
365.21	1121.4	182.187
365.31	1121.3	214.645
365.41	1121.2	210.859
365.51	1121.1	220.688
365.61	1121	248.133
365.71	1120.9	238.924
365.81	1120.8	263.176
365.91	1120.7	268.031
366.01	1120.6	259.989
366.11	1120.5	283.652
366.21	1120.4	255.096
366.31	1120.3	273.58
366.41	1120.2	259.678
366.51	1120.1	248.674
366.61	1120	281.772
366.71	1119.9	276.524
366.81	1119.8	256.725
366.91	1119.7	281.618
367.01	1119.6	278.883
367.11	1119.5	270.519
367.21	1119.4	264.156
367.31	1119.3	231.779
367.41	1119.2	230.377
367.51	1119.1	238.795
367.61	1119	276.547
367.71	1118.9	263.208
367.81	1118.8	251.729
367.91	1118.7	239.198
368.01	1118.6	245.474
368.11	1118.5	253.264
368.21	1118.4	273.373
368.31	1118.3	232.085
368.41	1118.2	227.221
368.51	1118.1	192.83
368.61	1118	181.285
368.71	1117.9	199.663
368.81	1117.8	183.362
368.91	1117.7	174.586
369.01	1117.6	175.297
369.11	1117.5	175.957
369.21	1117.4	156.27
369.31	1117.3	151.25
369.41	1117.2	110.858
369.51	1117.1	106.21
369.61	1117	114.253
369.71	1116.9	126.36
369.81	1116.8	119.326
369.91	1116.7	104.69
370.01	1116.6	133.95
370.11	1116.5	144.634
370.21	1116.4	159.958
370.31	1116.3	170.513
370.41	1116.2	156.657
370.51	1116.1	167.391
370.61	1116	188.151
370.71	1115.9	172.833
370.81	1115.8	160.412
370.91	1115.7	127.427
371.01	1115.6	139.467
371.11	1115.5	101.982
371.21	1115.4	120.265
371.31	1115.3	98.9204
371.41	1115.2	130.152
371.51	1115.1	117.114
371.61	1115	97.2942
371.71	1114.9	98.5379
371.81	1114.8	120.73
371.91	1114.7	111.473
372.01	1114.6	68.8698
372.11	1114.5	91.1124
372.21	1114.4	102.957
372.31	1114.3	116.866
372.41	1114.2	111.582
372.51	1114.1	130.144
372.61	1114	116.744
372.71	1113.9	125.023
372.81	1113.8	104.494
372.91	1113.7	88.7341
373.01	1113.6	98.6148
373.11	1113.5	83.1106
373.21	1113.4	67.0933
373.31	1113.3	90.2166
373.41	1113.2	128.25
373.51	1113.1	124.219
373.61	1113	116.61
373.71	1112.9	91.0397
373.81	1112.8	60.9048
373.91	1112.7	92.526
374.01	1112.6	91.134
374.11	1112.5	107.665
374.21	1112.4	104.541
374.31	1112.3	121.058
374.41	1112.2	102.793
374.51	1112.1	84.1296
374.61	1112	82.4019
374.71	1111.9	88.9943
374.81	1111.8	105.125
374.91	1111.7	124.268
375.01	1111.6	118.449
375.11	1111.5	77.9624
375.21	1111.4	97.1681
375.31	1111.3	102.296
375.41	1111.2	81.309
375.51	1111.1	109.475
375.61	1111	117.935
375.71	1110.9	108.075
375.81	1110.8	87.4829
375.91	1110.7	113.686
376.01	1110.6	101.08
376.11	1110.5	98.5124
376.21	1110.4	88.9572
376.31	1110.3	115.235
376.41	1110.2	83.4736
376.51	1110.1	94.5451
376.61	1110	92.8983
376.71	1109.9	103.238
376.81	1109.8	74.8082
376.91	1109.7	80.3137
377.01	1109.6	64.8956
377.11	1109.5	96.0924
377.21	1109.4	100.801
377.31	1109.3	115.843
377.41	1109.2	100.718
377.51	1109.1	93.7076
377.61	1109	69.1582
377.71	1108.9	94.7878
377.81	1108.8	98.1091
377.91	1108.7	78.5452
378.01	1108.6	89.3013
378.11	1108.5	82.9672
378.21	1108.4	63.2094
378.31	1108.3	78.8484
378.41	1108.2	124.589
378.51	1108.1	113.958
378.61	1108	111.66
378.71	1107.9	89.8349
378.81	1107.8	85.5095
378.91	1107.7	85.4144
379.01	1107.6	87.9212
379.11	1107.5	56.453
379.21	1107.4	86.1766
379.31	1107.3	70.6944
379.41	1107.2	53.2245
379.51	1107.1	56.4975
379.61	1107	85.2571
379.71	1106.9	55.0417
379.81	1106.8	71.2359
379.91	1106.7	73.3141
380.01	1106.6	76.3405
380.11	1106.5	76.161
380.21	1106.4	66.904
380.31	1106.3	81.0694
380.41	1106.2	61.6828
380.51	1106.1	59.1803
380.61	1106	67.1642
380.71	1105.9	61.0193
380.81	1105.8	51.6814
380.91	1105.7	42.6377
381.01	1105.6	56.4395
381.11	1105.5	36.0226
381.21	1105.4	62.9641
381.31	1105.3	48.751
381.41	1105.2	28.5243
381.51	1105.1	73.0534
381.61	1105	71.9536
381.71	1104.9	36.43
381.81	1104.8	53.7775
381.91	1104.7	59.6115
382.01	1104.6	46.137
382.11	1104.5	53.2259
382.21	1104.4	33.2885
382.31	1104.3	43.1067
382.41	1104.2	53.937
382.51	1104.1	74.3947
382.61	1104	82.121
382.71	1103.9	58.6414
382.81	1103.8	62.5456
382.91	1103.7	48.9106
383.01	1103.6	40.5184
383.11	1103.5	57.087
383.21	1103.4	83.9626
383.31	1103.3	39.3758
383.41	1103.2	88.7497
383.51	1103.1	81.7768
383.61	1103	55.8671
383.71	1102.9	74.3413
383.81	1102.8	82.6992
383.91	1102.7	91.3898
384.01	1102.6	54.2205
384.11	1102.5	54.2555
384.21	1102.4	37.0205
384.31	1102.3	67.1565
384.41	1102.2	46.2532
384.51	1102.1	58.9388
384.61	1102	52.6748
384.71	1101.9	62.3716
384.81	1101.8	50.2983
384.91	1101.7	80.5574
385.01	1101.6	64.8414
385.11	1101.5	76.2655
385.21	1101.4	44.6759
385.31	1101.3	62.7907
385.41	1101.2	69.4814
385.51	1101.1	49.6072
385.61	1101	101.476
385.71	1100.9	74.9587
385.81	1100.8	72.1973
385.91	1100.7	66.4093
386.01	1100.6	81.9024
386.11	1100.5	65.5229
386.21	1100.4	62.0399
386.31	1100.3	78.4149
386.41	1100.2	64.2635
386.51	1100.1	84.8162
386.61	1100	95.0475
386.71	1099.9	58.7138
386.81	1099.8	92.3663
386.91	1099.7	76.7871
387.01	1099.6	64.1685
387.11	1099.5	76.6003
387.21	1099.4	74.8901
387.31	1099.3	84.0251
387.41	1099.2	89.7232
387.51	1099.1	76.6896
387.61	1099	96.9628
387.71	1098.9	114.966
387.81	1098.8	121.468
387.91	1098.7	90.9815
388.01	1098.6	107.917
388.11	1098.5	117.724
388.21	1098.4	102.03
388.31	1098.3	95.1679
388.41	1098.2	141.382
388.51	1098.1	115.185
388.61	1098	115.192
388.71	1097.9	105.672
388.81	1097.8	119.305
388.91	1097.7	94.4753
389.01	1097.6	136.85
389.11	1097.5	142.416
389.21	1097.4	127.032
389.31	1097.3	123.775
389.41	1097.2	140.851
389.51	1097.1	132.874
389.61	1097	146.268
389.71	1096.9	112.943
389.81	1096.8	128.796
389.91	1096.7	134.918
390.01	1096.6	141.193
390.11	1096.5	143.633
390.21	1096.4	96.3409
390.31	1096.3	103.869
390.41	1096.2	123.96
390.51	1096.1	116.383
390.61	1096	113.19
390.71	1095.9	111.803
390.81	1095.8	121.249
390.91	1095.7	108.001
391.01	1095.6	93.5863
391.11	1095.5	97.2343
391.21	1095.4	92.7659
391.31	1095.3	93.3478
391.41	1095.2	108.224
391.51	1095.1	100.881
391.61	1095	89.0877
391.71	1094.9	74.076
391.81	1094.8	94.7428
391.91	1094.7	87.5241
392.01	1094.6	79.6633
392.11	1094.5	86.9555
392.21	1094.4	86.0288
392.31	1094.3	80.3319
392.41	1094.2	54.1597
392.51	1094.1	68.6789
392.61	1094	73.2228
392.71	1093.9	53.894
392.81	1093.8	68.4617
392.91	1093.7	56.5413
393.01	1093.6	64.3123
393.11	1093.5	50.467
393.21	1093.4	30.5055
393.31	1093.3	47.5045
393.41	1093.2	51.2591
393.51	1093.1	57.1282
393.61	1093	56.7272
393.71	1092.9	58.3894
393.81	1092.8	49.3584
393.91	1092.7	56.5957
394.01	1092.6	59.9476
394.11	1092.5	59.1191
394.21	1092.4	42.2898
394.31	1092.3	6.89548
394.41	1092.2	29.6798
394.51	1092.1	25.7838
394.61	1092	35.3229
394.71	1091.9	15.4636
394.81	1091.8	44.1421
394.91	1091.7	31.1401
395.01	1091.6	41.4066
395.11	1091.5	41.3133
395.21	1091.4	28.5269
395.31	1091.3	17.9063
395.41	1091.2	6.10539
395.51	1091.1	30.2652
395.61	1091	-1.8065
395.71	1090.9	11.5825
395.81	1090.8	30.1117
395.91	1090.7	14.3069
396.01	1090.6	13.6038
396.11	1090.5	38.6819
396.21	1090.4	21.6183
396.31	1090.3	29.7205
396.41	1090.2	32.822
396.51	1090.1	-0.269613
396.61	1090	12.8688
396.71	1089.9	16.4167
396.81	1089.8	11.7459
396.91	1089.7	0.971791
397.01	1089.6	-0.495375
397.11	1089.5	26.3316
397.21	1089.4	13.3117
397.31	1089.3	1.86792
397.41	1089.2	-0.320137
397.51	1089.1	14.3757
397.61	1089	-13.2369
397.71	1088.9	-13.0553
397.81	1088.8	1.15118
397.91	1088.7	4.63902
398.01	1088.6	-19.22
398.11	1088.5	1.95875
398.21	1088.4	30.4573
398.31	1088.3	27.1859
398.41	1088.2	35.2472
398.51	1088.1	20.154
398.61	1088	3.54721
398.71	1087.9	-4.41919
398.81	1087.8	11.165
398.91	1087.7	2.47932
399.01	1087.6	22.293
399.11	1087.5	27.4136
399.21	1087.4	11.7644
399.31	1087.3	17.0633
399.41	1087.2	-17.9462
399.51	1087.1	-24.0845
399.61	1087	-17.0312
399.71	1086.9	-1.13235
399.81	1086.8	1.48382
399.91	1086.7	-23.4135
400.01	1086.6	-17.337
400.11	1086.5	-14.0689
400.21	1086.4	-8.41671
400.31	1086.3	-23.5472
400.41	1086.2	-12.9604
400.51	1086.1	11.6386
400.61	1086	10.2371
400.71	1085.9	12.3606
400.81	1085.8	26.7271
400.91	1085.7	5.54169
401.01	1085.6	-17.8622
401.11	1085.5	13.2974
401.21	1085.4	-2.95382
401.31	1085.3	-18.1287
401.41	1085.2	-4.39385
401.51	1085.1	1.53272
401.61	1085	-27.2464
401.71	1084.9	-9.06452
401.81	1084.8	2.25784
401.91	1084.7	23.7848
402.01	1084.6	23.0035
402.11	1084.5	-25.1886
402.21	1084.4	-8.25305
402.31	1084.3	-14.2154
402.41	1084.2	7.43704
402.51	1084.1	-13.629
402.61	1084	-40.6826
402.71	1083.9	-13.4933
402.81	1083.8	0.221256
402.91	1083.7	-9.28268
403.01	1083.6	-21.0563
403.11	1083.5	3.05411
403.21	1083.4	-6.6308
403.31	1083.3	6.20944
403.41	1083.2	-14.5149
403.51	1083.1	-6.11152
403.61	1083	-6.63169
403.71	1082.9	-5.48567
403.81	1082.8	-5.13499
403.91	1082.7	-26.6309
404.01	1082.6	-27.3837
404.11	1082.5	8.31174
404.21	1082.4	-14.1599
404.31	1082.3	-13.3371
404.41	1082.2	3.95954
404.51	1082.1	-13.6288
404.61	1082	13.5516
404.71	1081.9	-24.8325
404.81	1081.8	-8.80679
404.91	1081.7	-52.6661
405.01	1081.6	-32.1028
405.11	1081.5	-25.1552
405.21	1081.4	9.81757
405.31	1081.3	18.9438
405.41	1081.2	-0.558608
405.51	1081.1	-6.70242
405.61	1081	-1.84663
405.71	1080.9	-7.70917
405.81	1080.8	-17.4054
405.91	1080.7	-1.64054
406.01	1080.6	-40.9145
406.11	1080.5	-6.61188
406.21	1080.4	-14.8353
406.31	1080.3	-36.277
406.41	1080.2	-8.57806
406.51	1080.1	6.73591
406.61	1080	-1.32226
406.71	1079.9	-18.5859
406.81	1079.8	-20.8755
406.91	1079.7	-16.4732
407.01	1079.6	-35.2635
407.11	1079.5	17.5484
407.21	1079.4	16.0779
407.31	1079.3	-25.0723
407.41	1079.2	-9.69729
407.51	1079.1	16.0621
407.61	1079	7.43648
407.71	1078.9	-12.5356
407.81	1078.8	-21.2515
407.91	1078.7	-32.6985
408.01	1078.6	-1.70988
408.11	1078.5	-5.93952
408.21	1078.4	-10.7079
408.31	1078.3	-14.4509
408.41	1078.2	-32.0404
408.51	1078.1	2.62628
408.61	1078	5.36961
408.71	1077.9	-16.9002
408.81	1077.8	3.40675
408.91	1077.7	3.77749
409.01	1077.6	-6.35201
409.11	1077.5	2.85156
409.21	1077.4	-9.93229
409.31	1077.3	-2.93433
409.41	1077.2	-18.3084
409.51	1077.1	-37.0417
409.61	1077	-13.647
409.71	1076.9	-33.291
409.81	1076.8	-8.56341
409.91	1076.7	-26.6309
410.01	1076.6	11.3783
410.11	1076.5	22.9001
410.21	1076.4	7.43452
410.31	1076.3	8.59695
410.41	1076.2	-3.22799
410.51	1076.1	-4.43775
410.61	1076	-10.6349
410.71	1075.9	30.1037
410.81	1075.8	-1.76043
410.91	1075.7	-34.4324
411.01	1075.6	8.30561
411.11	1075.5	10.364
411.21	1075.4	10.2043
411.31	1075.3	16.6086
411.41	1075.2	1.53828
411.51	1075.1	22.3268
411.61	1075	-46.654
411.71	1074.9	-18.8145
411.81	1074.8	5.12749
411.91	1074.7	-2.19992
412.01	1074.6	16.4469
412.11	1074.5	24.4654
412.21	1074.4	20.9197
412.31	1074.3	9.70714
412.41	1074.2	-24.5568
412.51	1074.1	15.41
412.61	1074	21.0945
412.71	1073.9	-17.2082
412.81	1073.8	-3.99813
412.91	1073.7	-9.27538
413.01	1073.6	-2.48861
413.11	1073.5	-35.4199
413.21	1073.4	-36.5051
413.31	1073.3	-7.75703
413.41	1073.2	2.02941
413.51	1073.1	2.7004
413.61	1073	-10.2569
413.71	1072.9	-14.3424
413.81	1072.8	-4.69727
413.91	1072.7	-13.847
414.01	1072.6	1.74674
414.11	1072.5	-8.48004
414.21	1072.4	12.2803
414.31	1072.3	3.97654
414.41	1072.2	-16.6606
414.51	1072.1	16.6766
414.61	1072	-1.8837
414.71	1071.9	10.6714
414.81	1071.8	-0.119699
414.91	1071.7	-14.2954
415.01	1071.6	-2.54805
415.11	1071.5	3.94289
415.21	1071.4	0
415.31	1071.3	0
415.41	1071.2	0
415.51	1071.1	0
415.61	1071	0
415.71	1070.9	0
415.81	1070.8	0
415.91	1070.7	0
416.01	1070.6	0
416.11	1070.5	0
416.21	1070.4	0
416.31	1070.3	0
416.41	1070.2	0
416.51	1070.1	0
416.61	1070	0