c:\users\mark\owncloud\muelheim group\projects\gas phase background\ex340_cec356_cu n2 largearea.vms
Pr:Cu2s
	Characteristic Energy eV	1486.61	Acquisition Time s	4
KE_Pr:Cu2s	BE_Pr:Cu2s	CPS_Pr:Cu2s
286.61	1200	537.683
286.71	1199.9	525.035
286.81	1199.8	538.712
286.91	1199.7	574.69
287.01	1199.6	605.867
287.11	1199.5	522.844
287.21	1199.4	594.046
287.31	1199.3	546.973
287.41	1199.2	548.775
287.51	1199.1	482.802
287.61	1199	526.679
287.71	1198.9	478.706
287.81	1198.8	522.183
287.91	1198.7	555.335
288.01	1198.6	589.736
288.11	1198.5	533.188
288.21	1198.4	455.165
288.31	1198.3	494.517
288.41	1198.2	551.243
288.51	1198.1	488.695
288.61	1198	515.821
288.71	1197.9	598.823
288.81	1197.8	571.024
288.91	1197.7	587.55
289.01	1197.6	507.277
289.11	1197.5	570.278
289.21	1197.4	589.904
289.31	1197.3	546.28
289.41	1197.2	513.78
289.51	1197.1	559.706
289.61	1197	519.182
289.71	1196.9	565.357
289.81	1196.8	628.558
289.91	1196.7	606.408
290.01	1196.6	596.933
290.11	1196.5	553.209
290.21	1196.4	626.184
290.31	1196.3	565.483
290.41	1196.2	555.358
290.51	1196.1	599.158
290.61	1196	627.607
290.71	1195.9	534.807
290.81	1195.8	517.681
290.91	1195.7	491.83
291.01	1195.6	500.729
291.11	1195.5	517.153
291.21	1195.4	583.876
291.31	1195.3	498.075
291.41	1195.2	537.248
291.51	1195.1	506.296
291.61	1195	570.019
291.71	1194.9	603.942
291.81	1194.8	541.465
291.91	1194.7	543.962
292.01	1194.6	516.384
292.11	1194.5	522.382
292.21	1194.4	536.403
292.31	1194.3	539
292.41	1194.2	531.797
292.51	1194.1	542.593
292.61	1194	560.614
292.71	1193.9	617.46
292.81	1193.8	531.681
292.91	1193.7	600.851
293.01	1193.6	563.447
293.11	1193.5	561.817
293.21	1193.4	596.937
293.31	1193.3	598.056
293.41	1193.2	595.601
293.51	1193.1	610.32
293.61	1193	602.239
293.71	1192.9	588.733
293.81	1192.8	642.151
293.91	1192.7	670.644
294.01	1192.6	632.387
294.11	1192.5	577.005
294.21	1192.4	522.473
294.31	1192.3	568.165
294.41	1192.2	543.607
294.51	1192.1	630.749
294.61	1192	623.065
294.71	1191.9	672.056
294.81	1191.8	618.672
294.91	1191.7	570.038
295.01	1191.6	527.678
295.11	1191.5	585.293
295.21	1191.4	581.233
295.31	1191.3	545.072
295.41	1191.2	558.962
295.51	1191.1	701.851
295.61	1191	643.739
295.71	1190.9	549.927
295.81	1190.8	558.79
295.91	1190.7	588.353
296.01	1190.6	557.715
296.11	1190.5	624.377
296.21	1190.4	641.639
296.31	1190.3	586.876
296.41	1190.2	523.037
296.51	1190.1	513.547
296.61	1190	558.433
296.71	1189.9	657.018
296.81	1189.8	692.252
296.91	1189.7	682.937
297.01	1189.6	570.046
297.11	1189.5	554.205
297.21	1189.4	573.913
297.31	1189.3	583.546
297.41	1189.2	556.328
297.51	1189.1	658.136
297.61	1189	621.017
297.71	1188.9	566.924
297.81	1188.8	595.805
297.91	1188.7	616.511
298.01	1188.6	657.741
298.11	1188.5	631.596
298.21	1188.4	613.376
298.31	1188.3	556.055
298.41	1188.2	648.909
298.51	1188.1	624.137
298.61	1188	645.815
298.71	1187.9	605.568
298.81	1187.8	649.97
298.91	1187.7	525.472
299.01	1187.6	613.123
299.11	1187.5	688.249
299.21	1187.4	568.299
299.31	1187.3	567.624
299.41	1187.2	609.399
299.51	1187.1	619.823
299.61	1187	655.822
299.71	1186.9	574.495
299.81	1186.8	562.118
299.91	1186.7	589.016
300.01	1186.6	538.413
300.11	1186.5	572.859
300.21	1186.4	635.255
300.31	1186.3	605.951
300.41	1186.2	588.871
300.51	1186.1	602.791
300.61	1186	718.21
300.71	1185.9	662.379
300.81	1185.8	681.322
300.91	1185.7	619.565
301.01	1185.6	512.982
301.11	1185.5	625.924
301.21	1185.4	612.541
301.31	1185.3	695.831
301.41	1185.2	681.522
301.51	1185.1	685.337
301.61	1185	729.301
301.71	1184.9	742.99
301.81	1184.8	687.678
301.91	1184.7	598.066
302.01	1184.6	701.128
302.11	1184.5	712.09
302.21	1184.4	616.526
302.31	1184.3	612.087
302.41	1184.2	627.997
302.51	1184.1	642.357
302.61	1184	762.666
302.71	1183.9	663.725
302.81	1183.8	657.683
302.91	1183.7	632.415
303.01	1183.6	607.647
303.11	1183.5	610.978
303.21	1183.4	753.734
303.31	1183.3	685.565
303.41	1183.2	584.969
303.51	1183.1	699.273
303.61	1183	587.177
303.71	1182.9	668.23
303.81	1182.8	700.282
303.91	1182.7	738.759
304.01	1182.6	674.935
304.11	1182.5	681.086
304.21	1182.4	683.211
304.31	1182.3	718.236
304.41	1182.2	670.135
304.51	1182.1	629.958
304.61	1182	706.33
304.71	1181.9	737.478
304.81	1181.8	670.749
304.91	1181.7	742.37
305.01	1181.6	619.015
305.11	1181.5	574.685
305.21	1181.4	626.829
305.31	1181.3	714.897
305.41	1181.2	712.44
305.51	1181.1	659.407
305.61	1181	628.373
305.71	1180.9	677.264
305.81	1180.8	736.604
305.91	1180.7	718.644
306.01	1180.6	641.782
306.11	1180.5	710.721
306.21	1180.4	622.208
306.31	1180.3	596.32
306.41	1180.2	628.356
306.51	1180.1	625.717
306.61	1180	743.652
306.71	1179.9	760.561
306.81	1179.8	650.969
306.91	1179.7	699.352
307.01	1179.6	582.809
307.11	1179.5	667.316
307.21	1179.4	686.296
307.31	1179.3	706.751
307.41	1179.2	709.356
307.51	1179.1	733.884
307.61	1179	710.812
307.71	1178.9	698.415
307.81	1178.8	710.616
307.91	1178.7	696.542
308.01	1178.6	693.142
308.11	1178.5	689.241
308.21	1178.4	727.115
308.31	1178.3	757.188
308.41	1178.2	645.535
308.51	1178.1	676.131
308.61	1178	711.777
308.71	1177.9	711.397
308.81	1177.8	680.616
308.91	1177.7	752.81
309.01	1177.6	803.252
309.11	1177.5	703.044
309.21	1177.4	661.085
309.31	1177.3	722.101
309.41	1177.2	784.616
309.51	1177.1	738.029
309.61	1177	687.643
309.71	1176.9	631.455
309.81	1176.8	701.466
309.91	1176.7	760.627
310.01	1176.6	671.362
310.11	1176.5	683.171
310.21	1176.4	637.98
310.31	1176.3	789.662
310.41	1176.2	711.469
310.51	1176.1	739.225
310.61	1176	732.58
310.71	1175.9	819.51
310.81	1175.8	674.188
310.91	1175.7	714.066
311.01	1175.6	790.368
311.11	1175.5	741.394
311.21	1175.4	696.069
311.31	1175.3	739.443
311.41	1175.2	788.667
311.51	1175.1	757.765
311.61	1175	786.762
311.71	1174.9	852.708
311.81	1174.8	724.103
311.91	1174.7	680.822
312.01	1174.6	793.491
312.11	1174.5	789.683
312.21	1174.4	805.725
312.31	1174.3	682.666
312.41	1174.2	767.106
312.51	1174.1	746.545
312.61	1174	770.234
312.71	1173.9	827.696
312.81	1173.8	856.708
312.91	1173.7	748.743
313.01	1173.6	760.778
313.11	1173.5	764.612
313.21	1173.4	745.045
313.31	1173.3	706.552
313.41	1173.2	769.558
313.51	1173.1	785.388
313.61	1173	751.293
313.71	1172.9	738.496
313.81	1172.8	709.999
313.91	1172.7	784.75
314.01	1172.6	809.026
314.11	1172.5	779.401
314.21	1172.4	835.675
314.31	1172.3	759.023
314.41	1172.2	820.72
314.51	1172.1	778.016
314.61	1172	842.711
314.71	1171.9	822.655
314.81	1171.8	749.823
314.91	1171.7	797.065
315.01	1171.6	821.432
315.11	1171.5	715.147
315.21	1171.4	744.336
315.31	1171.3	808.275
315.41	1171.2	775.512
315.51	1171.1	680.899
315.61	1171	786.234
315.71	1170.9	782.869
315.81	1170.8	713.477
315.91	1170.7	707.66
316.01	1170.6	775.016
316.11	1170.5	803.322
316.21	1170.4	803.551
316.31	1170.3	912.58
316.41	1170.2	798.982
316.51	1170.1	823.684
316.61	1170	808.409
316.71	1169.9	823.109
316.81	1169.8	766.533
316.91	1169.7	808.055
317.01	1169.6	872.001
317.11	1169.5	858.972
317.21	1169.4	784.316
317.31	1169.3	775.56
317.41	1169.2	913.002
317.51	1169.1	818.243
317.61	1169	823.359
317.71	1168.9	784.623
317.81	1168.8	772.536
317.91	1168.7	848.298
318.01	1168.6	743.084
318.11	1168.5	755.469
318.21	1168.4	860.578
318.31	1168.3	901.486
318.41	1168.2	873.993
318.51	1168.1	798.549
318.61	1168	775.128
318.71	1167.9	763.982
318.81	1167.8	902.809
318.91	1167.7	948.486
319.01	1167.6	783.736
319.11	1167.5	981.46
319.21	1167.4	872.283
319.31	1167.3	869.48
319.41	1167.2	817.801
319.51	1167.1	864.821
319.61	1167	878.665
319.71	1166.9	873.082
319.81	1166.8	838.699
319.91	1166.7	738.789
320.01	1166.6	830.054
320.11	1166.5	874.892
320.21	1166.4	875.654
320.31	1166.3	849.765
320.41	1166.2	847.999
320.51	1166.1	816.808
320.61	1166	824.665
320.71	1165.9	885.172
320.81	1165.8	868.602
320.91	1165.7	786.806
321.01	1165.6	860.559
321.11	1165.5	966.16
321.21	1165.4	877.511
321.31	1165.3	827.41
321.41	1165.2	889.183
321.51	1165.1	967.68
321.61	1165	877.876
321.71	1164.9	858.846
321.81	1164.8	845.214
321.91	1164.7	863.856
322.01	1164.6	900.173
322.11	1164.5	831.862
322.21	1164.4	965.376
322.31	1164.3	986.439
322.41	1164.2	920.025
322.51	1164.1	874.235
322.61	1164	929.994
322.71	1163.9	909.152
322.81	1163.8	835.108
322.91	1163.7	916.913
323.01	1163.6	842.267
323.11	1163.5	912.67
323.21	1163.4	984.372
323.31	1163.3	943.297
323.41	1163.2	816.246
323.51	1163.1	842.169
323.61	1163	833.341
323.71	1162.9	815.961
323.81	1162.8	829.48
323.91	1162.7	906.448
324.01	1162.6	983.89
324.11	1162.5	870.38
324.21	1162.4	897.669
324.31	1162.3	850.907
324.41	1162.2	918.393
324.51	1162.1	918.179
324.61	1162	910.213
324.71	1161.9	904.12
324.81	1161.8	863.277
324.91	1161.7	909.407
325.01	1161.6	932.711
325.11	1161.5	927.563
325.21	1161.4	885.04
325.31	1161.3	846.44
325.41	1161.2	882.688
325.51	1161.1	898.961
325.61	1161	905.882
325.71	1160.9	925.301
325.81	1160.8	969.745
325.91	1160.7	943.337
326.01	1160.6	818.953
326.11	1160.5	918.117
326.21	1160.4	986.28
326.31	1160.3	1055.37
326.41	1160.2	923.628
326.51	1160.1	905.737
326.61	1160	870.169
326.71	1159.9	891.226
326.81	1159.8	1043.23
326.91	1159.7	917.335
327.01	1159.6	887.862
327.11	1159.5	925.663
327.21	1159.4	865.238
327.31	1159.3	873.636
327.41	1159.2	978.408
327.51	1159.1	1001.73
327.61	1159	918.148
327.71	1158.9	962.99
327.81	1158.8	971.732
327.91	1158.7	1071.97
328.01	1158.6	845.76
328.11	1158.5	916.923
328.21	1158.4	1004.38
328.31	1158.3	1027.64
328.41	1158.2	1085.85
328.51	1158.1	925.983
328.61	1158	974.813
328.71	1157.9	981.092
328.81	1157.8	1006.82
328.91	1157.7	1018.44
329.01	1157.6	969.07
329.11	1157.5	953.693
329.21	1157.4	939.464
329.31	1157.3	887.735
329.41	1157.2	985.153
329.51	1157.1	1029.12
329.61	1157	1030.91
329.71	1156.9	1009.58
329.81	1156.8	1050.19
329.91	1156.7	901.026
330.01	1156.6	969.086
330.11	1156.5	977.745
330.21	1156.4	977.277
330.31	1156.3	1021.98
330.41	1156.2	969.612
330.51	1156.1	1013.39
330.61	1156	997.291
330.71	1155.9	894.291
330.81	1155.8	929.639
330.91	1155.7	969.936
331.01	1155.6	925.107
331.11	1155.5	996.35
331.21	1155.4	992.743
331.31	1155.3	1058.96
331.41	1155.2	989.823
331.51	1155.1	1003.49
331.61	1155	1033.1
331.71	1154.9	1011.68
331.81	1154.8	933.841
331.91	1154.7	1001.85
332.01	1154.6	1022.35
332.11	1154.5	1099.48
332.21	1154.4	1062.31
332.31	1154.3	1038.66
332.41	1154.2	1069.63
332.51	1154.1	1063.41
332.61	1154	1042.95
332.71	1153.9	1005.75
332.81	1153.8	1047.76
332.91	1153.7	1094.83
333.01	1153.6	1007.85
333.11	1153.5	1053.41
333.21	1153.4	1047.5
333.31	1153.3	985.507
333.41	1153.2	1019.59
333.51	1153.1	1007.55
333.61	1153	994.803
333.71	1152.9	1022.83
333.81	1152.8	1017.26
333.91	1152.7	1047.43
334.01	1152.6	1094.01
334.11	1152.5	1123.88
334.21	1152.4	1075.63
334.31	1152.3	1147.87
334.41	1152.2	1061.16
334.51	1152.1	1133.68
334.61	1152	1210.12
334.71	1151.9	996.058
334.81	1151.8	1049.57
334.91	1151.7	1086.68
335.01	1151.6	1130.94
335.11	1151.5	1137.27
335.21	1151.4	1054.3
335.31	1151.3	1116.35
335.41	1151.2	1005.35
335.51	1151.1	927.428
335.61	1151	1015.73
335.71	1150.9	995.073
335.81	1150.8	1077.29
335.91	1150.7	1097.81
336.01	1150.6	1060.38
336.11	1150.5	1152.67
336.21	1150.4	1142.88
336.31	1150.3	1124.72
336.41	1150.2	1123.2
336.51	1150.1	1067.99
336.61	1150	1018.49
336.71	1149.9	972.023
336.81	1149.8	1068.58
336.91	1149.7	1099.1
337.01	1149.6	1160.05
337.11	1149.5	1090.78
337.21	1149.4	1048.57
337.31	1149.3	1145.94
337.41	1149.2	1148.31
337.51	1149.1	1060.9
337.61	1149	1021.27
337.71	1148.9	1087.43
337.81	1148.8	1102.32
337.91	1148.7	1140.07
338.01	1148.6	1067.33
338.11	1148.5	1114.71
338.21	1148.4	1156.97
338.31	1148.3	1192.32
338.41	1148.2	1168.75
338.51	1148.1	1127.35
338.61	1148	1272.67
338.71	1147.9	1268.71
338.81	1147.8	1195.91
338.91	1147.7	1167.6
339.01	1147.6	1038.94
339.11	1147.5	993.054
339.21	1147.4	1145.64
339.31	1147.3	1121
339.41	1147.2	1104.26
339.51	1147.1	1187.27
339.61	1147	1145.12
339.71	1146.9	1173.8
339.81	1146.8	1114
339.91	1146.7	1102.65
340.01	1146.6	1110.5
340.11	1146.5	1156.05
340.21	1146.4	1070.87
340.31	1146.3	1211.24
340.41	1146.2	1134.7
340.51	1146.1	1147.29
340.61	1146	1094.38
340.71	1145.9	1122.77
340.81	1145.8	1205.31
340.91	1145.7	1121.66
341.01	1145.6	1158.37
341.11	1145.5	1299.33
341.21	1145.4	1211.16
341.31	1145.3	1080.68
341.41	1145.2	1189.33
341.51	1145.1	1179.48
341.61	1145	1129.18
341.71	1144.9	1149.38
341.81	1144.8	1121.3
341.91	1144.7	1112.31
342.01	1144.6	1165.51
342.11	1144.5	1212.27
342.21	1144.4	1142.26
342.31	1144.3	1106.37
342.41	1144.2	1139.98
342.51	1144.1	1218.16
342.61	1144	1212.4
342.71	1143.9	1134.75
342.81	1143.8	1216.51
342.91	1143.7	1244.71
343.01	1143.6	1230.31
343.11	1143.5	1299.11
343.21	1143.4	1281.68
343.31	1143.3	1209.91
343.41	1143.2	1203.35
343.51	1143.1	1243.24
343.61	1143	1204.06
343.71	1142.9	1208.68
343.81	1142.8	1205.12
343.91	1142.7	1251.13
344.01	1142.6	1181.02
344.11	1142.5	1196.35
344.21	1142.4	1226.34
344.31	1142.3	1193.12
344.41	1142.2	1189.83
344.51	1142.1	1198.4
344.61	1142	1233.48
344.71	1141.9	1194.96
344.81	1141.8	1224.46
344.91	1141.7	1151.33
345.01	1141.6	1270.83
345.11	1141.5	1230.15
345.21	1141.4	1255.65
345.31	1141.3	1273.37
345.41	1141.2	1187.83
345.51	1141.1	1222.18
345.61	1141	1315.44
345.71	1140.9	1246.35
345.81	1140.8	1306.94
345.91	1140.7	1278.23
346.01	1140.6	1295.49
346.11	1140.5	1258.32
346.21	1140.4	1225.93
346.31	1140.3	1223.83
346.41	1140.2	1142.09
346.51	1140.1	1170.49
346.61	1140	1252.02
346.71	1139.9	1252.74
346.81	1139.8	1264.39
346.91	1139.7	1230.36
347.01	1139.6	1241.83
347.11	1139.5	1271.03
347.21	1139.4	1226.1
347.31	1139.3	1253.82
347.41	1139.2	1284.61
347.51	1139.1	1280.15
347.61	1139	1264.54
347.71	1138.9	1216.03
347.81	1138.8	1268.49
347.91	1138.7	1257.1
348.01	1138.6	1234.23
348.11	1138.5	1278.24
348.21	1138.4	1282.95
348.31	1138.3	1322.01
348.41	1138.2	1300.84
348.51	1138.1	1269.09
348.61	1138	1362.64
348.71	1137.9	1319.07
348.81	1137.8	1282.97
348.91	1137.7	1305.47
349.01	1137.6	1226.72
349.11	1137.5	1291.36
349.21	1137.4	1331.48
349.31	1137.3	1289.53
349.41	1137.2	1391.27
349.51	1137.1	1309.29
349.61	1137	1273.48
349.71	1136.9	1254.85
349.81	1136.8	1329.31
349.91	1136.7	1239.1
350.01	1136.6	1274.98
350.11	1136.5	1224.1
350.21	1136.4	1251.96
350.31	1136.3	1315.11
350.41	1136.2	1414.85
350.51	1136.1	1311.53
350.61	1136	1335.18
350.71	1135.9	1327.59
350.81	1135.8	1291.07
350.91	1135.7	1280.92
351.01	1135.6	1253.8
351.11	1135.5	1413.55
351.21	1135.4	1352.87
351.31	1135.3	1343.92
351.41	1135.2	1357.24
351.51	1135.1	1391.44
351.61	1135	1273.96
351.71	1134.9	1283.76
351.81	1134.8	1286.35
351.91	1134.7	1364.42
352.01	1134.6	1335.31
352.11	1134.5	1402.48
352.21	1134.4	1310.99
352.31	1134.3	1299.53
352.41	1134.2	1312.39
352.51	1134.1	1414.23
352.61	1134	1343.69
352.71	1133.9	1340.08
352.81	1133.8	1367.59
352.91	1133.7	1355.57
353.01	1133.6	1351.1
353.11	1133.5	1362.61
353.21	1133.4	1294.49
353.31	1133.3	1351
353.41	1133.2	1504.83
353.51	1133.1	1326.53
353.61	1133	1324.48
353.71	1132.9	1362.49
353.81	1132.8	1386.34
353.91	1132.7	1430.56
354.01	1132.6	1432.39
354.11	1132.5	1427.68
354.21	1132.4	1404.21
354.31	1132.3	1392.8
354.41	1132.2	1361.15
354.51	1132.1	1314.75
354.61	1132	1316.74
354.71	1131.9	1425.98
354.81	1131.8	1389.3
354.91	1131.7	1391.14
355.01	1131.6	1437.03
355.11	1131.5	1331.8
355.21	1131.4	1342.29
355.31	1131.3	1332.98
355.41	1131.2	1407.97
355.51	1131.1	1419.66
355.61	1131	1392.47
355.71	1130.9	1433.68
355.81	1130.8	1351.36
355.91	1130.7	1436.27
356.01	1130.6	1415.91
356.11	1130.5	1407.89
356.21	1130.4	1410.02
356.31	1130.3	1449.73
356.41	1130.2	1399.54
356.51	1130.1	1322.44
356.61	1130	1398.3
356.71	1129.9	1417.83
356.81	1129.8	1415.56
356.91	1129.7	1449.28
357.01	1129.6	1320.41
357.11	1129.5	1476.54
357.21	1129.4	1455.99
357.31	1129.3	1333.64
357.41	1129.2	1454.24
357.51	1129.1	1439.01
357.61	1129	1487.89
357.71	1128.9	1376.31
357.81	1128.8	1396.18
357.91	1128.7	1411.45
358.01	1128.6	1426.75
358.11	1128.5	1494.7
358.21	1128.4	1495.37
358.31	1128.3	1353.74
358.41	1128.2	1378.35
358.51	1128.1	1436.05
358.61	1128	1464.37
358.71	1127.9	1428.31
358.81	1127.8	1496.77
358.91	1127.7	1489.24
359.01	1127.6	1510.23
359.11	1127.5	1528.55
359.21	1127.4	1395.81
359.31	1127.3	1504.8
359.41	1127.2	1479.29
359.51	1127.1	1395.98
359.61	1127	1454.46
359.71	1126.9	1436.2
359.81	1126.8	1412.29
359.91	1126.7	1466.22
360.01	1126.6	1389.06
360.11	1126.5	1507.37
360.21	1126.4	1478.78
360.31	1126.3	1465.27
360.41	1126.2	1572.55
360.51	1126.1	1471.81
360.61	1126	1499.32
360.71	1125.9	1490.35
360.81	1125.8	1444.81
360.91	1125.7	1580.04
361.01	1125.6	1516.52
361.11	1125.5	1583.47
361.21	1125.4	1576.73
361.31	1125.3	1598.86
361.41	1125.2	1602.07
361.51	1125.1	1483.77
361.61	1125	1413.82
361.71	1124.9	1427.4
361.81	1124.8	1518.08
361.91	1124.7	1545.01
362.01	1124.6	1557.96
362.11	1124.5	1509.44
362.21	1124.4	1491.92
362.31	1124.3	1459.57
362.41	1124.2	1612.39
362.51	1124.1	1532.15
362.61	1124	1566.12
362.71	1123.9	1535.95
362.81	1123.8	1533.52
362.91	1123.7	1520.12
363.01	1123.6	1497.97
363.11	1123.5	1533.77
363.21	1123.4	1585.55
363.31	1123.3	1570.72
363.41	1123.2	1494.57
363.51	1123.1	1513.72
363.61	1123	1588.84
363.71	1122.9	1695.99
363.81	1122.8	1663.38
363.91	1122.7	1610.06
364.01	1122.6	1524.55
364.11	1122.5	1568.95
364.21	1122.4	1523.2
364.31	1122.3	1640.49
364.41	1122.2	1512.34
364.51	1122.1	1589.86
364.61	1122	1524.46
364.71	1121.9	1522
364.81	1121.8	1576.7
364.91	1121.7	1638.19
365.01	1121.6	1585.56
365.11	1121.5	1524.46
365.21	1121.4	1623.5
365.31	1121.3	1580.12
365.41	1121.2	1715.04
365.51	1121.1	1621.26
365.61	1121	1639.05
365.71	1120.9	1631.87
365.81	1120.8	1627.97
365.91	1120.7	1666.26
366.01	1120.6	1599.98
366.11	1120.5	1628.02
366.21	1120.4	1640.54
366.31	1120.3	1666.55
366.41	1120.2	1645.89
366.51	1120.1	1673.71
366.61	1120	1660.95
366.71	1119.9	1624.17
366.81	1119.8	1671.21
366.91	1119.7	1647.87
367.01	1119.6	1677.66
367.11	1119.5	1535.55
367.21	1119.4	1523.92
367.31	1119.3	1583.15
367.41	1119.2	1566.24
367.51	1119.1	1619.96
367.61	1119	1639.92
367.71	1118.9	1619.33
367.81	1118.8	1664.79
367.91	1118.7	1680.68
368.01	1118.6	1671.39
368.11	1118.5	1581.2
368.21	1118.4	1595.58
368.31	1118.3	1688.79
368.41	1118.2	1664.5
368.51	1118.1	1643.64
368.61	1118	1608.45
368.71	1117.9	1703.08
368.81	1117.8	1631.71
368.91	1117.7	1748.27
369.01	1117.6	1725.13
369.11	1117.5	1631.88
369.21	1117.4	1715.11
369.31	1117.3	1760.97
369.41	1117.2	1695.1
369.51	1117.1	1643.93
369.61	1117	1667.93
369.71	1116.9	1603.96
369.81	1116.8	1695.83
369.91	1116.7	1653.16
370.01	1116.6	1560.19
370.11	1116.5	1712.44
370.21	1116.4	1622.04
370.31	1116.3	1803.34
370.41	1116.2	1667.19
370.51	1116.1	1644.04
370.61	1116	1654.61
370.71	1115.9	1612.61
370.81	1115.8	1567.91
370.91	1115.7	1650.78
371.01	1115.6	1647.05
371.11	1115.5	1623.52
371.21	1115.4	1612.34
371.31	1115.3	1666.63
371.41	1115.2	1675.77
371.51	1115.1	1628.97
371.61	1115	1664.88
371.71	1114.9	1682.3
371.81	1114.8	1680.04
371.91	1114.7	1639.66
372.01	1114.6	1701.12
372.11	1114.5	1669.58
372.21	1114.4	1615.52
372.31	1114.3	1722.01
372.41	1114.2	1657.45
372.51	1114.1	1630.46
372.61	1114	1655.77
372.71	1113.9	1695.4
372.81	1113.8	1623.21
372.91	1113.7	1654.54
373.01	1113.6	1723.9
373.11	1113.5	1712.21
373.21	1113.4	1742.19
373.31	1113.3	1721.49
373.41	1113.2	1659.12
373.51	1113.1	1650.78
373.61	1113	1630.98
373.71	1112.9	1699.91
373.81	1112.8	1640.46
373.91	1112.7	1578.26
374.01	1112.6	1481.66
374.11	1112.5	1586.53
374.21	1112.4	1651.16
374.31	1112.3	1608.45
374.41	1112.2	1657.12
374.51	1112.1	1650.42
374.61	1112	1684.34
374.71	1111.9	1695.33
374.81	1111.8	1549.45
374.91	1111.7	1615.74
375.01	1111.6	1717.48
375.11	1111.5	1560.75
375.21	1111.4	1582.79
375.31	1111.3	1634.78
375.41	1111.2	1615.19
375.51	1111.1	1560.23
375.61	1111	1485.21
375.71	1110.9	1602.05
375.81	1110.8	1598.61
375.91	1110.7	1618.04
376.01	1110.6	1542.5
376.11	1110.5	1581.5
376.21	1110.4	1603.78
376.31	1110.3	1553.01
376.41	1110.2	1627.44
376.51	1110.1	1574.57
376.61	1110	1634.47
376.71	1109.9	1646.42
376.81	1109.8	1571.77
376.91	1109.7	1500.87
377.01	1109.6	1507.19
377.11	1109.5	1610.46
377.21	1109.4	1575.38
377.31	1109.3	1549.6
377.41	1109.2	1567.42
377.51	1109.1	1603.52
377.61	1109	1605.56
377.71	1108.9	1601.27
377.81	1108.8	1549.41
377.91	1108.7	1566.17
378.01	1108.6	1500.46
378.11	1108.5	1542.62
378.21	1108.4	1520.81
378.31	1108.3	1532.59
378.41	1108.2	1581.52
378.51	1108.1	1495.93
378.61	1108	1494.24
378.71	1107.9	1427.29
378.81	1107.8	1520.34
378.91	1107.7	1434.92
379.01	1107.6	1590.57
379.11	1107.5	1570.2
379.21	1107.4	1616.32
379.31	1107.3	1549.12
379.41	1107.2	1567.92
379.51	1107.1	1501.29
379.61	1107	1470.16
379.71	1106.9	1529.87
379.81	1106.8	1576.57
379.91	1106.7	1503.21
380.01	1106.6	1414.07
380.11	1106.5	1468.96
380.21	1106.4	1459.75
380.31	1106.3	1498.58
380.41	1106.2	1421.19
380.51	1106.1	1387.57
380.61	1106	1338.01
380.71	1105.9	1378.14
380.81	1105.8	1456.67
380.91	1105.7	1513.49
381.01	1105.6	1456.95
381.11	1105.5	1509.3
381.21	1105.4	1490.22
381.31	1105.3	1455.37
381.41	1105.2	1464.59
381.51	1105.1	1468.36
381.61	1105	1480.28
381.71	1104.9	1433
381.81	1104.8	1459.77
381.91	1104.7	1444.76
382.01	1104.6	1509.05
382.11	1104.5	1560.08
382.21	1104.4	1515.8
382.31	1104.3	1546.01
382.41	1104.2	1506.31
382.51	1104.1	1429.7
382.61	1104	1354.03
382.71	1103.9	1508.73
382.81	1103.8	1461.41
382.91	1103.7	1460.61
383.01	1103.6	1545.24
383.11	1103.5	1491.34
383.21	1103.4	1511.03
383.31	1103.3	1553.1
383.41	1103.2	1542.07
383.51	1103.1	1487.32
383.61	1103	1548.13
383.71	1102.9	1532.22
383.81	1102.8	1556.51
383.91	1102.7	1653.88
384.01	1102.6	1712.19
384.11	1102.5	1713.25
384.21	1102.4	1638.65
384.31	1102.3	1692.29
384.41	1102.2	1717.04
384.51	1102.1	1718.42
384.61	1102	1726.75
384.71	1101.9	1780.05
384.81	1101.8	1715.1
384.91	1101.7	1886.14
385.01	1101.6	1819.84
385.11	1101.5	1795.11
385.21	1101.4	1844.4
385.31	1101.3	1970.97
385.41	1101.2	1986.58
385.51	1101.1	2057.89
385.61	1101	2104.76
385.71	1100.9	1978.99
385.81	1100.8	2073.4
385.91	1100.7	2155.36
386.01	1100.6	2169.86
386.11	1100.5	2209.14
386.21	1100.4	2213.07
386.31	1100.3	2306.37
386.41	1100.2	2218.94
386.51	1100.1	2318.91
386.61	1100	2404.33
386.71	1099.9	2469.35
386.81	1099.8	2438.8
386.91	1099.7	2523.71
387.01	1099.6	2598.92
387.11	1099.5	2712.14
387.21	1099.4	2734.02
387.31	1099.3	2684.16
387.41	1099.2	2796.74
387.51	1099.1	2897.32
387.61	1099	2888.97
387.71	1098.9	2962.55
387.81	1098.8	2955.4
387.91	1098.7	3059.65
388.01	1098.6	3191.65
388.11	1098.5	3264.97
388.21	1098.4	3227.48
388.31	1098.3	3303.4
388.41	1098.2	3311.54
388.51	1098.1	3407.08
388.61	1098	3471.96
388.71	1097.9	3521
388.81	1097.8	3649.21
388.91	1097.7	3561.64
389.01	1097.6	3628.49
389.11	1097.5	3666.29
389.21	1097.4	3770.47
389.31	1097.3	3768.29
389.41	1097.2	3758.79
389.51	1097.1	3769.61
389.61	1097	3838.43
389.71	1096.9	3715.34
389.81	1096.8	3796.98
389.91	1096.7	3758.35
390.01	1096.6	3706.38
390.11	1096.5	3747.72
390.21	1096.4	3675.87
390.31	1096.3	3596.45
390.41	1096.2	3546.23
390.51	1096.1	3571.68
390.61	1096	3546.81
390.71	1095.9	3560.46
390.81	1095.8	3288.75
390.91	1095.7	3300.55
391.01	1095.6	3268.36
391.11	1095.5	3258.6
391.21	1095.4	3032.06
391.31	1095.3	3047.55
391.41	1095.2	2964.69
391.51	1095.1	3024.39
391.61	1095	2931.72
391.71	1094.9	2825.88
391.81	1094.8	2750.05
391.91	1094.7	2690.95
392.01	1094.6	2631.3
392.11	1094.5	2469.75
392.21	1094.4	2396.89
392.31	1094.3	2372.39
392.41	1094.2	2322.65
392.51	1094.1	2098.42
392.61	1094	2113.98
392.71	1093.9	2194.19
392.81	1093.8	2079.53
392.91	1093.7	1945.63
393.01	1093.6	1867.21
393.11	1093.5	1880.19
393.21	1093.4	1893.59
393.31	1093.3	1746.47
393.41	1093.2	1802.64
393.51	1093.1	1722.77
393.61	1093	1621.26
393.71	1092.9	1596.85
393.81	1092.8	1513.4
393.91	1092.7	1479.11
394.01	1092.6	1364.08
394.11	1092.5	1390.29
394.21	1092.4	1321.02
394.31	1092.3	1417.53
394.41	1092.2	1200.81
394.51	1092.1	1199.77
394.61	1092	1194.02
394.71	1091.9	1109.37
394.81	1091.8	1090.15
394.91	1091.7	1024.2
395.01	1091.6	1092.87
395.11	1091.5	1086.99
395.21	1091.4	995.21
395.31	1091.3	969.353
395.41	1091.2	928.819
395.51	1091.1	966.208
395.61	1091	873.821
395.71	1090.9	749.257
395.81	1090.8	762.492
395.91	1090.7	742.501
396.01	1090.6	854.032
396.11	1090.5	838.662
396.21	1090.4	869.641
396.31	1090.3	820.143
396.41	1090.2	750.794
396.51	1090.1	740.743
396.61	1090	631.241
396.71	1089.9	672.962
396.81	1089.8	754.707
396.91	1089.7	571.7
397.01	1089.6	651.967
397.11	1089.5	684.533
397.21	1089.4	688.397
397.31	1089.3	654.534
397.41	1089.2	575.346
397.51	1089.1	638.055
397.61	1089	560.364
397.71	1088.9	547.871
397.81	1088.8	477.601
397.91	1088.7	592.481
398.01	1088.6	662.008
398.11	1088.5	605.985
398.21	1088.4	496.185
398.31	1088.3	412.684
398.41	1088.2	517.281
398.51	1088.1	535.652
398.61	1088	379.222
398.71	1087.9	437.79
398.81	1087.8	425.182
398.91	1087.7	396.198
399.01	1087.6	460.038
399.11	1087.5	456.451
399.21	1087.4	458.963
399.31	1087.3	480.848
399.41	1087.2	392.533
399.51	1087.1	427.116
399.61	1087	422.973
399.71	1086.9	280.103
399.81	1086.8	364.707
399.91	1086.7	270.336
400.01	1086.6	362.537
400.11	1086.5	380.613
400.21	1086.4	314.137
400.31	1086.3	314.511
400.41	1086.2	387.933
400.51	1086.1	323.079
400.61	1086	307.398
400.71	1085.9	289.217
400.81	1085.8	236.759
400.91	1085.7	320.2
401.01	1085.6	302.365
401.11	1085.5	168.729
401.21	1085.4	234.092
401.31	1085.3	358.703
401.41	1085.2	374.239
401.51	1085.1	244.698
401.61	1085	357.106
401.71	1084.9	235.563
401.81	1084.8	286.094
401.91	1084.7	247.349
402.01	1084.6	163.953
402.11	1084.5	274.681
402.21	1084.4	197.432
402.31	1084.3	175.533
402.41	1084.2	279.283
402.51	1084.1	293.581
402.61	1084	251.929
402.71	1083.9	223.55
402.81	1083.8	263.396
402.91	1083.7	253.34
403.01	1083.6	208.384
403.11	1083.5	216.926
403.21	1083.4	179.567
403.31	1083.3	158.683
403.41	1083.2	169.597
403.51	1083.1	202.036
403.61	1083	192.748
403.71	1082.9	131.66
403.81	1082.8	173.446
403.91	1082.7	262.08
404.01	1082.6	178.664
404.11	1082.5	62.672
404.21	1082.4	186.454
404.31	1082.3	192.71
404.41	1082.2	128.29
404.51	1082.1	127.469
404.61	1082	166.448
404.71	1081.9	169.525
404.81	1081.8	206.102
404.91	1081.7	188.952
405.01	1081.6	153.377
405.11	1081.5	156.451
405.21	1081.4	204.199
405.31	1081.3	261.296
405.41	1081.2	248.518
405.51	1081.1	209.089
405.61	1081	109.608
405.71	1080.9	149.502
405.81	1080.8	292.846
405.91	1080.7	193.888
406.01	1080.6	116.405
406.11	1080.5	227.72
406.21	1080.4	58.2106
406.31	1080.3	61.3249
406.41	1080.2	108.263
406.51	1080.1	74.8512
406.61	1080	111.663
406.71	1079.9	126.175
406.81	1079.8	183.16
406.91	1079.7	221.795
407.01	1079.6	130.604
407.11	1079.5	67.3377
407.21	1079.4	132.595
407.31	1079.3	173.903
407.41	1079.2	140.384
407.51	1079.1	185.34
407.61	1079	92.7947
407.71	1078.9	133.149
407.81	1078.8	96.2778
407.91	1078.7	122.856
408.01	1078.6	138.633
408.11	1078.5	94.6351
408.21	1078.4	109.036
408.31	1078.3	92.8868
408.41	1078.2	165.162
408.51	1078.1	90.3611
408.61	1078	79.5349
408.71	1077.9	46.883
408.81	1077.8	59.0806
408.91	1077.7	117.528
409.01	1077.6	142.674
409.11	1077.5	73.445
409.21	1077.4	156.19
409.31	1077.3	121.135
409.41	1077.2	90.2793
409.51	1077.1	61.198
409.61	1077	52.0912
409.71	1076.9	95.9089
409.81	1076.8	117.201
409.91	1076.7	70.2428
410.01	1076.6	107.484
410.11	1076.5	8.39966
410.21	1076.4	40.0399
410.31	1076.3	160.08
410.41	1076.2	80.7939
410.51	1076.1	30.1077
410.61	1076	119.396
410.71	1075.9	65.9591
410.81	1075.8	137.347
410.91	1075.7	165.709
411.01	1075.6	75.1203
411.11	1075.5	14.0816
411.21	1075.4	18.1174
411.31	1075.3	85.9778
411.41	1075.2	40.8129
411.51	1075.1	43.5476
411.61	1075	55.2819
411.71	1074.9	68.2158
411.81	1074.8	91.9494
411.91	1074.7	63.4826
412.01	1074.6	60.3655
412.11	1074.5	16.373
412.21	1074.4	49.3052
412.31	1074.3	104.912
412.41	1074.2	144.069
412.51	1074.1	111.15
412.61	1074	86.5309
412.71	1073.9	107.887
412.81	1073.8	168.742
412.91	1073.7	161.447
413.01	1073.6	174.402
413.11	1073.5	202.356
413.21	1073.4	161.311
413.31	1073.3	108.265
413.41	1073.2	112.218
413.51	1073.1	49.9471
413.61	1073	92.2504
413.71	1072.9	87.4785
413.81	1072.8	53.5564
413.91	1072.7	84.8341
414.01	1072.6	168.062
414.11	1072.5	72.514
414.21	1072.4	182.766
414.31	1072.3	27.743
414.41	1072.2	-16.6802
414.51	1072.1	-14.7036
414.61	1072	109.073
414.71	1071.9	40.4742
414.81	1071.8	26.8004
414.91	1071.7	173.476
415.01	1071.6	64.2774
415.11	1071.5	48.8032
415.21	1071.4	71.0039
415.31	1071.3	28.9295
415.41	1071.2	-16.47
415.51	1071.1	38.0554
415.61	1071	53.6307
415.71	1070.9	38.9059
415.81	1070.8	128.531
415.91	1070.7	60.5563
416.01	1070.6	56.8313
416.11	1070.5	13.4564
416.21	1070.4	89.6314
416.31	1070.3	86.0313
416.41	1070.2	69.4063
416.51	1070.1	28.0812
416.61	1070	62.5061