c:\users\mark\owncloud\muelheim group\projects\gas phase background\ex340_cec356_cu n2 largearea.vms
Cu3s
	Characteristic Energy eV	1486.61	Acquisition Time s	2
KE_Cu3s	BE_Cu3s	CPS_Cu3s
1266.61	220	1844.75
1266.71	219.9	1829.09
1266.81	219.8	1833.13
1266.91	219.7	1817.43
1267.01	219.6	1813.03
1267.11	219.5	1859.26
1267.21	219.4	1856.43
1267.31	219.3	1829.73
1267.41	219.2	1819.87
1267.51	219.1	1843.32
1267.61	219	1859.63
1267.71	218.9	1866.77
1267.81	218.8	1847.72
1267.91	218.7	1885.49
1268.01	218.6	1861.69
1268.11	218.5	1836.4
1268.21	218.4	1804.49
1268.31	218.3	1841.52
1268.41	218.2	1839.83
1268.51	218.1	1840.18
1268.61	218	1848.84
1268.71	217.9	1856.48
1268.81	217.8	1879.44
1268.91	217.7	1895.48
1269.01	217.6	1834.88
1269.11	217.5	1855.9
1269.21	217.4	1873.12
1269.31	217.3	1885.73
1269.41	217.2	1892.05
1269.51	217.1	1895.1
1269.61	217	1815.64
1269.71	216.9	1826.25
1269.81	216.8	1840.65
1269.91	216.7	1847.78
1270.01	216.6	1873.94
1270.11	216.5	1877.9
1270.21	216.4	1819.62
1270.31	216.3	1839.77
1270.41	216.2	1844.76
1270.51	216.1	1851.67
1270.61	216	1849.54
1270.71	215.9	1821.15
1270.81	215.8	1855.41
1270.91	215.7	1851.53
1271.01	215.6	1823.13
1271.11	215.5	1852.79
1271.21	215.4	1841.94
1271.31	215.3	1821.78
1271.41	215.2	1859.53
1271.51	215.1	1879.61
1271.61	215	1850.44
1271.71	214.9	1862.05
1271.81	214.8	1888.62
1271.91	214.7	1844.39
1272.01	214.6	1864.73
1272.11	214.5	1817.88
1272.21	214.4	1856.09
1272.31	214.3	1850.46
1272.41	214.2	1863.24
1272.51	214.1	1835.63
1272.61	214	1859.26
1272.71	213.9	1831.37
1272.81	213.8	1843.68
1272.91	213.7	1913.22
1273.01	213.6	1878.93
1273.11	213.5	1867.05
1273.21	213.4	1868.93
1273.31	213.3	1861.98
1273.41	213.2	1842.69
1273.51	213.1	1886.1
1273.61	213	1884.64
1273.71	212.9	1847.27
1273.81	212.8	1809.94
1273.91	212.7	1861.65
1274.01	212.6	1873.03
1274.11	212.5	1909.2
1274.21	212.4	1881.87
1274.31	212.3	1864.95
1274.41	212.2	1871.26
1274.51	212.1	1858.85
1274.61	212	1851.76
1274.71	211.9	1856.72
1274.81	211.8	1881.91
1274.91	211.7	1861.56
1275.01	211.6	1867.2
1275.11	211.5	1902.18
1275.21	211.4	1899.78
1275.31	211.3	1876.56
1275.41	211.2	1893.97
1275.51	211.1	1908.16
1275.61	211	1847.19
1275.71	210.9	1868.81
1275.81	210.8	1883.93
1275.91	210.7	1913.32
1276.01	210.6	1901.99
1276.11	210.5	1859.23
1276.21	210.4	1857.53
1276.31	210.3	1890.77
1276.41	210.2	1855.68
1276.51	210.1	1910.33
1276.61	210	1924.58
1276.71	209.9	1857.51
1276.81	209.8	1886.84
1276.91	209.7	1858.19
1277.01	209.6	1866.09
1277.11	209.5	1848.19
1277.21	209.4	1899.5
1277.31	209.3	1899.95
1277.41	209.2	1838.92
1277.51	209.1	1887.19
1277.61	209	1848.55
1277.71	208.9	1880.91
1277.81	208.8	1888.62
1277.91	208.7	1868.05
1278.01	208.6	1878.95
1278.11	208.5	1878.61
1278.21	208.4	1923.49
1278.31	208.3	1909.13
1278.41	208.2	1857.01
1278.51	208.1	1844.99
1278.61	208	1884.69
1278.71	207.9	1900.65
1278.81	207.8	1909.73
1278.91	207.7	1900.64
1279.01	207.6	1883.57
1279.11	207.5	1902.16
1279.21	207.4	1893.59
1279.31	207.3	1861.31
1279.41	207.2	1842.64
1279.51	207.1	1835.7
1279.61	207	1875.93
1279.71	206.9	1916.62
1279.81	206.8	1886.55
1279.91	206.7	1900.77
1280.01	206.6	1898.01
1280.11	206.5	1879.38
1280.21	206.4	1902.47
1280.31	206.3	1828.65
1280.41	206.2	1875.14
1280.51	206.1	1951.28
1280.61	206	1924.08
1280.71	205.9	1932.13
1280.81	205.8	1918.81
1280.91	205.7	1866.26
1281.01	205.6	1871.26
1281.11	205.5	1840.97
1281.21	205.4	1906.26
1281.31	205.3	1861.64
1281.41	205.2	1916.38
1281.51	205.1	1908.18
1281.61	205	1944.36
1281.71	204.9	1889.87
1281.81	204.8	1900.38
1281.91	204.7	1916.74
1282.01	204.6	1945.55
1282.11	204.5	1874.9
1282.21	204.4	1894.6
1282.31	204.3	1942.69
1282.41	204.2	1901.91
1282.51	204.1	1923.14
1282.61	204	1902.11
1282.71	203.9	1890.97
1282.81	203.8	1914.37
1282.91	203.7	1919.88
1283.01	203.6	1910.79
1283.11	203.5	1920.21
1283.21	203.4	1903.53
1283.31	203.3	1943.41
1283.41	203.2	1906.41
1283.51	203.1	1903.44
1283.61	203	1905.44
1283.71	202.9	1885.35
1283.81	202.8	1940.9
1283.91	202.7	1947.46
1284.01	202.6	1918.72
1284.11	202.5	1900.13
1284.21	202.4	1907.13
1284.31	202.3	1934.65
1284.41	202.2	1918.02
1284.51	202.1	1924.88
1284.61	202	1878.07
1284.71	201.9	1898.94
1284.81	201.8	1883.39
1284.91	201.7	1878.71
1285.01	201.6	1891.65
1285.11	201.5	1932.33
1285.21	201.4	1951.23
1285.31	201.3	1935.92
1285.41	201.2	1915.26
1285.51	201.1	1969.3
1285.61	201	1884.01
1285.71	200.9	1897.89
1285.81	200.8	1940.16
1285.91	200.7	1960.45
1286.01	200.6	1908.64
1286.11	200.5	1880.8
1286.21	200.4	1943.52
1286.31	200.3	1947.52
1286.41	200.2	1893.64
1286.51	200.1	1930.66
1286.61	200	1970.14
1286.71	199.9	1963.78
1286.81	199.8	1902.28
1286.91	199.7	1912.81
1287.01	199.6	1930.57
1287.11	199.5	1911.43
1287.21	199.4	1931.36
1287.31	199.3	1948.9
1287.41	199.2	1890.68
1287.51	199.1	1909.4
1287.61	199	1937.08
1287.71	198.9	1895.78
1287.81	198.8	1931.24
1287.91	198.7	1970.12
1288.01	198.6	1970.88
1288.11	198.5	1960.88
1288.21	198.4	1993.21
1288.31	198.3	1992.66
1288.41	198.2	1938.35
1288.51	198.1	1953.02
1288.61	198	1946.57
1288.71	197.9	1960.06
1288.81	197.8	1962.41
1288.91	197.7	1929.87
1289.01	197.6	1888.43
1289.11	197.5	1961.93
1289.21	197.4	1946.6
1289.31	197.3	1906.6
1289.41	197.2	1877.47
1289.51	197.1	1939.18
1289.61	197	1897.61
1289.71	196.9	1903.24
1289.81	196.8	1897.38
1289.91	196.7	1937.57
1290.01	196.6	2011.33
1290.11	196.5	1933.9
1290.21	196.4	1941.91
1290.31	196.3	1961.9
1290.41	196.2	1917.38
1290.51	196.1	1957.07
1290.61	196	1976.96
1290.71	195.9	1974.03
1290.81	195.8	1923.49
1290.91	195.7	1903.7
1291.01	195.6	1971.48
1291.11	195.5	1942.06
1291.21	195.4	1910.13
1291.31	195.3	1964.77
1291.41	195.2	1960.79
1291.51	195.1	1918.94
1291.61	195	1932.2
1291.71	194.9	1957.74
1291.81	194.8	1953.96
1291.91	194.7	1928.96
1292.01	194.6	1905.65
1292.11	194.5	1916.83
1292.21	194.4	1953.56
1292.31	194.3	1943.94
1292.41	194.2	1942.44
1292.51	194.1	1933.67
1292.61	194	1957.58
1292.71	193.9	1960.19
1292.81	193.8	2001.43
1292.91	193.7	1965.33
1293.01	193.6	1932.27
1293.11	193.5	1959.93
1293.21	193.4	1972.17
1293.31	193.3	1913.83
1293.41	193.2	1971.04
1293.51	193.1	1921.33
1293.61	193	2025.83
1293.71	192.9	2017.69
1293.81	192.8	1962.73
1293.91	192.7	1980.56
1294.01	192.6	1966.75
1294.11	192.5	1990.54
1294.21	192.4	2012.61
1294.31	192.3	1962.33
1294.41	192.2	1944.49
1294.51	192.1	1907.32
1294.61	192	1921.25
1294.71	191.9	1961.43
1294.81	191.8	1970.59
1294.91	191.7	2007.23
1295.01	191.6	2004.26
1295.11	191.5	1956.15
1295.21	191.4	1958.12
1295.31	191.3	1912.75
1295.41	191.2	1965.11
1295.51	191.1	1953.4
1295.61	191	1990.3
1295.71	190.9	1979.31
1295.81	190.8	1952.1
1295.91	190.7	1949.38
1296.01	190.6	1969.66
1296.11	190.5	2005.02
1296.21	190.4	2013.45
1296.31	190.3	2052.53
1296.41	190.2	2010.49
1296.51	190.1	2043.14
1296.61	190	2024.56
1296.71	189.9	1997.61
1296.81	189.8	1981.07
1296.91	189.7	1966.86
1297.01	189.6	2003.51
1297.11	189.5	1974.47
1297.21	189.4	1923.59
1297.31	189.3	1960.12
1297.41	189.2	1966.05
1297.51	189.1	1972.47
1297.61	189	1992.76
1297.71	188.9	1978.62
1297.81	188.8	2010.65
1297.91	188.7	1995.4
1298.01	188.6	1972.85
1298.11	188.5	1974.85
1298.21	188.4	1988.15
1298.31	188.3	1944.23
1298.41	188.2	1984.2
1298.51	188.1	1974.27
1298.61	188	1962.92
1298.71	187.9	1969.57
1298.81	187.8	1971.12
1298.91	187.7	1975.03
1299.01	187.6	1932.02
1299.11	187.5	1993.96
1299.21	187.4	1995.04
1299.31	187.3	1994.21
1299.41	187.2	1954.48
1299.51	187.1	1975.25
1299.61	187	1989.04
1299.71	186.9	1963.31
1299.81	186.8	2017.13
1299.91	186.7	2002.79
1300.01	186.6	1939.43
1300.11	186.5	2004.11
1300.21	186.4	2017.05
1300.31	186.3	2006.95
1300.41	186.2	1999.85
1300.51	186.1	2004.4
1300.61	186	2013.11
1300.71	185.9	2044.77
1300.81	185.8	1998.34
1300.91	185.7	2004.41
1301.01	185.6	1966.52
1301.11	185.5	1999.92
1301.21	185.4	2014.96
1301.31	185.3	1961.93
1301.41	185.2	1961.32
1301.51	185.1	2030.65
1301.61	185	1984.59
1301.71	184.9	1981.56
1301.81	184.8	2000.63
1301.91	184.7	2017.16
1302.01	184.6	1976.3
1302.11	184.5	1993.06
1302.21	184.4	2061.03
1302.31	184.3	2003.35
1302.41	184.2	2008.1
1302.51	184.1	1979.75
1302.61	184	1994.31
1302.71	183.9	1997.7
1302.81	183.8	1992.5
1302.91	183.7	2024.33
1303.01	183.6	2037.79
1303.11	183.5	2006.76
1303.21	183.4	2026.83
1303.31	183.3	2003.99
1303.41	183.2	1974.97
1303.51	183.1	1966.46
1303.61	183	2017.4
1303.71	182.9	2011.23
1303.81	182.8	2017.69
1303.91	182.7	2058.22
1304.01	182.6	2030.92
1304.11	182.5	2016.66
1304.21	182.4	1987.18
1304.31	182.3	1945.58
1304.41	182.2	2008.46
1304.51	182.1	2001.8
1304.61	182	2004.77
1304.71	181.9	2014.49
1304.81	181.8	1965.64
1304.91	181.7	2027.83
1305.01	181.6	2014.28
1305.11	181.5	2009.22
1305.21	181.4	2040.43
1305.31	181.3	2021.59
1305.41	181.2	1964.05
1305.51	181.1	2035.04
1305.61	181	2015.43
1305.71	180.9	2051.99
1305.81	180.8	1994.31
1305.91	180.7	2025.43
1306.01	180.6	2092.32
1306.11	180.5	2058.18
1306.21	180.4	2056.75
1306.31	180.3	2030.31
1306.41	180.2	2022.53
1306.51	180.1	1980.09
1306.61	180	2026.47
1306.71	179.9	2060.21
1306.81	179.8	2072.64
1306.91	179.7	2045.43
1307.01	179.6	2042.03
1307.11	179.5	2049.59
1307.21	179.4	2035.34
1307.31	179.3	2050.26
1307.41	179.2	2049.89
1307.51	179.1	2035.15
1307.61	179	2006.3
1307.71	178.9	2016.93
1307.81	178.8	2050.01
1307.91	178.7	2085.63
1308.01	178.6	2038.93
1308.11	178.5	2075.28
1308.21	178.4	2012.75
1308.31	178.3	2031.96
1308.41	178.2	2041.45
1308.51	178.1	2033.25
1308.61	178	2081.51
1308.71	177.9	2091.49
1308.81	177.8	2083.68
1308.91	177.7	2082.72
1309.01	177.6	2083.59
1309.11	177.5	2050.52
1309.21	177.4	2068.3
1309.31	177.3	2034.06
1309.41	177.2	2026.47
1309.51	177.1	2059.4
1309.61	177	1998.83
1309.71	176.9	2065.67
1309.81	176.8	2067.01
1309.91	176.7	2090.68
1310.01	176.6	2064.36
1310.11	176.5	2058.3
1310.21	176.4	2056.19
1310.31	176.3	2089.58
1310.41	176.2	2059.05
1310.51	176.1	2063.37
1310.61	176	2038.63
1310.71	175.9	2015.78
1310.81	175.8	2071.32
1310.91	175.7	2058.51
1311.01	175.6	2034.08
1311.11	175.5	2058.3
1311.21	175.4	2068.62
1311.31	175.3	2104.12
1311.41	175.2	2070.47
1311.51	175.1	2090.03
1311.61	175	2034.88
1311.71	174.9	2049.16
1311.81	174.8	2146.52
1311.91	174.7	2082.86
1312.01	174.6	2059.63
1312.11	174.5	2074.65
1312.21	174.4	2064.53
1312.31	174.3	2072.7
1312.41	174.2	2120.68
1312.51	174.1	2108.59
1312.61	174	2100.13
1312.71	173.9	2065.7
1312.81	173.8	2027.26
1312.91	173.7	2043.03
1313.01	173.6	2067.36
1313.11	173.5	2093.09
1313.21	173.4	2056.43
1313.31	173.3	2101.74
1313.41	173.2	2117.62
1313.51	173.1	2111.23
1313.61	173	2080.59
1313.71	172.9	2093.41
1313.81	172.8	2146.45
1313.91	172.7	2080.09
1314.01	172.6	2092.57
1314.11	172.5	2080.51
1314.21	172.4	2111.3
1314.31	172.3	2131.55
1314.41	172.2	2087.05
1314.51	172.1	2091.97
1314.61	172	2110.35
1314.71	171.9	2097.3
1314.81	171.8	2147.94
1314.91	171.7	2118.49
1315.01	171.6	2078.89
1315.11	171.5	2107.66
1315.21	171.4	2092.7
1315.31	171.3	2117.16
1315.41	171.2	2152.97
1315.51	171.1	2079.76
1315.61	171	2105.33
1315.71	170.9	2110.63
1315.81	170.8	2097.51
1315.91	170.7	2095.75
1316.01	170.6	2052.3
1316.11	170.5	2078.53
1316.21	170.4	2103.82
1316.31	170.3	2115
1316.41	170.2	2087.15
1316.51	170.1	2093.81
1316.61	170	2116.23
1316.71	169.9	2104.8
1316.81	169.8	2111.03
1316.91	169.7	2115.57
1317.01	169.6	2068.22
1317.11	169.5	2110.09
1317.21	169.4	2063.66
1317.31	169.3	2139.02
1317.41	169.2	2127
1317.51	169.1	2138.26
1317.61	169	2086.01
1317.71	168.9	2097.89
1317.81	168.8	2079.37
1317.91	168.7	2132.59
1318.01	168.6	2135.77
1318.11	168.5	2122.03
1318.21	168.4	2134.3
1318.31	168.3	2124.72
1318.41	168.2	2131.05
1318.51	168.1	2126.78
1318.61	168	2119.61
1318.71	167.9	2099.04
1318.81	167.8	2121.28
1318.91	167.7	2151.76
1319.01	167.6	2134.3
1319.11	167.5	2124.73
1319.21	167.4	2145.74
1319.31	167.3	2145.01
1319.41	167.2	2107.38
1319.51	167.1	2138.15
1319.61	167	2198.72
1319.71	166.9	2141.45
1319.81	166.8	2154.37
1319.91	166.7	2148.87
1320.01	166.6	2099.98
1320.11	166.5	2132.36
1320.21	166.4	2129.22
1320.31	166.3	2127.4
1320.41	166.2	2164.69
1320.51	166.1	2167.41
1320.61	166	2219.86
1320.71	165.9	2139.86
1320.81	165.8	2136.67
1320.91	165.7	2120.64
1321.01	165.6	2158.34
1321.11	165.5	2149.31
1321.21	165.4	2188.32
1321.31	165.3	2160.09
1321.41	165.2	2159.43
1321.51	165.1	2121.57
1321.61	165	2156.3
1321.71	164.9	2139.8
1321.81	164.8	2138.24
1321.91	164.7	2152.84
1322.01	164.6	2163.57
1322.11	164.5	2172.6
1322.21	164.4	2143.76
1322.31	164.3	2220.24
1322.41	164.2	2206.45
1322.51	164.1	2180.83
1322.61	164	2178.4
1322.71	163.9	2184.55
1322.81	163.8	2181.6
1322.91	163.7	2194.18
1323.01	163.6	2175.34
1323.11	163.5	2211.8
1323.21	163.4	2236.14
1323.31	163.3	2203.64
1323.41	163.2	2198.84
1323.51	163.1	2178.22
1323.61	163	2232.32
1323.71	162.9	2207.62
1323.81	162.8	2221.43
1323.91	162.7	2251.07
1324.01	162.6	2272.45
1324.11	162.5	2271.61
1324.21	162.4	2267.74
1324.31	162.3	2242.7
1324.41	162.2	2295.32
1324.51	162.1	2281.9
1324.61	162	2262
1324.71	161.9	2215.76
1324.81	161.8	2243.29
1324.91	161.7	2302.17
1325.01	161.6	2275.17
1325.11	161.5	2270.98
1325.21	161.4	2263.07
1325.31	161.3	2189.9
1325.41	161.2	2217.99
1325.51	161.1	2231.8
1325.61	161	2235.18
1325.71	160.9	2215.12
1325.81	160.8	2212.14
1325.91	160.7	2178.01
1326.01	160.6	2153.84
1326.11	160.5	2152.03
1326.21	160.4	2180.41
1326.31	160.3	2176.63
1326.41	160.2	2193.84
1326.51	160.1	2201.59
1326.61	160	2197.95
1326.71	159.9	2190.05
1326.81	159.8	2130.09
1326.91	159.7	2172.34
1327.01	159.6	2181.01
1327.11	159.5	2198.6
1327.21	159.4	2230.86
1327.31	159.3	2229.92
1327.41	159.2	2208
1327.51	159.1	2171.47
1327.61	159	2208.9
1327.71	158.9	2214.11
1327.81	158.8	2235.13
1327.91	158.7	2210.28
1328.01	158.6	2243.51
1328.11	158.5	2228.72
1328.21	158.4	2226.46
1328.31	158.3	2171.55
1328.41	158.2	2212.42
1328.51	158.1	2237.99
1328.61	158	2259.95
1328.71	157.9	2235.6
1328.81	157.8	2236.39
1328.91	157.7	2209.99
1329.01	157.6	2172.59
1329.11	157.5	2147.59
1329.21	157.4	2186.47
1329.31	157.3	2216.72
1329.41	157.2	2206.71
1329.51	157.1	2214.16
1329.61	157	2242.97
1329.71	156.9	2261.36
1329.81	156.8	2256.62
1329.91	156.7	2184.06
1330.01	156.6	2207.57
1330.11	156.5	2225.46
1330.21	156.4	2248.16
1330.31	156.3	2183.52
1330.41	156.2	2172.06
1330.51	156.1	2245.92
1330.61	156	2266.17
1330.71	155.9	2175.17
1330.81	155.8	2221.42
1330.91	155.7	2246.8
1331.01	155.6	2248.92
1331.11	155.5	2219.6
1331.21	155.4	2219.26
1331.31	155.3	2253.28
1331.41	155.2	2232.97
1331.51	155.1	2262.93
1331.61	155	2280.16
1331.71	154.9	2234.44
1331.81	154.8	2246.75
1331.91	154.7	2279.89
1332.01	154.6	2286.33
1332.11	154.5	2256.13
1332.21	154.4	2230.14
1332.31	154.3	2210.4
1332.41	154.2	2317.38
1332.51	154.1	2326.32
1332.61	154	2257.93
1332.71	153.9	2275.97
1332.81	153.8	2255.57
1332.91	153.7	2281.07
1333.01	153.6	2278.28
1333.11	153.5	2285.9
1333.21	153.4	2273.72
1333.31	153.3	2279.98
1333.41	153.2	2306.18
1333.51	153.1	2258.45
1333.61	153	2258.89
1333.71	152.9	2287.31
1333.81	152.8	2265.07
1333.91	152.7	2270.78
1334.01	152.6	2273.02
1334.11	152.5	2271.68
1334.21	152.4	2233.79
1334.31	152.3	2238.7
1334.41	152.2	2260.98
1334.51	152.1	2284.95
1334.61	152	2334.69
1334.71	151.9	2282.95
1334.81	151.8	2312.59
1334.91	151.7	2333.89
1335.01	151.6	2327.48
1335.11	151.5	2291.29
1335.21	151.4	2258.46
1335.31	151.3	2301.01
1335.41	151.2	2307.2
1335.51	151.1	2296.96
1335.61	151	2316.32
1335.71	150.9	2327.36
1335.81	150.8	2295.65
1335.91	150.7	2289.43
1336.01	150.6	2283.38
1336.11	150.5	2311.59
1336.21	150.4	2341.36
1336.31	150.3	2386.78
1336.41	150.2	2281.58
1336.51	150.1	2305.89
1336.61	150	2271.45
1336.71	149.9	2304.1
1336.81	149.8	2318.93
1336.91	149.7	2309.38
1337.01	149.6	2326.81
1337.11	149.5	2354.95
1337.21	149.4	2374.77
1337.31	149.3	2374.59
1337.41	149.2	2359.81
1337.51	149.1	2351.82
1337.61	149	2314.86
1337.71	148.9	2308.65
1337.81	148.8	2331.94
1337.91	148.7	2300.93
1338.01	148.6	2316.38
1338.11	148.5	2357.65
1338.21	148.4	2272.03
1338.31	148.3	2294.54
1338.41	148.2	2353.93
1338.51	148.1	2343.9
1338.61	148	2301.3
1338.71	147.9	2325.12
1338.81	147.8	2328.58
1338.91	147.7	2304.89
1339.01	147.6	2365.22
1339.11	147.5	2371.96
1339.21	147.4	2361.48
1339.31	147.3	2323.31
1339.41	147.2	2334.55
1339.51	147.1	2344.99
1339.61	147	2369.12
1339.71	146.9	2405.53
1339.81	146.8	2384.01
1339.91	146.7	2343.4
1340.01	146.6	2371.43
1340.11	146.5	2392.45
1340.21	146.4	2392.04
1340.31	146.3	2423.47
1340.41	146.2	2377.3
1340.51	146.1	2360.94
1340.61	146	2408.86
1340.71	145.9	2407.2
1340.81	145.8	2401.01
1340.91	145.7	2367.55
1341.01	145.6	2346.24
1341.11	145.5	2384.28
1341.21	145.4	2377.05
1341.31	145.3	2414.3
1341.41	145.2	2392.45
1341.51	145.1	2392.65
1341.61	145	2429.89
1341.71	144.9	2387.68
1341.81	144.8	2414.92
1341.91	144.7	2385.51
1342.01	144.6	2410.92
1342.11	144.5	2400.99
1342.21	144.4	2411.89
1342.31	144.3	2420.25
1342.41	144.2	2445.07
1342.51	144.1	2390.42
1342.61	144	2379.86
1342.71	143.9	2404.78
1342.81	143.8	2407.05
1342.91	143.7	2485.04
1343.01	143.6	2471.39
1343.11	143.5	2436.61
1343.21	143.4	2454.24
1343.31	143.3	2407.88
1343.41	143.2	2418.03
1343.51	143.1	2422.42
1343.61	143	2430.19
1343.71	142.9	2417.88
1343.81	142.8	2425
1343.91	142.7	2405.87
1344.01	142.6	2397.25
1344.11	142.5	2456.04
1344.21	142.4	2485.4
1344.31	142.3	2496.64
1344.41	142.2	2452.02
1344.51	142.1	2373.72
1344.61	142	2442.44
1344.71	141.9	2444.75
1344.81	141.8	2445.01
1344.91	141.7	2427.57
1345.01	141.6	2429.7
1345.11	141.5	2451.16
1345.21	141.4	2436.11
1345.31	141.3	2449.66
1345.41	141.2	2438.53
1345.51	141.1	2464.13
1345.61	141	2473.16
1345.71	140.9	2398.27
1345.81	140.8	2410.59
1345.91	140.7	2425.43
1346.01	140.6	2391.47
1346.11	140.5	2493.01
1346.21	140.4	2541.1
1346.31	140.3	2529.89
1346.41	140.2	2523.9
1346.51	140.1	2444.64
1346.61	140	2418.21
1346.71	139.9	2412.01
1346.81	139.8	2418.74
1346.91	139.7	2412.57
1347.01	139.6	2453.67
1347.11	139.5	2446.51
1347.21	139.4	2429.28
1347.31	139.3	2389.34
1347.41	139.2	2411.39
1347.51	139.1	2408.76
1347.61	139	2443.66
1347.71	138.9	2452.93
1347.81	138.8	2418.18
1347.91	138.7	2465.78
1348.01	138.6	2416.49
1348.11	138.5	2433.8
1348.21	138.4	2424.12
1348.31	138.3	2471.29
1348.41	138.2	2444.19
1348.51	138.1	2425.98
1348.61	138	2389.76
1348.71	137.9	2397.92
1348.81	137.8	2426.86
1348.91	137.7	2434.99
1349.01	137.6	2456.05
1349.11	137.5	2500.03
1349.21	137.4	2496.78
1349.31	137.3	2457.49
1349.41	137.2	2449.72
1349.51	137.1	2457.42
1349.61	137	2478.67
1349.71	136.9	2480.47
1349.81	136.8	2431.07
1349.91	136.7	2433.55
1350.01	136.6	2439.35
1350.11	136.5	2415.8
1350.21	136.4	2466.8
1350.31	136.3	2512.25
1350.41	136.2	2427.07
1350.51	136.1	2457.69
1350.61	136	2517.14
1350.71	135.9	2477.45
1350.81	135.8	2456.19
1350.91	135.7	2421.18
1351.01	135.6	2439.93
1351.11	135.5	2467.97
1351.21	135.4	2497.1
1351.31	135.3	2517.69
1351.41	135.2	2462.55
1351.51	135.1	2470.14
1351.61	135	2467.05
1351.71	134.9	2422.82
1351.81	134.8	2431.35
1351.91	134.7	2420.99
1352.01	134.6	2420.9
1352.11	134.5	2467.93
1352.21	134.4	2457.55
1352.31	134.3	2435.72
1352.41	134.2	2437.5
1352.51	134.1	2476.72
1352.61	134	2479.7
1352.71	133.9	2419.13
1352.81	133.8	2463.56
1352.91	133.7	2461.43
1353.01	133.6	2472.26
1353.11	133.5	2451.56
1353.21	133.4	2409.1
1353.31	133.3	2431.03
1353.41	133.2	2484.86
1353.51	133.1	2436.72
1353.61	133	2460.47
1353.71	132.9	2487.06
1353.81	132.8	2420.66
1353.91	132.7	2455.98
1354.01	132.6	2503.42
1354.11	132.5	2392.65
1354.21	132.4	2489.25
1354.31	132.3	2490.2
1354.41	132.2	2464.59
1354.51	132.1	2403.09
1354.61	132	2454.82
1354.71	131.9	2481.34
1354.81	131.8	2484.14
1354.91	131.7	2486.83
1355.01	131.6	2464.12
1355.11	131.5	2416.35
1355.21	131.4	2474.49
1355.31	131.3	2385.09
1355.41	131.2	2410.22
1355.51	131.1	2384.65
1355.61	131	2433.4
1355.71	130.9	2407.5
1355.81	130.8	2424.63
1355.91	130.7	2419.19
1356.01	130.6	2435.8
1356.11	130.5	2397.18
1356.21	130.4	2419.14
1356.31	130.3	2432.03
1356.41	130.2	2462.21
1356.51	130.1	2456.92
1356.61	130	2425.05
1356.71	129.9	2437.59
1356.81	129.8	2398.06
1356.91	129.7	2420.47
1357.01	129.6	2437.74
1357.11	129.5	2422.01
1357.21	129.4	2397.15
1357.31	129.3	2421.76
1357.41	129.2	2458.8
1357.51	129.1	2466.82
1357.61	129	2435.76
1357.71	128.9	2440.34
1357.81	128.8	2429.54
1357.91	128.7	2451.93
1358.01	128.6	2465.39
1358.11	128.5	2421.93
1358.21	128.4	2441.48
1358.31	128.3	2455.89
1358.41	128.2	2489.55
1358.51	128.1	2497.66
1358.61	128	2426.56
1358.71	127.9	2456.36
1358.81	127.8	2462.45
1358.91	127.7	2467.34
1359.01	127.6	2424.05
1359.11	127.5	2539.2
1359.21	127.4	2561.07
1359.31	127.3	2542.22
1359.41	127.2	2550.7
1359.51	127.1	2605.01
1359.61	127	2570.16
1359.71	126.9	2617.61
1359.81	126.8	2587.48
1359.91	126.7	2656.43
1360.01	126.6	2629.01
1360.11	126.5	2617.3
1360.21	126.4	2680.89
1360.31	126.3	2695.95
1360.41	126.2	2708.57
1360.51	126.1	2723.31
1360.61	126	2771.28
1360.71	125.9	2706.22
1360.81	125.8	2787.2
1360.91	125.7	2751.93
1361.01	125.6	2879.14
1361.11	125.5	2883.22
1361.21	125.4	2937.57
1361.31	125.3	2888.49
1361.41	125.2	2917.32
1361.51	125.1	2962.9
1361.61	125	2987.93
1361.71	124.9	3067.34
1361.81	124.8	3192.47
1361.91	124.7	3248.35
1362.01	124.6	3257.98
1362.11	124.5	3356.04
1362.21	124.4	3448.15
1362.31	124.3	3557.28
1362.41	124.2	3577.51
1362.51	124.1	3685.55
1362.61	124	3816.72
1362.71	123.9	3933.08
1362.81	123.8	4126.81
1362.91	123.7	4249.58
1363.01	123.6	4419.73
1363.11	123.5	4560.94
1363.21	123.4	4782.4
1363.31	123.3	4948.52
1363.41	123.2	5120.65
1363.51	123.1	5267.8
1363.61	123	5540.15
1363.71	122.9	5667.65
1363.81	122.8	5833.85
1363.91	122.7	5913.6
1364.01	122.6	5947.7
1364.11	122.5	5941.25
1364.21	122.4	5956.05
1364.31	122.3	5879.8
1364.41	122.2	5755.55
1364.51	122.1	5540.25
1364.61	122	5354.9
1364.71	121.9	5156.4
1364.81	121.8	4992.34
1364.91	121.7	4742.1
1365.01	121.6	4532.27
1365.11	121.5	4336.51
1365.21	121.4	4073.26
1365.31	121.3	3875.26
1365.41	121.2	3690.07
1365.51	121.1	3640.53
1365.61	121	3514.64
1365.71	120.9	3401.72
1365.81	120.8	3316.12
1365.91	120.7	3149.74
1366.01	120.6	3037.74
1366.11	120.5	2946.15
1366.21	120.4	2897.1
1366.31	120.3	2800.5
1366.41	120.2	2786.4
1366.51	120.1	2714.08
1366.61	120	2702.17
1366.71	119.9	2629.76
1366.81	119.8	2540.51
1366.91	119.7	2555.61
1367.01	119.6	2505.07
1367.11	119.5	2457.07
1367.21	119.4	2474.27
1367.31	119.3	2432.86
1367.41	119.2	2468.53
1367.51	119.1	2424.91
1367.61	119	2402.36
1367.71	118.9	2375.91
1367.81	118.8	2354.46
1367.91	118.7	2331.57
1368.01	118.6	2306.59
1368.11	118.5	2271.94
1368.21	118.4	2250.32
1368.31	118.3	2304.4
1368.41	118.2	2275.26
1368.51	118.1	2255.53
1368.61	118	2267.37
1368.71	117.9	2216.75
1368.81	117.8	2225.78
1368.91	117.7	2220.03
1369.01	117.6	2257.45
1369.11	117.5	2249.32
1369.21	117.4	2185.99
1369.31	117.3	2183.43
1369.41	117.2	2180.4
1369.51	117.1	2153.76
1369.61	117	2163.22
1369.71	116.9	2172.43
1369.81	116.8	2154.62
1369.91	116.7	2163.45
1370.01	116.6	2189.53
1370.11	116.5	2179.17
1370.21	116.4	2137.07
1370.31	116.3	2187.61
1370.41	116.2	2160.2
1370.51	116.1	2129.12
1370.61	116	2123.45
1370.71	115.9	2147.63
1370.81	115.8	2126.9
1370.91	115.7	2154.54
1371.01	115.6	2200.26
1371.11	115.5	2120.67
1371.21	115.4	2088.51
1371.31	115.3	2083.91
1371.41	115.2	2107.78
1371.51	115.1	2094.95
1371.61	115	2130.7
1371.71	114.9	2107.78
1371.81	114.8	2145.42
1371.91	114.7	2134.16
1372.01	114.6	2080.8
1372.11	114.5	2103.36
1372.21	114.4	2115.57
1372.31	114.3	2111.36
1372.41	114.2	2096.3
1372.51	114.1	2085.3
1372.61	114	2114.61
1372.71	113.9	2066.06
1372.81	113.8	2063.56
1372.91	113.7	2105.92
1373.01	113.6	2130.99
1373.11	113.5	2105.53
1373.21	113.4	2094.95
1373.31	113.3	2084.07
1373.41	113.2	2128.95
1373.51	113.1	2120.57
1373.61	113	2127.49
1373.71	112.9	2127.89
1373.81	112.8	2171.53
1373.91	112.7	2080.99
1374.01	112.6	2115.82
1374.11	112.5	2132.55
1374.21	112.4	2109.14
1374.31	112.3	2109.72
1374.41	112.2	2086.01
1374.51	112.1	2113.19
1374.61	112	2150.22
1374.71	111.9	2092.82
1374.81	111.8	2078.65
1374.91	111.7	2089.36
1375.01	111.6	2155.49
1375.11	111.5	2102.51
1375.21	111.4	2112.14
1375.31	111.3	2141.11
1375.41	111.2	2096.12
1375.51	111.1	2113.57
1375.61	111	2117.24
1375.71	110.9	2142.3
1375.81	110.8	2186.15
1375.91	110.7	2127.59
1376.01	110.6	2120.24
1376.11	110.5	2130.68
1376.21	110.4	2118.49
1376.31	110.3	2155.17
1376.41	110.2	2175.92
1376.51	110.1	2124.34
1376.61	110	2117.51
1376.71	109.9	2198.43
1376.81	109.8	2160.12
1376.91	109.7	2147.11
1377.01	109.6	2108.16
1377.11	109.5	2153.01
1377.21	109.4	2186.4
1377.31	109.3	2161.53
1377.41	109.2	2148.93
1377.51	109.1	2131.76
1377.61	109	2117.32
1377.71	108.9	2143.39
1377.81	108.8	2203.85
1377.91	108.7	2204.01
1378.01	108.6	2180.88
1378.11	108.5	2183.78
1378.21	108.4	2155.93
1378.31	108.3	2154.24
1378.41	108.2	2154.95
1378.51	108.1	2169.16
1378.61	108	2160.76
1378.71	107.9	2177.15
1378.81	107.8	2210.87
1378.91	107.7	2252.98
1379.01	107.6	2228.09
1379.11	107.5	2193.22
1379.21	107.4	2232.03
1379.31	107.3	2224.76
1379.41	107.2	2227.63
1379.51	107.1	2283.63
1379.61	107	2229.86
1379.71	106.9	2220.65
1379.81	106.8	2244.2
1379.91	106.7	2208.75
1380.01	106.6	2256.42
1380.11	106.5	2248.14
1380.21	106.4	2234.61
1380.31	106.3	2239.74
1380.41	106.2	2227.54
1380.51	106.1	2241.2
1380.61	106	2290.63
1380.71	105.9	2304.2
1380.81	105.8	2279.91
1380.91	105.7	2270.13
1381.01	105.6	2298.78
1381.11	105.5	2329.16
1381.21	105.4	2270.4
1381.31	105.3	2335.07
1381.41	105.2	2300.93
1381.51	105.1	2281.41
1381.61	105	2286.91
1381.71	104.9	2320.91
1381.81	104.8	2289.77
1381.91	104.7	2334.7
1382.01	104.6	2310.36
1382.11	104.5	2284.4
1382.21	104.4	2327.65
1382.31	104.3	2324.78
1382.41	104.2	2294.01
1382.51	104.1	2361.45
1382.61	104	2368.59
1382.71	103.9	2394.22
1382.81	103.8	2354.99
1382.91	103.7	2343.59
1383.01	103.6	2377.88
1383.11	103.5	2344.45
1383.21	103.4	2315.3
1383.31	103.3	2337.63
1383.41	103.2	2344.61
1383.51	103.1	2322.78
1383.61	103	2317.13
1383.71	102.9	2367.88
1383.81	102.8	2337.07
1383.91	102.7	2294.57
1384.01	102.6	2360.57
1384.11	102.5	2374.8
1384.21	102.4	2383.07
1384.31	102.3	2373.38
1384.41	102.2	2365.95
1384.51	102.1	2394.7
1384.61	102	2408.14
1384.71	101.9	2347.59
1384.81	101.8	2353.78
1384.91	101.7	2341.31
1385.01	101.6	2418.82
1385.11	101.5	2390.06
1385.21	101.4	2344.13
1385.31	101.3	2370.51
1385.41	101.2	2377.37
1385.51	101.1	2363.24
1385.61	101	2413.76
1385.71	100.9	2361.28
1385.81	100.8	2361.08
1385.91	100.7	2344.34
1386.01	100.6	2373.01
1386.11	100.5	2404.97
1386.21	100.4	2328.38
1386.31	100.3	2359.72
1386.41	100.2	2362.77
1386.51	100.1	2404.36
1386.61	100	2406.16
1386.71	99.9	2402.9
1386.81	99.8	2357.64
1386.91	99.7	2378.16
1387.01	99.6	2425.8
1387.11	99.5	2383.53
1387.21	99.4	2403.14
1387.31	99.3	2430.9
1387.41	99.2	2499.72
1387.51	99.1	2444.77
1387.61	99	2489.83
1387.71	98.9	2429.24
1387.81	98.8	2460.22
1387.91	98.7	2422.5
1388.01	98.6	2422
1388.11	98.5	2465.6
1388.21	98.4	2434.51
1388.31	98.3	2415.28
1388.41	98.2	2425.74
1388.51	98.1	2484.14
1388.61	98	2448.05
1388.71	97.9	2388.72
1388.81	97.8	2396.05
1388.91	97.7	2455.63
1389.01	97.6	2446.9
1389.11	97.5	2464.64
1389.21	97.4	2488.94
1389.31	97.3	2484.45
1389.41	97.2	2488.9
1389.51	97.1	2535.16
1389.61	97	2516.72
1389.71	96.9	2512.42
1389.81	96.8	2496.78
1389.91	96.7	2479.64
1390.01	96.6	2438.57
1390.11	96.5	2506.13
1390.21	96.4	2514.11
1390.31	96.3	2468.78
1390.41	96.2	2485.95
1390.51	96.1	2484.63
1390.61	96	2487.9
1390.71	95.9	2528.15
1390.81	95.8	2474.16
1390.91	95.7	2487.56
1391.01	95.6	2536.28
1391.11	95.5	2518.68
1391.21	95.4	2444.28
1391.31	95.3	2468.75
1391.41	95.2	2495.59
1391.51	95.1	2435.44
1391.61	95	2374.4
1391.71	94.9	2485.84
1391.81	94.8	2519.8
1391.91	94.7	2536.82
1392.01	94.6	2521.26
1392.11	94.5	2452.54
1392.21	94.4	2467.28
1392.31	94.3	2454.55
1392.41	94.2	2445.28
1392.51	94.1	2393.57
1392.61	94	2465.36
1392.71	93.9	2391.03
1392.81	93.8	2365.81
1392.91	93.7	2343.61
1393.01	93.6	2365.07
1393.11	93.5	2348.28
1393.21	93.4	2353.55
1393.31	93.3	2353.18
1393.41	93.2	2333.16
1393.51	93.1	2345.67
1393.61	93	2290.43
1393.71	92.9	2262.72
1393.81	92.8	2305.59
1393.91	92.7	2306.77
1394.01	92.6	2306.69
1394.11	92.5	2254.09
1394.21	92.4	2287.34
1394.31	92.3	2222.66
1394.41	92.2	2221.63
1394.51	92.1	2296.22
1394.61	92	2275.55
1394.71	91.9	2250.41
1394.81	91.8	2259.45
1394.91	91.7	2266.49
1395.01	91.6	2244.6
1395.11	91.5	2223.36
1395.21	91.4	2209.18
1395.31	91.3	2151.36
1395.41	91.2	2186.09
1395.51	91.1	2207.01
1395.61	91	2228.43
1395.71	90.9	2222
1395.81	90.8	2224.34
1395.91	90.7	2150.2
1396.01	90.6	2162.84
1396.11	90.5	2176.68
1396.21	90.4	2214.65
1396.31	90.3	2194.31
1396.41	90.2	2179.86
1396.51	90.1	2136.01
1396.61	90	2139.01
1396.71	89.9	2190.63
1396.81	89.8	2190.93
1396.91	89.7	2180.93
1397.01	89.6	2215.27
1397.11	89.5	2177.84
1397.21	89.4	2156.36
1397.31	89.3	2133.47
1397.41	89.2	2148.3
1397.51	89.1	2177.28
1397.61	89	2212.7
1397.71	88.9	2186.09
1397.81	88.8	2148.5
1397.91	88.7	2154.7
1398.01	88.6	2136.66
1398.11	88.5	2164.11
1398.21	88.4	2210.82
1398.31	88.3	2150.24
1398.41	88.2	2179.39
1398.51	88.1	2195.02
1398.61	88	2207.01
1398.71	87.9	2205.13
1398.81	87.8	2179.74
1398.91	87.7	2212
1399.01	87.6	2171.25
1399.11	87.5	2151.45
1399.21	87.4	2147.97
1399.31	87.3	2128.87
1399.41	87.2	2126.67
1399.51	87.1	2168.6
1399.61	87	2188.58
1399.71	86.9	2186.01
1399.81	86.8	2182.96
1399.91	86.7	2148.68
1400.01	86.6	2161.97
1400.11	86.5	2153.32
1400.21	86.4	2138.24
1400.31	86.3	2147.13
1400.41	86.2	2135.53
1400.51	86.1	2088.77
1400.61	86	2143.88
1400.71	85.9	2090.39
1400.81	85.8	2088.92
1400.91	85.7	2132.31
1401.01	85.6	2119.18
1401.11	85.5	2129.09
1401.21	85.4	2093.91
1401.31	85.3	2082.72
1401.41	85.2	2120.69
1401.51	85.1	2083.91
1401.61	85	2089.31
1401.71	84.9	2061.29
1401.81	84.8	2092.11
1401.91	84.7	2078.9
1402.01	84.6	2092.74
1402.11	84.5	2114.64
1402.21	84.4	2119.34
1402.31	84.3	2080.82
1402.41	84.2	2070.4
1402.51	84.1	2084.54
1402.61	84	2126.91
1402.71	83.9	2101.99
1402.81	83.8	2082.14
1402.91	83.7	2084.64
1403.01	83.6	2107.65
1403.11	83.5	2077.26
1403.21	83.4	2105.32
1403.31	83.3	2105.07
1403.41	83.2	2111.91
1403.51	83.1	2084.16
1403.61	83	2095.64
1403.71	82.9	2108.06
1403.81	82.8	2175.76
1403.91	82.7	2159.91
1404.01	82.6	2142.93
1404.11	82.5	2121.78
1404.21	82.4	2153.57
1404.31	82.3	2214.2
1404.41	82.2	2200.49
1404.51	82.1	2210.26
1404.61	82	2169.64
1404.71	81.9	2178.22
1404.81	81.8	2203.64
1404.91	81.7	2258.93
1405.01	81.6	2203.21
1405.11	81.5	2206.17
1405.21	81.4	2252.18
1405.31	81.3	2323.76
1405.41	81.2	2353.65
1405.51	81.1	2373.78
1405.61	81	2362.74
1405.71	80.9	2390.22
1405.81	80.8	2364.11
1405.91	80.7	2421.86
1406.01	80.6	2443.42
1406.11	80.5	2539.82
1406.21	80.4	2584.89
1406.31	80.3	2563.81
1406.41	80.2	2626.07
1406.51	80.1	2638.24
1406.61	80	2685.01
1406.71	79.9	2811.98
1406.81	79.8	2891.09
1406.91	79.7	2971.59
1407.01	79.6	3064.84
1407.11	79.5	3181.73
1407.21	79.4	3226.87
1407.31	79.3	3262.55
1407.41	79.2	3469.89
1407.51	79.1	3571.42
1407.61	79	3716.55
1407.71	78.9	3847.27
1407.81	78.8	4061.94
1407.91	78.7	4292.19
1408.01	78.6	4409.06
1408.11	78.5	4616.45
1408.21	78.4	4903.03
1408.31	78.3	5135.05
1408.41	78.2	5362.85
1408.51	78.1	5638.95
1408.61	78	5884.75
1408.71	77.9	6114.1
1408.81	77.8	6304.5
1408.91	77.7	6514.25
1409.01	77.6	6641.85
1409.11	77.5	6610.95
1409.21	77.4	6698.1
1409.31	77.3	6754.5
1409.41	77.2	6681.8
1409.51	77.1	6663.45
1409.61	77	6633.55
1409.71	76.9	6477.35
1409.81	76.8	6494.7
1409.91	76.7	6411.85
1410.01	76.6	6432.7
1410.11	76.5	6532.35
1410.21	76.4	6663.75
1410.31	76.3	6807.55
1410.41	76.2	6948.95
1410.51	76.1	7166.35
1410.61	76	7313.6
1410.71	75.9	7505.7
1410.81	75.8	7847.65
1410.91	75.7	8201.05
1411.01	75.6	8483.25
1411.11	75.5	8681.1
1411.21	75.4	8919.8
1411.31	75.3	9108.35
1411.41	75.2	9261.75
1411.51	75.1	9192.1
1411.61	75	9153.75
1411.71	74.9	8879.8
1411.81	74.8	8555.95
1411.91	74.7	8224.65
1412.01	74.6	7845.55
1412.11	74.5	7424.4
1412.21	74.4	6866.15
1412.31	74.3	6370.05
1412.41	74.2	5922.15
1412.51	74.1	5437.55
1412.61	74	5029.15
1412.71	73.9	4717.7
1412.81	73.8	4293.47
1412.91	73.7	3933.24
1413.01	73.6	3709.69
1413.11	73.5	3412.99
1413.21	73.4	3173.09
1413.31	73.3	2941.6
1413.41	73.2	2764.49
1413.51	73.1	2572.86
1413.61	73	2439.61
1413.71	72.9	2289.17
1413.81	72.8	2181.8
1413.91	72.7	2093.99
1414.01	72.6	1964.02
1414.11	72.5	1896
1414.21	72.4	1853.22
1414.31	72.3	1715.56
1414.41	72.2	1664.29
1414.51	72.1	1652.9
1414.61	72	1524.95
1414.71	71.9	1458.94
1414.81	71.8	1412.24
1414.91	71.7	1339.13
1415.01	71.6	1321.99
1415.11	71.5	1289.83
1415.21	71.4	1248.53
1415.31	71.3	1202.55
1415.41	71.2	1161.61
1415.51	71.1	1104.49
1415.61	71	1113.74
1415.71	70.9	1072.51
1415.81	70.8	1020.29
1415.91	70.7	1039.54
1416.01	70.6	1000.19
1416.11	70.5	971.365
1416.21	70.4	971.035
1416.31	70.3	923.915
1416.41	70.2	905.04
1416.51	70.1	869.765
1416.61	70	867.38
1416.71	69.9	866.905
1416.81	69.8	877.39
1416.91	69.7	849.595
1417.01	69.6	829.24
1417.11	69.5	807.04
1417.21	69.4	823.48
1417.31	69.3	803.21
1417.41	69.2	796.86
1417.51	69.1	759.24
1417.61	69	776.01
1417.71	68.9	776.845
1417.81	68.8	755.48
1417.91	68.7	689.2
1418.01	68.6	707.575
1418.11	68.5	698.475
1418.21	68.4	692.67
1418.31	68.3	697.04
1418.41	68.2	702.94
1418.51	68.1	681.885
1418.61	68	690.33
1418.71	67.9	699.91
1418.81	67.8	653.095
1418.91	67.7	654.69
1419.01	67.6	670.38
1419.11	67.5	637.075
1419.21	67.4	636.665
1419.31	67.3	641.335
1419.41	67.2	630.51
1419.51	67.1	608.55
1419.61	67	600.775
1419.71	66.9	622.185
1419.81	66.8	586.345
1419.91	66.7	606.065
1420.01	66.6	590.925
1420.11	66.5	601.52
1420.21	66.4	592.11
1420.31	66.3	579.815
1420.41	66.2	577.005
1420.51	66.1	575.18
1420.61	66	600.9
1420.71	65.9	576.265
1420.81	65.8	582.43
1420.91	65.7	562.2
1421.01	65.6	580.97
1421.11	65.5	560.5
1421.21	65.4	569.58
1421.31	65.3	570.41
1421.41	65.2	546.06
1421.51	65.1	556.28
1421.61	65	577.235
1421.71	64.9	582.395
1421.81	64.8	554.465
1421.91	64.7	556.435
1422.01	64.6	534.395
1422.11	64.5	551.935
1422.21	64.4	546.75
1422.31	64.3	561.905
1422.41	64.2	524.47
1422.51	64.1	528.49
1422.61	64	536.71
1422.71	63.9	558.79
1422.81	63.8	571.445
1422.91	63.7	537.21
1423.01	63.6	550.335
1423.11	63.5	550.195
1423.21	63.4	544.65
1423.31	63.3	547.27
1423.41	63.2	520.23
1423.51	63.1	537.045
1423.61	63	516.44
1423.71	62.9	510.41
1423.81	62.8	516.665
1423.91	62.7	537.645
1424.01	62.6	524.66
1424.11	62.5	507.49
1424.21	62.4	519.8
1424.31	62.3	521.97
1424.41	62.2	511.495
1424.51	62.1	506.52
1424.61	62	529.895
1424.71	61.9	523.24
1424.81	61.8	527.78
1424.91	61.7	515.155
1425.01	61.6	507.145
1425.11	61.5	502.635
1425.21	61.4	489.906
1425.31	61.3	503.315
1425.41	61.2	497.551
1425.51	61.1	490.7
1425.61	61	496.165
1425.71	60.9	535.825
1425.81	60.8	494.94
1425.91	60.7	513.295
1426.01	60.6	513.46
1426.11	60.5	526.295
1426.21	60.4	534.48
1426.31	60.3	525.145
1426.41	60.2	500.83
1426.51	60.1	498.024
1426.61	60	517.85
1426.71	59.9	510.525
1426.81	59.8	490.372
1426.91	59.7	511.145
1427.01	59.6	505.55
1427.11	59.5	509.645
1427.21	59.4	509.75
1427.31	59.3	494.411
1427.41	59.2	496.201
1427.51	59.1	497.889
1427.61	59	499.918
1427.71	58.9	500.46
1427.81	58.8	519.48
1427.91	58.7	495.492
1428.01	58.6	510.1
1428.11	58.5	506.76
1428.21	58.4	500.445
1428.31	58.3	497.677
1428.41	58.2	499.382
1428.51	58.1	498.838
1428.61	58	485.516
1428.71	57.9	504.965
1428.81	57.8	477.904
1428.91	57.7	467.005
1429.01	57.6	486.56
1429.11	57.5	489.591
1429.21	57.4	503.02
1429.31	57.3	481.668
1429.41	57.2	483.113
1429.51	57.1	496.134
1429.61	57	506.235
1429.71	56.9	497.245
1429.81	56.8	486.031
1429.91	56.7	495.463
1430.01	56.6	489.259
1430.11	56.5	473.616
1430.21	56.4	464.014
1430.31	56.3	492.104
1430.41	56.2	481.197
1430.51	56.1	497.027
1430.61	56	508.035
1430.71	55.9	509.05
1430.81	55.8	488.512
1430.91	55.7	482.683
1431.01	55.6	496.805
1431.11	55.5	472.864
1431.21	55.4	456.051
1431.31	55.3	477.341
1431.41	55.2	477.698
1431.51	55.1	494.678
1431.61	55	505.055
1431.71	54.9	494.029
1431.81	54.8	483.046
1431.91	54.7	465.108
1432.01	54.6	465.462
1432.11	54.5	466.394
1432.21	54.4	472.467
1432.31	54.3	471.772
1432.41	54.2	502.945
1432.51	54.1	484.548
1432.61	54	478.913
1432.71	53.9	481.511
1432.81	53.8	491.373
1432.91	53.7	488.25
1433.01	53.6	490.969
1433.11	53.5	492.484
1433.21	53.4	494.697
1433.31	53.3	486.061
1433.41	53.2	483.466
1433.51	53.1	479.209
1433.61	53	483.185
1433.71	52.9	491.192
1433.81	52.8	476.842
1433.91	52.7	481.935
1434.01	52.6	478.232
1434.11	52.5	480.93
1434.21	52.4	489.728
1434.31	52.3	502.705
1434.41	52.2	487.114
1434.51	52.1	462.878
1434.61	52	480.3
1434.71	51.9	483.796
1434.81	51.8	482.907
1434.91	51.7	510.025
1435.01	51.6	493.977
1435.11	51.5	507.175
1435.21	51.4	493.76
1435.31	51.3	483.219
1435.41	51.2	492.217
1435.51	51.1	491.644
1435.61	51	499.418
1435.71	50.9	491.996
1435.81	50.8	497.714
1435.91	50.7	498.615
1436.01	50.6	485.211
1436.11	50.5	494.109
1436.21	50.4	481.28
1436.31	50.3	488.565
1436.41	50.2	481.493
1436.51	50.1	501.83
1436.61	50	498.742
1436.71	49.9	483.878
1436.81	49.8	484.688
1436.91	49.7	478.377
1437.01	49.6	487.688
1437.11	49.5	485.514
1437.21	49.4	464.838
1437.31	49.3	479.236
1437.41	49.2	521.55
1437.51	49.1	500.535
1437.61	49	520.785
1437.71	48.9	508.46
1437.81	48.8	510.105
1437.91	48.7	487.996
1438.01	48.6	466.202
1438.11	48.5	499.804
1438.21	48.4	489.123
1438.31	48.3	518.005
1438.41	48.2	510.655
1438.51	48.1	499.599
1438.61	48	501.535
1438.71	47.9	495.41
1438.81	47.8	487.686
1438.91	47.7	484.541
1439.01	47.6	483.135
1439.11	47.5	496.7
1439.21	47.4	483.971
1439.31	47.3	491.022
1439.41	47.2	504.98
1439.51	47.1	488.577
1439.61	47	487.478
1439.71	46.9	487.053
1439.81	46.8	481.604
1439.91	46.7	489.867
1440.01	46.6	490.652
1440.11	46.5	485.737
1440.21	46.4	527.43
1440.31	46.3	490.935
1440.41	46.2	481.25
1440.51	46.1	473.959
1440.61	46	484.169
1440.71	45.9	500.65
1440.81	45.8	507.295
1440.91	45.7	496.045
1441.01	45.6	490.433
1441.11	45.5	504.54
1441.21	45.4	501.055
1441.31	45.3	485.036
1441.41	45.2	503.17
1441.51	45.1	497.959
1441.61	45	518.485
1441.71	44.9	497.143
1441.81	44.8	493.748
1441.91	44.7	499.467
1442.01	44.6	495.622
1442.11	44.5	518.43
1442.21	44.4	501.16
1442.31	44.3	507.13
1442.41	44.2	503.03
1442.51	44.1	507.965
1442.61	44	512.62
1442.71	43.9	509.135
1442.81	43.8	520.265
1442.91	43.7	498.397
1443.01	43.6	504.565
1443.11	43.5	493.953
1443.21	43.4	521.98
1443.31	43.3	512.9
1443.41	43.2	502.41
1443.51	43.1	501.23
1443.61	43	539.07
1443.71	42.9	546.89
1443.81	42.8	531.295
1443.91	42.7	499.043
1444.01	42.6	523.88
1444.11	42.5	512.36
1444.21	42.4	522.5
1444.31	42.3	504.43
1444.41	42.2	506.815
1444.51	42.1	533.835
1444.61	42	534.89
1444.71	41.9	517.7
1444.81	41.8	513.255
1444.91	41.7	512.455
1445.01	41.6	518.1
1445.11	41.5	515.985
1445.21	41.4	514.31
1445.31	41.3	504.41
1445.41	41.2	518.63
1445.51	41.1	515.235
1445.61	41	500.27
1445.71	40.9	519.995
1445.81	40.8	512.5
1445.91	40.7	532.04
1446.01	40.6	516.325
1446.11	40.5	541.885
1446.21	40.4	532.34
1446.31	40.3	523.545
1446.41	40.2	525.235
1446.51	40.1	518.535
1446.61	40	524.775