c:\users\mark\owncloud\muelheim group\projects\gas phase background\ex340_cec356_cu n2 largearea.vms
Cu3s
	Characteristic Energy eV	1486.61	Acquisition Time s	3
KE_Cu3s	BE_Cu3s	CPS_Cu3s
1266.61	220	985.403
1266.71	219.9	994.247
1266.81	219.8	971.59
1266.91	219.7	971.27
1267.01	219.6	987.253
1267.11	219.5	983.933
1267.21	219.4	974.953
1267.31	219.3	1002.89
1267.41	219.2	1002.53
1267.51	219.1	978.717
1267.61	219	991.8
1267.71	218.9	994.52
1267.81	218.8	984.587
1267.91	218.7	979.497
1268.01	218.6	1003.46
1268.11	218.5	1008.39
1268.21	218.4	992.217
1268.31	218.3	984.46
1268.41	218.2	983.803
1268.51	218.1	975.137
1268.61	218	1002.7
1268.71	217.9	969.973
1268.81	217.8	982.367
1268.91	217.7	981.747
1269.01	217.6	968.817
1269.11	217.5	988.263
1269.21	217.4	971.353
1269.31	217.3	970.313
1269.41	217.2	990.75
1269.51	217.1	978.093
1269.61	217	994.033
1269.71	216.9	964.987
1269.81	216.8	985.98
1269.91	216.7	1004.59
1270.01	216.6	1004.87
1270.11	216.5	984.56
1270.21	216.4	987.753
1270.31	216.3	986.293
1270.41	216.2	1011.15
1270.51	216.1	1012.57
1270.61	216	1025.12
1270.71	215.9	1015.25
1270.81	215.8	1002.04
1270.91	215.7	968.627
1271.01	215.6	978.75
1271.11	215.5	1001.92
1271.21	215.4	970.907
1271.31	215.3	982.34
1271.41	215.2	987.42
1271.51	215.1	985.237
1271.61	215	971.173
1271.71	214.9	989.653
1271.81	214.8	991.61
1271.91	214.7	962.373
1272.01	214.6	991.677
1272.11	214.5	984.933
1272.21	214.4	1018.2
1272.31	214.3	995.71
1272.41	214.2	996.103
1272.51	214.1	1016.71
1272.61	214	974.72
1272.71	213.9	984.487
1272.81	213.8	988.463
1272.91	213.7	995.58
1273.01	213.6	994.763
1273.11	213.5	1015.52
1273.21	213.4	1014.02
1273.31	213.3	984.007
1273.41	213.2	987.51
1273.51	213.1	1001.52
1273.61	213	1011.24
1273.71	212.9	1007.1
1273.81	212.8	1034.69
1273.91	212.7	1011.92
1274.01	212.6	1009.81
1274.11	212.5	988.333
1274.21	212.4	1011.92
1274.31	212.3	1001.88
1274.41	212.2	1010.45
1274.51	212.1	1013.14
1274.61	212	989.37
1274.71	211.9	993.52
1274.81	211.8	994.357
1274.91	211.7	980.59
1275.01	211.6	1000.51
1275.11	211.5	1008.86
1275.21	211.4	1021.57
1275.31	211.3	1018.63
1275.41	211.2	1010.04
1275.51	211.1	1024.27
1275.61	211	1023.55
1275.71	210.9	988.303
1275.81	210.8	985.773
1275.91	210.7	1020.09
1276.01	210.6	1003.42
1276.11	210.5	990.46
1276.21	210.4	976.473
1276.31	210.3	995.667
1276.41	210.2	1008.94
1276.51	210.1	1018.41
1276.61	210	1009.48
1276.71	209.9	999.62
1276.81	209.8	998.543
1276.91	209.7	1019.17
1277.01	209.6	1009.03
1277.11	209.5	1009.14
1277.21	209.4	1006.02
1277.31	209.3	1005.71
1277.41	209.2	1001.01
1277.51	209.1	997.1
1277.61	209	991.49
1277.71	208.9	989.517
1277.81	208.8	978.333
1277.91	208.7	1003.31
1278.01	208.6	993.727
1278.11	208.5	1005.19
1278.21	208.4	1024.16
1278.31	208.3	1017.98
1278.41	208.2	993.117
1278.51	208.1	1004.04
1278.61	208	1021.64
1278.71	207.9	1032.6
1278.81	207.8	1029.59
1278.91	207.7	999.013
1279.01	207.6	1003.39
1279.11	207.5	998.067
1279.21	207.4	1001.6
1279.31	207.3	1012.76
1279.41	207.2	1025.76
1279.51	207.1	1012.27
1279.61	207	990.147
1279.71	206.9	1001.8
1279.81	206.8	1022.38
1279.91	206.7	1020.26
1280.01	206.6	992.91
1280.11	206.5	1004.98
1280.21	206.4	1038.32
1280.31	206.3	1030.4
1280.41	206.2	1038.1
1280.51	206.1	978.8
1280.61	206	992.253
1280.71	205.9	1022.18
1280.81	205.8	1032.95
1280.91	205.7	1019.33
1281.01	205.6	1026.83
1281.11	205.5	1030.11
1281.21	205.4	1038.73
1281.31	205.3	1017.85
1281.41	205.2	1032.75
1281.51	205.1	1029.22
1281.61	205	995.803
1281.71	204.9	1029.7
1281.81	204.8	1022.38
1281.91	204.7	1010.26
1282.01	204.6	1038.18
1282.11	204.5	1035.86
1282.21	204.4	1048.18
1282.31	204.3	1026.27
1282.41	204.2	1006.6
1282.51	204.1	1043.51
1282.61	204	1011.26
1282.71	203.9	1010.03
1282.81	203.8	1041.14
1282.91	203.7	1052.37
1283.01	203.6	1043.61
1283.11	203.5	1021.98
1283.21	203.4	1010.41
1283.31	203.3	1033.35
1283.41	203.2	1032.62
1283.51	203.1	1035.67
1283.61	203	1010.08
1283.71	202.9	1031.58
1283.81	202.8	1011.8
1283.91	202.7	1020.2
1284.01	202.6	1048.27
1284.11	202.5	1037.89
1284.21	202.4	1023.14
1284.31	202.3	1010.05
1284.41	202.2	1009.08
1284.51	202.1	1026.08
1284.61	202	1041.78
1284.71	201.9	1025.63
1284.81	201.8	1023.26
1284.91	201.7	1015.9
1285.01	201.6	1025.03
1285.11	201.5	1032.25
1285.21	201.4	1004.54
1285.31	201.3	1044.08
1285.41	201.2	1037.82
1285.51	201.1	1030.87
1285.61	201	1056.75
1285.71	200.9	1067.93
1285.81	200.8	1053.75
1285.91	200.7	1037.59
1286.01	200.6	1023.88
1286.11	200.5	1069.03
1286.21	200.4	1047.84
1286.31	200.3	1048.62
1286.41	200.2	1040.46
1286.51	200.1	1038.98
1286.61	200	1037.32
1286.71	199.9	1069.53
1286.81	199.8	1047.57
1286.91	199.7	1036.95
1287.01	199.6	1038.94
1287.11	199.5	1018.36
1287.21	199.4	1036.36
1287.31	199.3	1024.83
1287.41	199.2	1036.23
1287.51	199.1	1045.89
1287.61	199	1048.01
1287.71	198.9	1039.15
1287.81	198.8	1035.1
1287.91	198.7	1049.77
1288.01	198.6	1030.53
1288.11	198.5	1050.19
1288.21	198.4	1006.89
1288.31	198.3	1027.45
1288.41	198.2	1077.34
1288.51	198.1	1021.54
1288.61	198	1032.24
1288.71	197.9	1039.9
1288.81	197.8	1063.1
1288.91	197.7	1020.38
1289.01	197.6	1039.38
1289.11	197.5	1025.1
1289.21	197.4	1044.33
1289.31	197.3	1039.6
1289.41	197.2	1041.93
1289.51	197.1	1059.26
1289.61	197	1044.54
1289.71	196.9	1033.55
1289.81	196.8	1041.68
1289.91	196.7	1049.22
1290.01	196.6	1040.16
1290.11	196.5	1058.68
1290.21	196.4	1056.49
1290.31	196.3	1058.51
1290.41	196.2	1051.21
1290.51	196.1	1034.46
1290.61	196	1067.31
1290.71	195.9	1046.72
1290.81	195.8	1038.5
1290.91	195.7	1044.1
1291.01	195.6	1044.57
1291.11	195.5	1030.18
1291.21	195.4	1054.92
1291.31	195.3	1034.97
1291.41	195.2	1040.01
1291.51	195.1	1047.78
1291.61	195	1066.4
1291.71	194.9	1088.47
1291.81	194.8	1065.52
1291.91	194.7	1054.82
1292.01	194.6	1085.43
1292.11	194.5	1076.9
1292.21	194.4	1037.88
1292.31	194.3	1057.36
1292.41	194.2	1080.4
1292.51	194.1	1057.05
1292.61	194	1037.01
1292.71	193.9	1057.03
1292.81	193.8	1055.71
1292.91	193.7	1043.16
1293.01	193.6	1032.21
1293.11	193.5	1074.3
1293.21	193.4	1062.65
1293.31	193.3	1057.65
1293.41	193.2	1050.62
1293.51	193.1	1056.99
1293.61	193	1069.97
1293.71	192.9	1066.62
1293.81	192.8	1053.2
1293.91	192.7	1056.06
1294.01	192.6	1045.35
1294.11	192.5	1068.69
1294.21	192.4	1056.62
1294.31	192.3	1052.58
1294.41	192.2	1073.58
1294.51	192.1	1039.24
1294.61	192	1065.27
1294.71	191.9	1056.28
1294.81	191.8	1062.69
1294.91	191.7	1071.09
1295.01	191.6	1067.78
1295.11	191.5	1080.51
1295.21	191.4	1089.11
1295.31	191.3	1065.41
1295.41	191.2	1023.92
1295.51	191.1	1046.84
1295.61	191	1053.38
1295.71	190.9	1047.98
1295.81	190.8	1061.34
1295.91	190.7	1050.8
1296.01	190.6	1054.42
1296.11	190.5	1071.66
1296.21	190.4	1098.81
1296.31	190.3	1099.04
1296.41	190.2	1088.9
1296.51	190.1	1033.4
1296.61	190	1058.58
1296.71	189.9	1073.65
1296.81	189.8	1066.83
1296.91	189.7	1080.6
1297.01	189.6	1075.93
1297.11	189.5	1063.39
1297.21	189.4	1062.96
1297.31	189.3	1063.79
1297.41	189.2	1062.02
1297.51	189.1	1064.31
1297.61	189	1071.52
1297.71	188.9	1075.96
1297.81	188.8	1076.82
1297.91	188.7	1068.51
1298.01	188.6	1096.14
1298.11	188.5	1068.97
1298.21	188.4	1067.87
1298.31	188.3	1059.52
1298.41	188.2	1046.35
1298.51	188.1	1061.11
1298.61	188	1076.76
1298.71	187.9	1078.43
1298.81	187.8	1084.95
1298.91	187.7	1057.06
1299.01	187.6	1059.06
1299.11	187.5	1063.87
1299.21	187.4	1053.14
1299.31	187.3	1085.95
1299.41	187.2	1067.42
1299.51	187.1	1076.02
1299.61	187	1075.91
1299.71	186.9	1062.93
1299.81	186.8	1075.38
1299.91	186.7	1104.61
1300.01	186.6	1073.27
1300.11	186.5	1075.8
1300.21	186.4	1090.79
1300.31	186.3	1089.78
1300.41	186.2	1071.32
1300.51	186.1	1111.87
1300.61	186	1084.07
1300.71	185.9	1107.03
1300.81	185.8	1088.58
1300.91	185.7	1078.92
1301.01	185.6	1073.66
1301.11	185.5	1076.18
1301.21	185.4	1125.74
1301.31	185.3	1074.87
1301.41	185.2	1056.81
1301.51	185.1	1097.2
1301.61	185	1092.22
1301.71	184.9	1103.9
1301.81	184.8	1109.66
1301.91	184.7	1083.02
1302.01	184.6	1076.32
1302.11	184.5	1085.4
1302.21	184.4	1096.73
1302.31	184.3	1083.94
1302.41	184.2	1100.79
1302.51	184.1	1116.05
1302.61	184	1083.48
1302.71	183.9	1088.59
1302.81	183.8	1094.11
1302.91	183.7	1074.85
1303.01	183.6	1077.52
1303.11	183.5	1108.41
1303.21	183.4	1097.66
1303.31	183.3	1124.79
1303.41	183.2	1078.72
1303.51	183.1	1099.14
1303.61	183	1123.44
1303.71	182.9	1077.81
1303.81	182.8	1110.27
1303.91	182.7	1110.82
1304.01	182.6	1132.37
1304.11	182.5	1103.2
1304.21	182.4	1082.46
1304.31	182.3	1091.51
1304.41	182.2	1084.77
1304.51	182.1	1098.15
1304.61	182	1098.88
1304.71	181.9	1127.78
1304.81	181.8	1106.54
1304.91	181.7	1084.3
1305.01	181.6	1089.93
1305.11	181.5	1082.27
1305.21	181.4	1082.71
1305.31	181.3	1086.91
1305.41	181.2	1088.99
1305.51	181.1	1118.58
1305.61	181	1102.87
1305.71	180.9	1104.01
1305.81	180.8	1104.33
1305.91	180.7	1087.32
1306.01	180.6	1097.41
1306.11	180.5	1110.32
1306.21	180.4	1078.32
1306.31	180.3	1077.89
1306.41	180.2	1096.05
1306.51	180.1	1104.16
1306.61	180	1099.68
1306.71	179.9	1094.28
1306.81	179.8	1101.26
1306.91	179.7	1098.2
1307.01	179.6	1109.31
1307.11	179.5	1098.86
1307.21	179.4	1091.23
1307.31	179.3	1107.02
1307.41	179.2	1100.16
1307.51	179.1	1068.22
1307.61	179	1100.57
1307.71	178.9	1105.39
1307.81	178.8	1106.86
1307.91	178.7	1086.92
1308.01	178.6	1098.89
1308.11	178.5	1096.57
1308.21	178.4	1111.46
1308.31	178.3	1102.76
1308.41	178.2	1090.99
1308.51	178.1	1106.27
1308.61	178	1088.95
1308.71	177.9	1104.98
1308.81	177.8	1112.15
1308.91	177.7	1093.16
1309.01	177.6	1116.03
1309.11	177.5	1120.15
1309.21	177.4	1121.58
1309.31	177.3	1124.55
1309.41	177.2	1108.68
1309.51	177.1	1108.14
1309.61	177	1108.12
1309.71	176.9	1113.38
1309.81	176.8	1092.49
1309.91	176.7	1098.23
1310.01	176.6	1122
1310.11	176.5	1123.98
1310.21	176.4	1115.6
1310.31	176.3	1121.92
1310.41	176.2	1160.66
1310.51	176.1	1160.56
1310.61	176	1117.95
1310.71	175.9	1123.56
1310.81	175.8	1123.84
1310.91	175.7	1151.4
1311.01	175.6	1107.9
1311.11	175.5	1102.82
1311.21	175.4	1117.5
1311.31	175.3	1137.56
1311.41	175.2	1098.49
1311.51	175.1	1105.17
1311.61	175	1110.27
1311.71	174.9	1124.09
1311.81	174.8	1136.9
1311.91	174.7	1122.9
1312.01	174.6	1118.11
1312.11	174.5	1133.13
1312.21	174.4	1137.1
1312.31	174.3	1127.45
1312.41	174.2	1135.52
1312.51	174.1	1135.92
1312.61	174	1134.54
1312.71	173.9	1121.22
1312.81	173.8	1112.69
1312.91	173.7	1109.81
1313.01	173.6	1111
1313.11	173.5	1120.46
1313.21	173.4	1142.44
1313.31	173.3	1098.82
1313.41	173.2	1096.57
1313.51	173.1	1130.93
1313.61	173	1114.72
1313.71	172.9	1112.31
1313.81	172.8	1119.35
1313.91	172.7	1111.85
1314.01	172.6	1143.59
1314.11	172.5	1150.22
1314.21	172.4	1136.75
1314.31	172.3	1126.46
1314.41	172.2	1144.77
1314.51	172.1	1155.34
1314.61	172	1114
1314.71	171.9	1106.25
1314.81	171.8	1125.78
1314.91	171.7	1138.02
1315.01	171.6	1112.09
1315.11	171.5	1145.11
1315.21	171.4	1139.76
1315.31	171.3	1125.12
1315.41	171.2	1124.22
1315.51	171.1	1117.78
1315.61	171	1134.98
1315.71	170.9	1154.06
1315.81	170.8	1148.04
1315.91	170.7	1152.8
1316.01	170.6	1126.3
1316.11	170.5	1122.25
1316.21	170.4	1164.56
1316.31	170.3	1163.72
1316.41	170.2	1154.68
1316.51	170.1	1153.86
1316.61	170	1151.52
1316.71	169.9	1171.28
1316.81	169.8	1165.99
1316.91	169.7	1120.76
1317.01	169.6	1103.25
1317.11	169.5	1146.75
1317.21	169.4	1139.68
1317.31	169.3	1117.7
1317.41	169.2	1115.14
1317.51	169.1	1137.2
1317.61	169	1133.22
1317.71	168.9	1123.36
1317.81	168.8	1144.13
1317.91	168.7	1170.6
1318.01	168.6	1139.23
1318.11	168.5	1157.27
1318.21	168.4	1126.9
1318.31	168.3	1137.01
1318.41	168.2	1130.98
1318.51	168.1	1162.14
1318.61	168	1159.41
1318.71	167.9	1146.41
1318.81	167.8	1145.17
1318.91	167.7	1139.94
1319.01	167.6	1152.75
1319.11	167.5	1129.32
1319.21	167.4	1136.56
1319.31	167.3	1157.58
1319.41	167.2	1141.58
1319.51	167.1	1155.74
1319.61	167	1150.14
1319.71	166.9	1175.95
1319.81	166.8	1128.5
1319.91	166.7	1171.28
1320.01	166.6	1174.45
1320.11	166.5	1142.62
1320.21	166.4	1136.49
1320.31	166.3	1148.65
1320.41	166.2	1127.55
1320.51	166.1	1145.09
1320.61	166	1151.79
1320.71	165.9	1153.1
1320.81	165.8	1149.64
1320.91	165.7	1141.77
1321.01	165.6	1161.48
1321.11	165.5	1173.07
1321.21	165.4	1165.65
1321.31	165.3	1130.77
1321.41	165.2	1121.31
1321.51	165.1	1155.25
1321.61	165	1171.98
1321.71	164.9	1185.82
1321.81	164.8	1155.61
1321.91	164.7	1155.27
1322.01	164.6	1162.06
1322.11	164.5	1142.76
1322.21	164.4	1167.34
1322.31	164.3	1173.44
1322.41	164.2	1172.95
1322.51	164.1	1170.8
1322.61	164	1140.43
1322.71	163.9	1153.61
1322.81	163.8	1196.22
1322.91	163.7	1176.13
1323.01	163.6	1173.23
1323.11	163.5	1176.79
1323.21	163.4	1198.31
1323.31	163.3	1216.21
1323.41	163.2	1214.25
1323.51	163.1	1205.22
1323.61	163	1212.51
1323.71	162.9	1187.15
1323.81	162.8	1169
1323.91	162.7	1148.01
1324.01	162.6	1183.19
1324.11	162.5	1181.16
1324.21	162.4	1169.69
1324.31	162.3	1218.88
1324.41	162.2	1197.2
1324.51	162.1	1187.63
1324.61	162	1194.01
1324.71	161.9	1196.17
1324.81	161.8	1183.1
1324.91	161.7	1171.91
1325.01	161.6	1188.22
1325.11	161.5	1178.97
1325.21	161.4	1218.35
1325.31	161.3	1208.3
1325.41	161.2	1154.11
1325.51	161.1	1198.3
1325.61	161	1197.37
1325.71	160.9	1160.07
1325.81	160.8	1160.55
1325.91	160.7	1165.53
1326.01	160.6	1180.13
1326.11	160.5	1163.44
1326.21	160.4	1153.03
1326.31	160.3	1152.91
1326.41	160.2	1193.25
1326.51	160.1	1164.92
1326.61	160	1159.52
1326.71	159.9	1176.68
1326.81	159.8	1176.4
1326.91	159.7	1153.64
1327.01	159.6	1178.89
1327.11	159.5	1171.31
1327.21	159.4	1183.68
1327.31	159.3	1186.25
1327.41	159.2	1175.43
1327.51	159.1	1182.11
1327.61	159	1183.82
1327.71	158.9	1187.14
1327.81	158.8	1183.68
1327.91	158.7	1174.34
1328.01	158.6	1201.76
1328.11	158.5	1197.57
1328.21	158.4	1184.89
1328.31	158.3	1181.56
1328.41	158.2	1199.26
1328.51	158.1	1197.16
1328.61	158	1189.44
1328.71	157.9	1170.87
1328.81	157.8	1170.37
1328.91	157.7	1167.62
1329.01	157.6	1183.87
1329.11	157.5	1189.01
1329.21	157.4	1162.06
1329.31	157.3	1188.64
1329.41	157.2	1180.44
1329.51	157.1	1177.73
1329.61	157	1201.84
1329.71	156.9	1203.69
1329.81	156.8	1208.02
1329.91	156.7	1224.85
1330.01	156.6	1204.59
1330.11	156.5	1184.19
1330.21	156.4	1166.15
1330.31	156.3	1214.02
1330.41	156.2	1185.39
1330.51	156.1	1210.79
1330.61	156	1222.95
1330.71	155.9	1208.49
1330.81	155.8	1193.31
1330.91	155.7	1173.03
1331.01	155.6	1197.7
1331.11	155.5	1191.19
1331.21	155.4	1201.91
1331.31	155.3	1219
1331.41	155.2	1203.84
1331.51	155.1	1173.79
1331.61	155	1215.36
1331.71	154.9	1194.67
1331.81	154.8	1200.23
1331.91	154.7	1204.53
1332.01	154.6	1215.31
1332.11	154.5	1184.69
1332.21	154.4	1226.66
1332.31	154.3	1228.82
1332.41	154.2	1211.74
1332.51	154.1	1201.15
1332.61	154	1208.07
1332.71	153.9	1183.29
1332.81	153.8	1182.35
1332.91	153.7	1195.21
1333.01	153.6	1193.72
1333.11	153.5	1204.12
1333.21	153.4	1211.45
1333.31	153.3	1200.2
1333.41	153.2	1208.83
1333.51	153.1	1203.88
1333.61	153	1202.22
1333.71	152.9	1212.58
1333.81	152.8	1202.98
1333.91	152.7	1205.88
1334.01	152.6	1233.42
1334.11	152.5	1222.16
1334.21	152.4	1229.1
1334.31	152.3	1212.54
1334.41	152.2	1235.33
1334.51	152.1	1236.97
1334.61	152	1216.72
1334.71	151.9	1183.5
1334.81	151.8	1224.03
1334.91	151.7	1210.97
1335.01	151.6	1230.38
1335.11	151.5	1227.52
1335.21	151.4	1205.47
1335.31	151.3	1222.01
1335.41	151.2	1214.18
1335.51	151.1	1241.81
1335.61	151	1222.64
1335.71	150.9	1194.3
1335.81	150.8	1237.81
1335.91	150.7	1210.39
1336.01	150.6	1199.73
1336.11	150.5	1210.51
1336.21	150.4	1233.75
1336.31	150.3	1231.01
1336.41	150.2	1241.23
1336.51	150.1	1207.02
1336.61	150	1203.2
1336.71	149.9	1214.09
1336.81	149.8	1220.39
1336.91	149.7	1247.24
1337.01	149.6	1248.5
1337.11	149.5	1247.2
1337.21	149.4	1234.73
1337.31	149.3	1234.05
1337.41	149.2	1259.66
1337.51	149.1	1223.23
1337.61	149	1206.5
1337.71	148.9	1189.42
1337.81	148.8	1235.65
1337.91	148.7	1231.64
1338.01	148.6	1224.75
1338.11	148.5	1238.22
1338.21	148.4	1197.59
1338.31	148.3	1226.09
1338.41	148.2	1206.28
1338.51	148.1	1258.21
1338.61	148	1240.44
1338.71	147.9	1254
1338.81	147.8	1219.06
1338.91	147.7	1197.04
1339.01	147.6	1224.17
1339.11	147.5	1240.84
1339.21	147.4	1242.82
1339.31	147.3	1226.03
1339.41	147.2	1241.41
1339.51	147.1	1210.9
1339.61	147	1206.83
1339.71	146.9	1224.58
1339.81	146.8	1203.53
1339.91	146.7	1214.06
1340.01	146.6	1179.31
1340.11	146.5	1202.56
1340.21	146.4	1217.54
1340.31	146.3	1235.69
1340.41	146.2	1231.92
1340.51	146.1	1254.86
1340.61	146	1224.95
1340.71	145.9	1216.57
1340.81	145.8	1256.28
1340.91	145.7	1226.24
1341.01	145.6	1213.87
1341.11	145.5	1216.38
1341.21	145.4	1235.07
1341.31	145.3	1264.92
1341.41	145.2	1217.09
1341.51	145.1	1231.88
1341.61	145	1246.1
1341.71	144.9	1251.54
1341.81	144.8	1261.46
1341.91	144.7	1239.78
1342.01	144.6	1230.17
1342.11	144.5	1244.12
1342.21	144.4	1214.01
1342.31	144.3	1221.89
1342.41	144.2	1220.22
1342.51	144.1	1264.13
1342.61	144	1249.01
1342.71	143.9	1264.34
1342.81	143.8	1225.04
1342.91	143.7	1233.94
1343.01	143.6	1250.65
1343.11	143.5	1246.36
1343.21	143.4	1261.75
1343.31	143.3	1248.02
1343.41	143.2	1246.54
1343.51	143.1	1242.31
1343.61	143	1236.73
1343.71	142.9	1237.86
1343.81	142.8	1211.74
1343.91	142.7	1219.61
1344.01	142.6	1232.18
1344.11	142.5	1236.11
1344.21	142.4	1253.8
1344.31	142.3	1250.69
1344.41	142.2	1263.63
1344.51	142.1	1244.55
1344.61	142	1249.26
1344.71	141.9	1237.79
1344.81	141.8	1235.69
1344.91	141.7	1263.85
1345.01	141.6	1243.4
1345.11	141.5	1253.34
1345.21	141.4	1268.22
1345.31	141.3	1256.05
1345.41	141.2	1242.84
1345.51	141.1	1250.12
1345.61	141	1266
1345.71	140.9	1243.74
1345.81	140.8	1258.3
1345.91	140.7	1241.01
1346.01	140.6	1232.53
1346.11	140.5	1246.94
1346.21	140.4	1247.88
1346.31	140.3	1263.99
1346.41	140.2	1286.92
1346.51	140.1	1247.13
1346.61	140	1280.89
1346.71	139.9	1274.39
1346.81	139.8	1271.78
1346.91	139.7	1249.37
1347.01	139.6	1245.15
1347.11	139.5	1273.06
1347.21	139.4	1248.31
1347.31	139.3	1274.51
1347.41	139.2	1251.73
1347.51	139.1	1260.08
1347.61	139	1262.09
1347.71	138.9	1269.34
1347.81	138.8	1257.1
1347.91	138.7	1269.28
1348.01	138.6	1283.05
1348.11	138.5	1243.66
1348.21	138.4	1274.34
1348.31	138.3	1287.31
1348.41	138.2	1272.23
1348.51	138.1	1305.99
1348.61	138	1286.39
1348.71	137.9	1272.76
1348.81	137.8	1256.76
1348.91	137.7	1244.55
1349.01	137.6	1277.46
1349.11	137.5	1297.17
1349.21	137.4	1273.13
1349.31	137.3	1281.32
1349.41	137.2	1294.52
1349.51	137.1	1296.84
1349.61	137	1312.04
1349.71	136.9	1308.96
1349.81	136.8	1306.76
1349.91	136.7	1296.7
1350.01	136.6	1297.14
1350.11	136.5	1304.07
1350.21	136.4	1305.57
1350.31	136.3	1318.81
1350.41	136.2	1322.98
1350.51	136.1	1288.17
1350.61	136	1303.11
1350.71	135.9	1298.17
1350.81	135.8	1306.01
1350.91	135.7	1307
1351.01	135.6	1263.35
1351.11	135.5	1286.69
1351.21	135.4	1307.62
1351.31	135.3	1261.09
1351.41	135.2	1264.61
1351.51	135.1	1239.77
1351.61	135	1260.39
1351.71	134.9	1264.08
1351.81	134.8	1277.93
1351.91	134.7	1271.64
1352.01	134.6	1223.44
1352.11	134.5	1222.68
1352.21	134.4	1222.87
1352.31	134.3	1250.07
1352.41	134.2	1236.38
1352.51	134.1	1224.89
1352.61	134	1217.06
1352.71	133.9	1227.37
1352.81	133.8	1223.08
1352.91	133.7	1207.61
1353.01	133.6	1202.72
1353.11	133.5	1170.92
1353.21	133.4	1154.16
1353.31	133.3	1199.19
1353.41	133.2	1199.81
1353.51	133.1	1187.43
1353.61	133	1173.38
1353.71	132.9	1193.05
1353.81	132.8	1178.65
1353.91	132.7	1186.68
1354.01	132.6	1189.9
1354.11	132.5	1221.14
1354.21	132.4	1208.13
1354.31	132.3	1196.75
1354.41	132.2	1166.32
1354.51	132.1	1172.38
1354.61	132	1183.83
1354.71	131.9	1215.14
1354.81	131.8	1196.89
1354.91	131.7	1178.5
1355.01	131.6	1193.61
1355.11	131.5	1197.83
1355.21	131.4	1189.53
1355.31	131.3	1151.64
1355.41	131.2	1171.02
1355.51	131.1	1169.86
1355.61	131	1179.66
1355.71	130.9	1175.4
1355.81	130.8	1170.49
1355.91	130.7	1179.46
1356.01	130.6	1162.55
1356.11	130.5	1160.08
1356.21	130.4	1148.28
1356.31	130.3	1165.75
1356.41	130.2	1195.78
1356.51	130.1	1145.39
1356.61	130	1165.59
1356.71	129.9	1178.7
1356.81	129.8	1170.49
1356.91	129.7	1181.37
1357.01	129.6	1170.3
1357.11	129.5	1180.31
1357.21	129.4	1145.66
1357.31	129.3	1184.37
1357.41	129.2	1151.31
1357.51	129.1	1158.69
1357.61	129	1159.05
1357.71	128.9	1168.63
1357.81	128.8	1160.06
1357.91	128.7	1177.79
1358.01	128.6	1188.36
1358.11	128.5	1186.16
1358.21	128.4	1141.48
1358.31	128.3	1164.09
1358.41	128.2	1170.55
1358.51	128.1	1201.17
1358.61	128	1198.49
1358.71	127.9	1182.45
1358.81	127.8	1207.76
1358.91	127.7	1175.23
1359.01	127.6	1176.82
1359.11	127.5	1197.14
1359.21	127.4	1196.01
1359.31	127.3	1195.81
1359.41	127.2	1202.84
1359.51	127.1	1197.65
1359.61	127	1242.66
1359.71	126.9	1235.4
1359.81	126.8	1220.65
1359.91	126.7	1219.06
1360.01	126.6	1253.75
1360.11	126.5	1209.62
1360.21	126.4	1249.21
1360.31	126.3	1241.02
1360.41	126.2	1210.31
1360.51	126.1	1228.12
1360.61	126	1241.53
1360.71	125.9	1259.79
1360.81	125.8	1263.43
1360.91	125.7	1280.37
1361.01	125.6	1281.16
1361.11	125.5	1258.88
1361.21	125.4	1250.07
1361.31	125.3	1272.45
1361.41	125.2	1321.37
1361.51	125.1	1338.62
1361.61	125	1290.72
1361.71	124.9	1319.09
1361.81	124.8	1329.82
1361.91	124.7	1345.15
1362.01	124.6	1374.82
1362.11	124.5	1379.76
1362.21	124.4	1420.33
1362.31	124.3	1434.85
1362.41	124.2	1473.84
1362.51	124.1	1515.24
1362.61	124	1520.44
1362.71	123.9	1573.25
1362.81	123.8	1630.07
1362.91	123.7	1659.23
1363.01	123.6	1700.63
1363.11	123.5	1727.99
1363.21	123.4	1780.33
1363.31	123.3	1830.75
1363.41	123.2	1909
1363.51	123.1	1950.4
1363.61	123	1980.25
1363.71	122.9	2011.91
1363.81	122.8	2057.8
1363.91	122.7	2096.15
1364.01	122.6	2115.71
1364.11	122.5	2111.76
1364.21	122.4	2127.96
1364.31	122.3	2096.83
1364.41	122.2	2043.68
1364.51	122.1	2025.04
1364.61	122	1937.13
1364.71	121.9	1867.97
1364.81	121.8	1828.57
1364.91	121.7	1791.13
1365.01	121.6	1734.43
1365.11	121.5	1679.98
1365.21	121.4	1578.65
1365.31	121.3	1526.25
1365.41	121.2	1491.55
1365.51	121.1	1513.31
1365.61	121	1447.03
1365.71	120.9	1404.95
1365.81	120.8	1393.12
1365.91	120.7	1353.55
1366.01	120.6	1313
1366.11	120.5	1287.54
1366.21	120.4	1272.13
1366.31	120.3	1257.17
1366.41	120.2	1254.64
1366.51	120.1	1243.75
1366.61	120	1234.59
1366.71	119.9	1223.19
1366.81	119.8	1198.17
1366.91	119.7	1207.36
1367.01	119.6	1185.77
1367.11	119.5	1201.76
1367.21	119.4	1192.57
1367.31	119.3	1172.78
1367.41	119.2	1154.98
1367.51	119.1	1181.46
1367.61	119	1159.25
1367.71	118.9	1141.78
1367.81	118.8	1168.2
1367.91	118.7	1155.25
1368.01	118.6	1116.84
1368.11	118.5	1106.43
1368.21	118.4	1111.46
1368.31	118.3	1081.37
1368.41	118.2	1106.26
1368.51	118.1	1120.43
1368.61	118	1115.07
1368.71	117.9	1086.62
1368.81	117.8	1114
1368.91	117.7	1109.75
1369.01	117.6	1096.55
1369.11	117.5	1130.99
1369.21	117.4	1117.85
1369.31	117.3	1093.49
1369.41	117.2	1096.84
1369.51	117.1	1112.05
1369.61	117	1096.33
1369.71	116.9	1083.36
1369.81	116.8	1090.52
1369.91	116.7	1107.6
1370.01	116.6	1104.02
1370.11	116.5	1090.28
1370.21	116.4	1088.87
1370.31	116.3	1072.68
1370.41	116.2	1065.61
1370.51	116.1	1084.71
1370.61	116	1080.35
1370.71	115.9	1065.04
1370.81	115.8	1085.87
1370.91	115.7	1103.81
1371.01	115.6	1097.33
1371.11	115.5	1077.63
1371.21	115.4	1077.29
1371.31	115.3	1087.25
1371.41	115.2	1080.09
1371.51	115.1	1072.5
1371.61	115	1093.82
1371.71	114.9	1116
1371.81	114.8	1093.65
1371.91	114.7	1043.74
1372.01	114.6	1052.13
1372.11	114.5	1053.34
1372.21	114.4	1061.54
1372.31	114.3	1065.8
1372.41	114.2	1089.29
1372.51	114.1	1098.9
1372.61	114	1071.25
1372.71	113.9	1077.47
1372.81	113.8	1075.62
1372.91	113.7	1094.09
1373.01	113.6	1085.57
1373.11	113.5	1102.04
1373.21	113.4	1063
1373.31	113.3	1063.88
1373.41	113.2	1073.51
1373.51	113.1	1037.57
1373.61	113	1075.87
1373.71	112.9	1060.36
1373.81	112.8	1077.53
1373.91	112.7	1091.09
1374.01	112.6	1052.58
1374.11	112.5	1055.75
1374.21	112.4	1069.94
1374.31	112.3	1069.28
1374.41	112.2	1077.19
1374.51	112.1	1055.71
1374.61	112	1039.02
1374.71	111.9	1056.98
1374.81	111.8	1070.61
1374.91	111.7	1114.88
1375.01	111.6	1076.89
1375.11	111.5	1057.91
1375.21	111.4	1041.16
1375.31	111.3	1047.55
1375.41	111.2	1049.14
1375.51	111.1	1049.44
1375.61	111	1051.39
1375.71	110.9	1075.68
1375.81	110.8	1094.94
1375.91	110.7	1082.05
1376.01	110.6	1069.38
1376.11	110.5	1059.42
1376.21	110.4	1082.52
1376.31	110.3	1098.31
1376.41	110.2	1075.22
1376.51	110.1	1075.53
1376.61	110	1097.3
1376.71	109.9	1069.45
1376.81	109.8	1057.54
1376.91	109.7	1089.43
1377.01	109.6	1101.74
1377.11	109.5	1078.26
1377.21	109.4	1089.88
1377.31	109.3	1103.46
1377.41	109.2	1088.7
1377.51	109.1	1096.45
1377.61	109	1087.07
1377.71	108.9	1073.96
1377.81	108.8	1065.32
1377.91	108.7	1092.04
1378.01	108.6	1091.76
1378.11	108.5	1096.67
1378.21	108.4	1081.85
1378.31	108.3	1069.52
1378.41	108.2	1065.14
1378.51	108.1	1109.99
1378.61	108	1061.14
1378.71	107.9	1047.16
1378.81	107.8	1070.68
1378.91	107.7	1107.07
1379.01	107.6	1100.73
1379.11	107.5	1083.24
1379.21	107.4	1076.85
1379.31	107.3	1080.44
1379.41	107.2	1079.59
1379.51	107.1	1100.12
1379.61	107	1075.61
1379.71	106.9	1083.08
1379.81	106.8	1076.73
1379.91	106.7	1073.29
1380.01	106.6	1100.16
1380.11	106.5	1094.31
1380.21	106.4	1086.88
1380.31	106.3	1095.8
1380.41	106.2	1082.29
1380.51	106.1	1092.67
1380.61	106	1094.71
1380.71	105.9	1128.55
1380.81	105.8	1127.17
1380.91	105.7	1123.49
1381.01	105.6	1097.79
1381.11	105.5	1097.27
1381.21	105.4	1107.11
1381.31	105.3	1120.75
1381.41	105.2	1073.7
1381.51	105.1	1083.19
1381.61	105	1106.72
1381.71	104.9	1102.6
1381.81	104.8	1097.73
1381.91	104.7	1088.73
1382.01	104.6	1076.99
1382.11	104.5	1066.23
1382.21	104.4	1097.12
1382.31	104.3	1086.59
1382.41	104.2	1076.84
1382.51	104.1	1133.52
1382.61	104	1142.19
1382.71	103.9	1111.96
1382.81	103.8	1093.64
1382.91	103.7	1123.47
1383.01	103.6	1094.93
1383.11	103.5	1107.62
1383.21	103.4	1104.93
1383.31	103.3	1097.98
1383.41	103.2	1100.57
1383.51	103.1	1095.71
1383.61	103	1098.76
1383.71	102.9	1096.95
1383.81	102.8	1118.3
1383.91	102.7	1104.82
1384.01	102.6	1121.59
1384.11	102.5	1135.39
1384.21	102.4	1132.24
1384.31	102.3	1102.95
1384.41	102.2	1119
1384.51	102.1	1112.47
1384.61	102	1092.96
1384.71	101.9	1095.83
1384.81	101.8	1112.17
1384.91	101.7	1100.34
1385.01	101.6	1104.74
1385.11	101.5	1105.09
1385.21	101.4	1121.99
1385.31	101.3	1123.74
1385.41	101.2	1108.26
1385.51	101.1	1078.47
1385.61	101	1080.61
1385.71	100.9	1100.9
1385.81	100.8	1114.39
1385.91	100.7	1089.76
1386.01	100.6	1075.29
1386.11	100.5	1103.47
1386.21	100.4	1090.86
1386.31	100.3	1096.74
1386.41	100.2	1107.25
1386.51	100.1	1091.17
1386.61	100	1096.14
1386.71	99.9	1071.71
1386.81	99.8	1054.37
1386.91	99.7	1084.86
1387.01	99.6	1068.13
1387.11	99.5	1081.09
1387.21	99.4	1082.09
1387.31	99.3	1068.02
1387.41	99.2	1081.34
1387.51	99.1	1097.31
1387.61	99	1088.61
1387.71	98.9	1098.75
1387.81	98.8	1082.11
1387.91	98.7	1118.37
1388.01	98.6	1099.86
1388.11	98.5	1111.78
1388.21	98.4	1116.55
1388.31	98.3	1110.75
1388.41	98.2	1080.73
1388.51	98.1	1088.57
1388.61	98	1121.51
1388.71	97.9	1123.58
1388.81	97.8	1113.64
1388.91	97.7	1117.65
1389.01	97.6	1125.26
1389.11	97.5	1088.19
1389.21	97.4	1100.84
1389.31	97.3	1119.31
1389.41	97.2	1113.52
1389.51	97.1	1099.1
1389.61	97	1099.33
1389.71	96.9	1071.89
1389.81	96.8	1097.03
1389.91	96.7	1121.51
1390.01	96.6	1122.61
1390.11	96.5	1131.73
1390.21	96.4	1136.48
1390.31	96.3	1102.72
1390.41	96.2	1117.02
1390.51	96.1	1126.84
1390.61	96	1122.1
1390.71	95.9	1119
1390.81	95.8	1127.61
1390.91	95.7	1154.88
1391.01	95.6	1144.88
1391.11	95.5	1138.11
1391.21	95.4	1131.09
1391.31	95.3	1114.77
1391.41	95.2	1118.93
1391.51	95.1	1130
1391.61	95	1138.51
1391.71	94.9	1130.5
1391.81	94.8	1131.82
1391.91	94.7	1117.24
1392.01	94.6	1125.58
1392.11	94.5	1129.9
1392.21	94.4	1093.02
1392.31	94.3	1112.91
1392.41	94.2	1123.12
1392.51	94.1	1106.62
1392.61	94	1095.09
1392.71	93.9	1090.02
1392.81	93.8	1117.22
1392.91	93.7	1119.87
1393.01	93.6	1123.73
1393.11	93.5	1094.59
1393.21	93.4	1126.24
1393.31	93.3	1153.36
1393.41	93.2	1119.67
1393.51	93.1	1117.63
1393.61	93	1115.93
1393.71	92.9	1097.7
1393.81	92.8	1094.18
1393.91	92.7	1085.02
1394.01	92.6	1065.84
1394.11	92.5	1100.04
1394.21	92.4	1105
1394.31	92.3	1118.62
1394.41	92.2	1080.86
1394.51	92.1	1084.85
1394.61	92	1107.71
1394.71	91.9	1114.15
1394.81	91.8	1105.54
1394.91	91.7	1130.81
1395.01	91.6	1125.22
1395.11	91.5	1120.69
1395.21	91.4	1106.34
1395.31	91.3	1084.21
1395.41	91.2	1122.92
1395.51	91.1	1116.23
1395.61	91	1104.45
1395.71	90.9	1098.23
1395.81	90.8	1063.05
1395.91	90.7	1110.03
1396.01	90.6	1103.45
1396.11	90.5	1113.47
1396.21	90.4	1126.51
1396.31	90.3	1117.68
1396.41	90.2	1111.26
1396.51	90.1	1085.61
1396.61	90	1080.97
1396.71	89.9	1091.38
1396.81	89.8	1085.58
1396.91	89.7	1083
1397.01	89.6	1078.43
1397.11	89.5	1059.35
1397.21	89.4	1072.3
1397.31	89.3	1067.57
1397.41	89.2	1066.14
1397.51	89.1	1057.77
1397.61	89	1086.95
1397.71	88.9	1055.45
1397.81	88.8	1064.53
1397.91	88.7	1100.53
1398.01	88.6	1099.89
1398.11	88.5	1036.98
1398.21	88.4	1058.74
1398.31	88.3	1039.7
1398.41	88.2	1016.17
1398.51	88.1	1013.02
1398.61	88	1020.16
1398.71	87.9	1017.43
1398.81	87.8	1018.02
1398.91	87.7	1003.55
1399.01	87.6	1000.2
1399.11	87.5	965.043
1399.21	87.4	932.097
1399.31	87.3	921.347
1399.41	87.2	906.143
1399.51	87.1	924.897
1399.61	87	890.63
1399.71	86.9	871.31
1399.81	86.8	856.31
1399.91	86.7	849.3
1400.01	86.6	846.463
1400.11	86.5	861.777
1400.21	86.4	839.477
1400.31	86.3	829.47
1400.41	86.2	814.317
1400.51	86.1	819.287
1400.61	86	774.98
1400.71	85.9	783.937
1400.81	85.8	754.66
1400.91	85.7	760.51
1401.01	85.6	753.81
1401.11	85.5	767.707
1401.21	85.4	752.947
1401.31	85.3	781.037
1401.41	85.2	776.11
1401.51	85.1	766.36
1401.61	85	769.89
1401.71	84.9	773.297
1401.81	84.8	743.103
1401.91	84.7	756.337
1402.01	84.6	757.787
1402.11	84.5	740.817
1402.21	84.4	749.983
1402.31	84.3	735.893
1402.41	84.2	739.057
1402.51	84.1	725.603
1402.61	84	738.043
1402.71	83.9	733.097
1402.81	83.8	730.317
1402.91	83.7	707.88
1403.01	83.6	722.37
1403.11	83.5	716.393
1403.21	83.4	720.653
1403.31	83.3	742.427
1403.41	83.2	741.233
1403.51	83.1	720.147
1403.61	83	726.393
1403.71	82.9	722.693
1403.81	82.8	752.603
1403.91	82.7	728.747
1404.01	82.6	733.443
1404.11	82.5	736.63
1404.21	82.4	743.067
1404.31	82.3	727.56
1404.41	82.2	746.423
1404.51	82.1	741.9
1404.61	82	773.563
1404.71	81.9	743.823
1404.81	81.8	766.01
1404.91	81.7	777.19
1405.01	81.6	773.677
1405.11	81.5	762.07
1405.21	81.4	742.8
1405.31	81.3	768.73
1405.41	81.2	775.903
1405.51	81.1	784.343
1405.61	81	795.823
1405.71	80.9	790.18
1405.81	80.8	803.4
1405.91	80.7	850.153
1406.01	80.6	822.023
1406.11	80.5	818.33
1406.21	80.4	826.283
1406.31	80.3	865.86
1406.41	80.2	902.397
1406.51	80.1	889.08
1406.61	80	896.593
1406.71	79.9	929.933
1406.81	79.8	939.347
1406.91	79.7	938.227
1407.01	79.6	964.687
1407.11	79.5	1007.29
1407.21	79.4	1018.61
1407.31	79.3	1019.11
1407.41	79.2	1081.01
1407.51	79.1	1127.76
1407.61	79	1163.63
1407.71	78.9	1223.9
1407.81	78.8	1286.51
1407.91	78.7	1315.3
1408.01	78.6	1350.32
1408.11	78.5	1429.65
1408.21	78.4	1508.48
1408.31	78.3	1578.28
1408.41	78.2	1603
1408.51	78.1	1671.95
1408.61	78	1718.42
1408.71	77.9	1820.41
1408.81	77.8	1868.3
1408.91	77.7	1913.26
1409.01	77.6	1994.55
1409.11	77.5	1988.53
1409.21	77.4	1988.52
1409.31	77.3	1982.53
1409.41	77.2	1981.87
1409.51	77.1	1977.76
1409.61	77	1952.17
1409.71	76.9	1908.61
1409.81	76.8	1871.48
1409.91	76.7	1914.41
1410.01	76.6	1923.07
1410.11	76.5	1918.52
1410.21	76.4	1963.16
1410.31	76.3	2000.1
1410.41	76.2	2025.89
1410.51	76.1	2091.57
1410.61	76	2140.72
1410.71	75.9	2232.56
1410.81	75.8	2280.79
1410.91	75.7	2412.3
1411.01	75.6	2496.11
1411.11	75.5	2591.72
1411.21	75.4	2651.04
1411.31	75.3	2606.45
1411.41	75.2	2637.49
1411.51	75.1	2632.96
1411.61	75	2630.67
1411.71	74.9	2542.77
1411.81	74.8	2509.17
1411.91	74.7	2397.7
1412.01	74.6	2297.04
1412.11	74.5	2194.94
1412.21	74.4	2006.01
1412.31	74.3	1863.24
1412.41	74.2	1734.28
1412.51	74.1	1652.81
1412.61	74	1512.63
1412.71	73.9	1378.73
1412.81	73.8	1300.08
1412.91	73.7	1218.12
1413.01	73.6	1191.05
1413.11	73.5	1078.69
1413.21	73.4	992.5
1413.31	73.3	953.357
1413.41	73.2	904.987
1413.51	73.1	871.573
1413.61	73	815.14
1413.71	72.9	758.123
1413.81	72.8	729.557
1413.91	72.7	703.123
1414.01	72.6	674.237
1414.11	72.5	647.183
1414.21	72.4	629.41
1414.31	72.3	601.657
1414.41	72.2	593.637
1414.51	72.1	558.98
1414.61	72	541.54
1414.71	71.9	538.25
1414.81	71.8	515.96
1414.91	71.7	502.077
1415.01	71.6	505.187
1415.11	71.5	502.887
1415.21	71.4	479.307
1415.31	71.3	443.41
1415.41	71.2	443.317
1415.51	71.1	465.927
1415.61	71	433.213
1415.71	70.9	427.263
1415.81	70.8	421.82
1415.91	70.7	412.7
1416.01	70.6	404.603
1416.11	70.5	402.683
1416.21	70.4	386.59
1416.31	70.3	400.6
1416.41	70.2	371.82
1416.51	70.1	382.067
1416.61	70	373.17
1416.71	69.9	368.107
1416.81	69.8	364.4
1416.91	69.7	353.707
1417.01	69.6	360.257
1417.11	69.5	367.373
1417.21	69.4	362.94
1417.31	69.3	343.323
1417.41	69.2	342.713
1417.51	69.1	343.017
1417.61	69	332.768
1417.71	68.9	337.35
1417.81	68.8	329.63
1417.91	68.7	334.617
1418.01	68.6	322.346
1418.11	68.5	322.24
1418.21	68.4	328.948
1418.31	68.3	329.56
1418.41	68.2	314.052
1418.51	68.1	316.35
1418.61	68	318.413
1418.71	67.9	318.524
1418.81	67.8	314.077
1418.91	67.7	312.918
1419.01	67.6	316.271
1419.11	67.5	320.888
1419.21	67.4	323.081
1419.31	67.3	313.481
1419.41	67.2	311.509
1419.51	67.1	303.398
1419.61	67	302.788
1419.71	66.9	289.841
1419.81	66.8	297.808
1419.91	66.7	295.147
1420.01	66.6	291.204
1420.11	66.5	285.181
1420.21	66.4	296.603
1420.31	66.3	287.43
1420.41	66.2	304.298
1420.51	66.1	306.62
1420.61	66	302.185
1420.71	65.9	323.736
1420.81	65.8	308.298
1420.91	65.7	296.998
1421.01	65.6	291.951
1421.11	65.5	283.7
1421.21	65.4	305.723
1421.31	65.3	302.5
1421.41	65.2	288.94
1421.51	65.1	289.527
1421.61	65	298.329
1421.71	64.9	279.359
1421.81	64.8	291.295
1421.91	64.7	277.615
1422.01	64.6	284.551
1422.11	64.5	284.299
1422.21	64.4	289.37
1422.31	64.3	282.991
1422.41	64.2	280.408
1422.51	64.1	290.723
1422.61	64	286.529
1422.71	63.9	291.443
1422.81	63.8	287.59
1422.91	63.7	274.122
1423.01	63.6	282.489
1423.11	63.5	269.793
1423.21	63.4	289.194
1423.31	63.3	288.598
1423.41	63.2	292.584
1423.51	63.1	282.078
1423.61	63	293.457
1423.71	62.9	274.484
1423.81	62.8	284.965
1423.91	62.7	288.404
1424.01	62.6	283.268
1424.11	62.5	279.172
1424.21	62.4	271.246
1424.31	62.3	286.436
1424.41	62.2	285.007
1424.51	62.1	276.46
1424.61	62	274.014
1424.71	61.9	276.765
1424.81	61.8	274.328
1424.91	61.7	275.578
1425.01	61.6	288.996
1425.11	61.5	290.152
1425.21	61.4	284.619
1425.31	61.3	273.179
1425.41	61.2	285.609
1425.51	61.1	278.847
1425.61	61	276.401
1425.71	60.9	282.874
1425.81	60.8	272.954
1425.91	60.7	272.583
1426.01	60.6	276.993
1426.11	60.5	270.576
1426.21	60.4	281.026
1426.31	60.3	284.12
1426.41	60.2	274.006
1426.51	60.1	275.649
1426.61	60	265.961
1426.71	59.9	277.007
1426.81	59.8	288.415
1426.91	59.7	271.993
1427.01	59.6	266.838
1427.11	59.5	273.101
1427.21	59.4	282.848
1427.31	59.3	267.455
1427.41	59.2	273.136
1427.51	59.1	262.408
1427.61	59	278.286
1427.71	58.9	281.912
1427.81	58.8	272.997
1427.91	58.7	285.963
1428.01	58.6	287.561
1428.11	58.5	261.413
1428.21	58.4	266.865
1428.31	58.3	275.99
1428.41	58.2	272.612
1428.51	58.1	268.909
1428.61	58	285.349
1428.71	57.9	268.462
1428.81	57.8	272.807
1428.91	57.7	278.773
1429.01	57.6	267.101
1429.11	57.5	267.594
1429.21	57.4	274.906
1429.31	57.3	261.949
1429.41	57.2	264.776
1429.51	57.1	273.636
1429.61	57	273.497
1429.71	56.9	283.12
1429.81	56.8	265.656
1429.91	56.7	272.403
1430.01	56.6	259.941
1430.11	56.5	270.785
1430.21	56.4	253.01
1430.31	56.3	274.695
1430.41	56.2	258.556
1430.51	56.1	267.115
1430.61	56	280.09
1430.71	55.9	260.967
1430.81	55.8	269.203
1430.91	55.7	278.221
1431.01	55.6	277.325
1431.11	55.5	273.344
1431.21	55.4	281.808
1431.31	55.3	269.241
1431.41	55.2	273.001
1431.51	55.1	274.767
1431.61	55	272.149
1431.71	54.9	270.379
1431.81	54.8	272.385
1431.91	54.7	281.514
1432.01	54.6	266.554
1432.11	54.5	282.755
1432.21	54.4	272.92
1432.31	54.3	276.21
1432.41	54.2	281.527
1432.51	54.1	284.254
1432.61	54	270.275
1432.71	53.9	270.031
1432.81	53.8	267.416
1432.91	53.7	277.28
1433.01	53.6	271.539
1433.11	53.5	270.565
1433.21	53.4	263.215
1433.31	53.3	273.568
1433.41	53.2	263.449
1433.51	53.1	268.927
1433.61	53	278.051
1433.71	52.9	277.797
1433.81	52.8	269.459
1433.91	52.7	269.808
1434.01	52.6	280.852
1434.11	52.5	271.263
1434.21	52.4	290.344
1434.31	52.3	288.016
1434.41	52.2	281.934
1434.51	52.1	270.529
1434.61	52	268.158
1434.71	51.9	278.51
1434.81	51.8	285.375
1434.91	51.7	285.172
1435.01	51.6	272.753
1435.11	51.5	266.156
1435.21	51.4	289.271
1435.31	51.3	274.251
1435.41	51.2	270.956
1435.51	51.1	266.488
1435.61	51	282.094
1435.71	50.9	293.491
1435.81	50.8	278.156
1435.91	50.7	275.782
1436.01	50.6	272.003
1436.11	50.5	257.923
1436.21	50.4	272.761
1436.31	50.3	278.55
1436.41	50.2	278.435
1436.51	50.1	284.048
1436.61	50	269.062
1436.71	49.9	282.055
1436.81	49.8	296.578
1436.91	49.7	283.73
1437.01	49.6	278.275
1437.11	49.5	288.828
1437.21	49.4	276.543
1437.31	49.3	291.597
1437.41	49.2	270.485
1437.51	49.1	277.898
1437.61	49	281.083
1437.71	48.9	277.328
1437.81	48.8	270.825
1437.91	48.7	265.255
1438.01	48.6	267.977
1438.11	48.5	280.904
1438.21	48.4	288.79
1438.31	48.3	278.69
1438.41	48.2	284.484
1438.51	48.1	284.289
1438.61	48	296.347
1438.71	47.9	291.247
1438.81	47.8	280.355
1438.91	47.7	264.798
1439.01	47.6	282.268
1439.11	47.5	280.349
1439.21	47.4	281.156
1439.31	47.3	292.39
1439.41	47.2	280.34
1439.51	47.1	277.916
1439.61	47	273.827
1439.71	46.9	263.24
1439.81	46.8	280.169
1439.91	46.7	294.958
1440.01	46.6	283.088
1440.11	46.5	274.545
1440.21	46.4	289.351
1440.31	46.3	279.074
1440.41	46.2	279.98
1440.51	46.1	274.945
1440.61	46	283.726
1440.71	45.9	281.7
1440.81	45.8	283.994
1440.91	45.7	270.197
1441.01	45.6	267.17
1441.11	45.5	273.895
1441.21	45.4	282.709
1441.31	45.3	287.346
1441.41	45.2	279.814
1441.51	45.1	279.76
1441.61	45	278.249
1441.71	44.9	279.642
1441.81	44.8	268.388
1441.91	44.7	266.801
1442.01	44.6	267.195
1442.11	44.5	277.698
1442.21	44.4	277.695
1442.31	44.3	272.809
1442.41	44.2	273.915
1442.51	44.1	272.149
1442.61	44	267.3
1442.71	43.9	285.267
1442.81	43.8	277.131
1442.91	43.7	264.872
1443.01	43.6	271.771
1443.11	43.5	281.322
1443.21	43.4	289.773
1443.31	43.3	291.531
1443.41	43.2	273.206
1443.51	43.1	276.759
1443.61	43	286.382
1443.71	42.9	280.031
1443.81	42.8	274.52
1443.91	42.7	277.154
1444.01	42.6	280.129
1444.11	42.5	276.368
1444.21	42.4	282.344
1444.31	42.3	290.396
1444.41	42.2	278.854
1444.51	42.1	266.136
1444.61	42	287.495
1444.71	41.9	273.044
1444.81	41.8	274.557
1444.91	41.7	277.412
1445.01	41.6	276.327
1445.11	41.5	284.764
1445.21	41.4	293.376
1445.31	41.3	283.949
1445.41	41.2	284.49
1445.51	41.1	273.736
1445.61	41	266.168
1445.71	40.9	267.741
1445.81	40.8	297.109
1445.91	40.7	280.096
1446.01	40.6	278.369
1446.11	40.5	290.03
1446.21	40.4	280.784
1446.31	40.3	278.435
1446.41	40.2	280.322
1446.51	40.1	290.456
1446.61	40	293.594