c:\users\mark\owncloud\muelheim group\projects\gas phase background\ex340_cec356_cu n2 largearea.vms
Cu LMM
	Characteristic Energy eV	1486.61	Acquisition Time s	3
KE_Cu LMM	BE_Cu LMM	CPS_Cu LMM
866.61	620	7850.97
866.71	619.9	7816.07
866.81	619.8	7830.83
866.91	619.7	7830.6
867.01	619.6	7768.27
867.109	619.501	7717.33
867.209	619.401	7782.9
867.309	619.301	7739.47
867.409	619.201	7718.57
867.509	619.101	7683
867.609	619.001	7657
867.709	618.901	7693.2
867.809	618.801	7724
867.909	618.701	7602.2
868.009	618.601	7653.47
868.108	618.502	7591.93
868.208	618.402	7585.37
868.308	618.302	7624.47
868.408	618.202	7651.5
868.508	618.102	7616.03
868.608	618.002	7607.43
868.708	617.902	7600
868.808	617.802	7594.27
868.908	617.702	7623.8
869.008	617.602	7638.77
869.107	617.503	7593.5
869.207	617.403	7604.5
869.307	617.303	7559.73
869.407	617.203	7577
869.507	617.103	7575.77
869.607	617.003	7514.27
869.707	616.903	7449.07
869.807	616.803	7493.13
869.907	616.703	7421.47
870.006	616.604	7533.03
870.106	616.504	7572.9
870.206	616.404	7454.7
870.306	616.304	7410.13
870.406	616.204	7518.27
870.506	616.104	7471.17
870.606	616.004	7518.27
870.706	615.904	7528.4
870.806	615.804	7477.2
870.906	615.704	7474.57
871.005	615.605	7467.9
871.105	615.505	7442.8
871.205	615.405	7473
871.305	615.305	7492.37
871.405	615.205	7440.47
871.505	615.105	7446.73
871.605	615.005	7413.33
871.705	614.905	7420.13
871.805	614.805	7459.83
871.904	614.706	7434.9
872.004	614.606	7500.27
872.104	614.506	7539.57
872.204	614.406	7476.83
872.304	614.306	7492.8
872.404	614.206	7542.6
872.504	614.106	7485.83
872.604	614.006	7452.87
872.704	613.906	7509.33
872.804	613.806	7392.4
872.903	613.707	7423.6
873.003	613.607	7489.93
873.103	613.507	7486.23
873.203	613.407	7551.47
873.303	613.307	7594.67
873.403	613.207	7480.3
873.503	613.107	7524.27
873.603	613.007	7447.7
873.703	612.907	7437.2
873.803	612.807	7405.5
873.902	612.708	7478.37
874.002	612.608	7501.73
874.102	612.508	7477.93
874.202	612.408	7479.07
874.302	612.308	7458.9
874.402	612.208	7555.07
874.502	612.108	7455.1
874.602	612.008	7397.7
874.702	611.908	7479.77
874.801	611.809	7564.77
874.901	611.709	7595.87
875.001	611.609	7525.17
875.101	611.509	7520.17
875.201	611.409	7542.37
875.301	611.309	7435.93
875.401	611.209	7479.5
875.501	611.109	7521.2
875.601	611.009	7519.83
875.701	610.909	7522.83
875.8	610.81	7491
875.9	610.71	7557.17
876	610.61	7562.97
876.1	610.51	7550.67
876.2	610.41	7511.5
876.3	610.31	7526.8
876.4	610.21	7564.2
876.5	610.11	7595.73
876.6	610.01	7571.47
876.699	609.911	7529.17
876.799	609.811	7613.5
876.899	609.711	7579.77
876.999	609.611	7552.5
877.099	609.511	7613.7
877.199	609.411	7558.77
877.299	609.311	7562.47
877.399	609.211	7559.73
877.499	609.111	7553.57
877.599	609.011	7545.43
877.698	608.912	7591.77
877.798	608.812	7640.73
877.898	608.712	7624.13
877.998	608.612	7596.87
878.098	608.512	7600.03
878.198	608.412	7604.7
878.298	608.312	7708.9
878.398	608.212	7624.27
878.498	608.112	7629.23
878.598	608.012	7610.5
878.697	607.913	7636.67
878.797	607.813	7545
878.897	607.713	7662.07
878.997	607.613	7726.97
879.097	607.513	7651.8
879.197	607.413	7607.73
879.297	607.313	7673.43
879.397	607.213	7671
879.497	607.113	7753.87
879.596	607.014	7728.83
879.696	606.914	7640.1
879.796	606.814	7720.07
879.896	606.714	7675.57
879.996	606.614	7617.8
880.096	606.514	7724.4
880.196	606.414	7730.43
880.296	606.314	7643.27
880.396	606.214	7690.7
880.496	606.114	7707.53
880.595	606.015	7782.57
880.695	605.915	7829.67
880.795	605.815	7800.6
880.895	605.715	7791.77
880.995	605.615	7713.3
881.095	605.515	7730.7
881.195	605.415	7711.1
881.295	605.315	7778.93
881.395	605.215	7842.1
881.494	605.116	7783.17
881.594	605.016	7816.27
881.694	604.916	7788.93
881.794	604.816	7786.63
881.894	604.716	7863.93
881.994	604.616	7808.43
882.094	604.516	7816.83
882.194	604.416	7819.5
882.294	604.316	7805
882.394	604.216	7798.97
882.493	604.117	7982.9
882.593	604.017	7868.97
882.693	603.917	7850.73
882.793	603.817	7908.93
882.893	603.717	7885.37
882.993	603.617	7911.3
883.093	603.517	7889.53
883.193	603.417	7852.13
883.293	603.317	7858
883.393	603.217	7866.87
883.492	603.118	7939
883.592	603.018	7912.83
883.692	602.918	7984.73
883.792	602.818	8004.67
883.892	602.718	7942.53
883.992	602.618	7974.43
884.092	602.518	7984.97
884.192	602.418	7999.07
884.292	602.318	7977.63
884.391	602.219	7978.17
884.491	602.119	7983.33
884.591	602.019	8007.17
884.691	601.919	8050.37
884.791	601.819	8030.3
884.891	601.719	8036.9
884.991	601.619	7997.2
885.091	601.519	8068.13
885.191	601.419	8096.33
885.291	601.319	7951.97
885.39	601.22	8020.43
885.49	601.12	8086.97
885.59	601.02	8058.53
885.69	600.92	8122.53
885.79	600.82	8126.9
885.89	600.72	8042.27
885.99	600.62	8056.87
886.09	600.52	8107.5
886.19	600.42	8143.43
886.289	600.321	8216.97
886.389	600.221	8147.87
886.489	600.121	8211.8
886.589	600.021	8141.8
886.689	599.921	8141.43
886.789	599.821	8216.5
886.889	599.721	8157.47
886.989	599.621	8149.3
887.089	599.521	8221.73
887.189	599.421	8155.47
887.288	599.322	8188.2
887.388	599.222	8225.57
887.488	599.122	8231.97
887.588	599.022	8231.47
887.688	598.922	8255.27
887.788	598.822	8228.67
887.888	598.722	8291.9
887.988	598.622	8267.23
888.088	598.522	8214.53
888.188	598.422	8298.17
888.287	598.323	8331.9
888.387	598.223	8369.53
888.487	598.123	8397.47
888.587	598.023	8388.53
888.687	597.923	8359.13
888.787	597.823	8347.03
888.887	597.723	8347.17
888.987	597.623	8386.7
889.087	597.523	8390.2
889.186	597.424	8395.27
889.286	597.324	8348.37
889.386	597.224	8444.3
889.486	597.124	8448.03
889.586	597.024	8450.2
889.686	596.924	8397.63
889.786	596.824	8447.77
889.886	596.724	8489.77
889.986	596.624	8543.93
890.086	596.524	8464.33
890.185	596.425	8556.6
890.285	596.325	8574.73
890.385	596.225	8531.6
890.485	596.125	8583.53
890.585	596.025	8582.83
890.685	595.925	8496.17
890.785	595.825	8510.7
890.885	595.725	8591.57
890.985	595.625	8570.23
891.084	595.526	8587.1
891.184	595.426	8543.17
891.284	595.326	8584.07
891.384	595.226	8563.3
891.484	595.126	8598.43
891.584	595.026	8556.27
891.684	594.926	8604.9
891.784	594.826	8596.8
891.884	594.726	8643.6
891.984	594.626	8647.63
892.083	594.527	8703.33
892.183	594.427	8644.27
892.283	594.327	8606
892.383	594.227	8694.67
892.483	594.127	8660.77
892.583	594.027	8623.27
892.683	593.927	8637.83
892.783	593.827	8586.97
892.883	593.727	8689.3
892.983	593.627	8681
893.082	593.528	8700.23
893.182	593.428	8705.23
893.282	593.328	8755.87
893.382	593.228	8749.4
893.482	593.128	8716.3
893.582	593.028	8781.43
893.682	592.928	8695.3
893.782	592.828	8691.3
893.882	592.728	8727.37
893.981	592.629	8744.43
894.081	592.529	8667
894.181	592.429	8795.8
894.281	592.329	8768.1
894.381	592.229	8723.63
894.481	592.129	8839.37
894.581	592.029	8781.23
894.681	591.929	8716.13
894.781	591.829	8822.9
894.881	591.729	8791.7
894.98	591.63	8799.77
895.08	591.53	8795.23
895.18	591.43	8790.57
895.28	591.33	8794.17
895.38	591.23	8789.97
895.48	591.13	8846.47
895.58	591.03	8775.1
895.68	590.93	8806.03
895.78	590.83	8865.6
895.879	590.731	8863.7
895.979	590.631	8765.77
896.079	590.531	8824.97
896.179	590.431	8850.33
896.279	590.331	8884.93
896.379	590.231	8833.27
896.479	590.131	8821.53
896.579	590.031	8930.3
896.679	589.931	8858.63
896.779	589.831	8867.8
896.878	589.732	8937.6
896.978	589.632	8961.97
897.078	589.532	8952.13
897.178	589.432	8947.77
897.278	589.332	8874.73
897.378	589.232	8973.23
897.478	589.132	8903
897.578	589.032	8970.67
897.678	588.932	8875.77
897.778	588.832	8878.37
897.877	588.733	8970.97
897.977	588.633	8849.27
898.077	588.533	8948.57
898.177	588.433	8942.27
898.277	588.333	8997.53
898.377	588.233	8905.03
898.477	588.133	9006.83
898.577	588.033	9032.87
898.677	587.933	9018.5
898.776	587.834	8949.73
898.876	587.734	8995.73
898.976	587.634	8956.33
899.076	587.534	9037
899.176	587.434	9004.27
899.276	587.334	8980.97
899.376	587.234	8986.07
899.476	587.134	8990.3
899.576	587.034	8962.27
899.676	586.934	9072.2
899.775	586.835	9028.6
899.875	586.735	9042.8
899.975	586.635	9018.57
900.075	586.535	8984.3
900.175	586.435	9062.43
900.275	586.335	8997.7
900.375	586.235	9028.7
900.475	586.135	8977.4
900.575	586.035	9038.87
900.675	585.935	9054.37
900.774	585.836	9020.47
900.874	585.736	9032.33
900.974	585.636	8960.63
901.074	585.536	9032.13
901.174	585.436	9017.67
901.274	585.336	8931.13
901.374	585.236	9007.7
901.474	585.136	8993.5
901.574	585.036	8933.87
901.673	584.937	8901.4
901.773	584.837	8976.9
901.873	584.737	8996.9
901.973	584.637	8980.2
902.073	584.537	9022.37
902.173	584.437	8957.43
902.273	584.337	8925.8
902.373	584.237	8978.77
902.473	584.137	8981.8
902.573	584.037	8937.97
902.672	583.938	8956.67
902.772	583.838	9008.07
902.872	583.738	8923.63
902.972	583.638	8953.27
903.072	583.538	8988.8
903.172	583.438	8925.93
903.272	583.338	8929.73
903.372	583.238	9019.73
903.472	583.138	9056.3
903.571	583.039	8992.47
903.671	582.939	9035.17
903.771	582.839	8971.93
903.871	582.739	8896.6
903.971	582.639	8992.6
904.071	582.539	9000.13
904.171	582.439	9058.43
904.271	582.339	8924.73
904.371	582.239	8993.6
904.471	582.139	8995.6
904.57	582.04	9051.3
904.67	581.94	8991.8
904.77	581.84	9045.33
904.87	581.74	9157.73
904.97	581.64	9038.77
905.07	581.54	9030.67
905.17	581.44	9025.73
905.27	581.34	9035.3
905.37	581.24	9121
905.47	581.14	9214.23
905.569	581.041	9071.13
905.669	580.941	9123.87
905.769	580.841	9189.2
905.869	580.741	9244.87
905.969	580.641	9158.73
906.069	580.541	9327.8
906.169	580.441	9403.23
906.269	580.341	9320.67
906.369	580.241	9438.57
906.468	580.142	9430.67
906.568	580.042	9362.5
906.668	579.942	9516.6
906.768	579.842	9542.17
906.868	579.742	9624
906.968	579.642	9633.2
907.068	579.542	9646.3
907.168	579.442	9735.17
907.268	579.342	9635.1
907.368	579.242	9640.13
907.467	579.143	9786.93
907.567	579.043	9688.5
907.667	578.943	9665.17
907.767	578.843	9765.67
907.867	578.743	9772.73
907.967	578.643	9824.17
908.067	578.543	9840.13
908.167	578.443	9883.4
908.267	578.343	9870.5
908.366	578.244	9871.77
908.466	578.144	9932.5
908.566	578.044	9971.83
908.666	577.944	9975.73
908.766	577.844	10075.9
908.866	577.744	10019.8
908.966	577.644	10043.6
909.066	577.544	10082.3
909.166	577.444	10232.4
909.266	577.344	10276.6
909.365	577.245	10171.9
909.465	577.145	10262.7
909.565	577.045	10243.6
909.665	576.945	10247.2
909.765	576.845	10185.1
909.865	576.745	10303.5
909.965	576.645	10376.1
910.065	576.545	10390.5
910.165	576.445	10438.3
910.265	576.345	10528.1
910.364	576.246	10577.5
910.464	576.146	10570
910.564	576.046	10629.7
910.664	575.946	10761.3
910.764	575.846	10816.6
910.864	575.746	10697
910.964	575.646	10760.4
911.064	575.546	10807.1
911.164	575.446	10908.6
911.263	575.347	10797.4
911.363	575.247	10791.3
911.463	575.147	10813.2
911.563	575.047	10793.9
911.663	574.947	10753.4
911.763	574.847	10785.5
911.863	574.747	10907.3
911.963	574.647	10958.3
912.063	574.547	11112
912.163	574.447	11335.9
912.262	574.348	11401.5
912.362	574.248	11529.7
912.462	574.148	11795.5
912.562	574.048	11941
912.662	573.948	12034.1
912.762	573.848	12277.1
912.862	573.748	12393.1
912.962	573.648	12602.4
913.062	573.548	12621.3
913.161	573.449	12772.3
913.261	573.349	13002.4
913.361	573.249	13060.3
913.461	573.149	13221.6
913.561	573.049	13535.6
913.661	572.949	13626.9
913.761	572.849	13691.9
913.861	572.749	13868.4
913.961	572.649	13890.5
914.061	572.549	13813.7
914.16	572.45	13939.5
914.26	572.35	14008.9
914.36	572.25	13927.2
914.46	572.15	13859
914.56	572.05	13802.4
914.66	571.95	13676.1
914.76	571.85	13531
914.86	571.75	13412
914.96	571.65	13230.5
915.06	571.55	13223.9
915.159	571.451	13209.6
915.259	571.351	13331.9
915.359	571.251	13512
915.459	571.151	13693.7
915.559	571.051	13899.7
915.659	570.951	14129.4
915.759	570.851	14417
915.859	570.751	14690.4
915.959	570.651	14832.3
916.058	570.552	14999.3
916.158	570.452	15063.3
916.258	570.352	15040.9
916.358	570.252	15002.2
916.458	570.152	14837.6
916.558	570.052	14720.7
916.658	569.952	14703.2
916.758	569.852	14578.6
916.858	569.752	14693.5
916.958	569.652	14832.9
917.057	569.553	14846.2
917.157	569.453	15200.7
917.257	569.353	15395.8
917.357	569.253	15882.6
917.457	569.153	16430.3
917.557	569.053	17106.4
917.657	568.953	17953.8
917.757	568.853	19083.2
917.857	568.753	20368.3
917.956	568.654	22117.2
918.056	568.554	23790
918.156	568.454	25706.6
918.256	568.354	27467.7
918.356	568.254	29180.3
918.456	568.154	30403.1
918.556	568.054	30908
918.656	567.954	30382.9
918.756	567.854	28709.5
918.856	567.754	26643.6
918.955	567.655	24073.7
919.055	567.555	21602.8
919.155	567.455	19731.1
919.255	567.355	18227.9
919.355	567.255	17058.7
919.455	567.155	16292.1
919.555	567.055	15588.6
919.655	566.955	14824.2
919.755	566.855	14308.1
919.855	566.755	13637.7
919.954	566.656	12899.3
920.054	566.556	12093.7
920.154	566.456	11560.8
920.254	566.356	11130.8
920.354	566.256	10812
920.454	566.156	10599.4
920.554	566.056	10649.2
920.654	565.956	10724.5
920.754	565.856	10893.1
920.853	565.757	11193.6
920.953	565.657	11550.6
921.053	565.557	11867.1
921.153	565.457	12025.6
921.253	565.357	12172.4
921.353	565.257	12048.3
921.453	565.157	11647.4
921.553	565.057	11143.8
921.653	564.957	10569.1
921.753	564.857	9840.5
921.852	564.758	9141.4
921.952	564.658	8560.3
922.052	564.558	8019.77
922.152	564.458	7534.53
922.252	564.358	7174.13
922.352	564.258	6915.4
922.452	564.158	6606.9
922.552	564.058	6471.67
922.652	563.958	6380.37
922.751	563.859	6167.2
922.851	563.759	6095.9
922.951	563.659	6023.47
923.051	563.559	5872.8
923.151	563.459	5870.37
923.251	563.359	5812.63
923.351	563.259	5777.13
923.451	563.159	5733.63
923.551	563.059	5615.23
923.651	562.959	5576.4
923.75	562.86	5590.2
923.85	562.76	5608.9
923.95	562.66	5552.7
924.05	562.56	5562
924.15	562.46	5566.33
924.25	562.36	5485.67
924.35	562.26	5510.7
924.45	562.16	5492.9
924.55	562.06	5496.13
924.65	561.96	5345.2
924.749	561.861	5445.37
924.849	561.761	5427.5
924.949	561.661	5467.33
925.049	561.561	5393.33
925.149	561.461	5446
925.249	561.361	5394.27
925.349	561.261	5328.97
925.449	561.161	5385.4
925.549	561.061	5319.03
925.648	560.962	5307.6
925.748	560.862	5326.9
925.848	560.762	5308.63
925.948	560.662	5308.63
926.048	560.562	5319.83
926.148	560.462	5258.07
926.248	560.362	5191.47
926.348	560.262	5214.8
926.448	560.162	5213.47
926.548	560.062	5172.13
926.647	559.963	5165.97
926.747	559.863	5108.23
926.847	559.763	5133.87
926.947	559.663	5109.2
927.047	559.563	5099.67
927.147	559.463	5077.67
927.247	559.363	5027.03
927.347	559.263	5014.53
927.447	559.163	4938.87
927.546	559.064	4959.23
927.646	558.964	4947.2
927.746	558.864	4916.5
927.846	558.764	4850.7
927.946	558.664	4804.5
928.046	558.564	4757.47
928.146	558.464	4763.87
928.246	558.364	4755.13
928.346	558.264	4740.27
928.446	558.164	4696.57
928.545	558.065	4676.53
928.645	557.965	4689.4
928.745	557.865	4620.73
928.845	557.765	4665.43
928.945	557.665	4633.53
929.045	557.565	4594.4
929.145	557.465	4579.3
929.245	557.365	4543
929.345	557.265	4541.7
929.445	557.165	4515.37
929.544	557.066	4437.3
929.644	556.966	4380.27
929.744	556.866	4420.7
929.844	556.766	4396.8
929.944	556.666	4318.47
930.044	556.566	4305.03
930.144	556.466	4280.17
930.244	556.366	4350.73
930.344	556.266	4251.37
930.443	556.167	4219.77
930.543	556.067	4204.93
930.643	555.967	4177.73
930.743	555.867	4153.2
930.843	555.767	4090.83
930.943	555.667	4151.07
931.043	555.567	4155.6
931.143	555.467	4174.5
931.243	555.367	4142.33
931.343	555.267	4232.4
931.442	555.168	4213.83
931.542	555.068	4138.8
931.642	554.968	4190.33
931.742	554.868	4281.13
931.842	554.768	4260.47
931.942	554.668	4256.8
932.042	554.568	4296.33
932.142	554.468	4286.7
932.242	554.368	4268.3
932.342	554.268	4376.93
932.441	554.169	4336.37
932.541	554.069	4448.7
932.641	553.969	4398.07
932.741	553.869	4373.7
932.841	553.769	4367.47
932.941	553.669	4354.07
933.041	553.569	4398.77
933.141	553.469	4390.6
933.241	553.369	4459.97
933.34	553.27	4483.5
933.44	553.17	4521.63
933.54	553.07	4513.1
933.64	552.97	4616.47
933.74	552.87	4607.57
933.84	552.77	4666.87
933.94	552.67	4777.3
934.04	552.57	4774.7
934.14	552.47	4845.5
934.24	552.37	4914.37
934.339	552.271	4949.83
934.439	552.171	4988.53
934.539	552.071	5048.63
934.639	551.971	5005.9
934.739	551.871	4988.37
934.839	551.771	4957.87
934.939	551.671	4910.07
935.039	551.571	4794.53
935.139	551.471	4668.83
935.238	551.372	4624.57
935.338	551.272	4548.7
935.438	551.172	4392.17
935.538	551.072	4312.8
935.638	550.972	4212.9
935.738	550.872	4095.7
935.838	550.772	4011.07
935.938	550.672	4005.77
936.038	550.572	3986.6
936.138	550.472	3991.43
936.237	550.373	3899.93
936.337	550.273	3839.43
936.437	550.173	3889.07
936.537	550.073	3879.17
936.637	549.973	3881.57
936.737	549.873	3918.4
936.837	549.773	4029.7
936.937	549.673	4082.57
937.037	549.573	4139.33
937.137	549.473	4222.23
937.236	549.374	4318.23
937.336	549.274	4512.97
937.436	549.174	4734.1
937.536	549.074	4852.17
937.636	548.974	4997.33
937.736	548.874	5225.7
937.836	548.774	5512.27
937.936	548.674	5646.07
938.036	548.574	5772.37
938.135	548.475	6033.5
938.235	548.375	6072.67
938.335	548.275	6072.03
938.435	548.175	6016.3
938.535	548.075	5901.6
938.635	547.975	5774.37
938.735	547.875	5577.47
938.835	547.775	5396.17
938.935	547.675	5130.6
939.035	547.575	4945.07
939.134	547.476	4762.87
939.234	547.376	4574.03
939.334	547.276	4408.43
939.434	547.176	4316
939.534	547.076	4140.53
939.634	546.976	4012.57
939.734	546.876	3827.3
939.834	546.776	3718.3
939.934	546.676	3618.27
940.033	546.577	3502.83
940.133	546.477	3390.63
940.233	546.377	3336.57
940.333	546.277	3295.57
940.433	546.177	3278.3
940.533	546.077	3209.64
940.633	545.977	3159.78
940.733	545.877	3132.64
940.833	545.777	3162.34
940.933	545.677	3110.34
941.032	545.578	3067.53
941.132	545.478	3005.82
941.232	545.378	2907.93
941.332	545.278	2885.44
941.432	545.178	2815.27
941.532	545.078	2798.85
941.632	544.978	2699.21
941.732	544.878	2656.49
941.832	544.778	2547.68
941.932	544.678	2506.86
942.031	544.579	2500.91
942.131	544.479	2454.69
942.231	544.379	2381.87
942.331	544.279	2334.05
942.431	544.179	2281.94
942.531	544.079	2262.76
942.631	543.979	2284.51
942.731	543.879	2255.36
942.831	543.779	2241.55
942.93	543.68	2231.74
943.03	543.58	2203.6
943.13	543.48	2203.76
943.23	543.38	2230.83
943.33	543.28	2214.37
943.43	543.18	2157.91
943.53	543.08	2125.94
943.63	542.98	2161.02
943.73	542.88	2172.04
943.83	542.78	2150.24
943.929	542.681	2116.53
944.029	542.581	2113.16
944.129	542.481	2098.54
944.229	542.381	2129.32
944.329	542.281	2112.3
944.429	542.181	2109.41
944.529	542.081	2108.2
944.629	541.981	2090.8
944.729	541.881	2096.43
944.828	541.782	2041.87
944.928	541.682	2034.46
945.028	541.582	2088.32
945.128	541.482	2057.95
945.228	541.382	2028.82
945.328	541.282	2015.86
945.428	541.182	2022.95
945.528	541.082	2011.3
945.628	540.982	2030.25
945.728	540.882	2028.96
945.827	540.783	2021.29
945.927	540.683	2007.77
946.027	540.583	1999.92
946.127	540.483	1959.97
946.227	540.383	1972.02
946.327	540.283	1955.95
946.427	540.183	1979.15
946.527	540.083	1962.47
946.627	539.983	1916.04
946.727	539.883	1907.96
946.826	539.784	1918.29
946.926	539.684	1927.62
947.026	539.584	1959.01
947.126	539.484	1920.88
947.226	539.384	1885.17
947.326	539.284	1889.61
947.426	539.184	1914.49
947.526	539.084	1909.5
947.626	538.984	1860.1
947.725	538.885	1841.17
947.825	538.785	1865.43
947.925	538.685	1872.82
948.025	538.585	1889.25
948.125	538.485	1859.45
948.225	538.385	1864.87
948.325	538.285	1835.02
948.425	538.185	1848.62
948.525	538.085	1823.84
948.625	537.985	1824.24
948.724	537.886	1815.29
948.824	537.786	1805.11
948.924	537.686	1806.8
949.024	537.586	1807.53
949.124	537.486	1783.67
949.224	537.386	1796.49
949.324	537.286	1783.77
949.424	537.186	1757.75
949.524	537.086	1793.95
949.623	536.987	1787.83
949.723	536.887	1737.68
949.823	536.787	1730.52
949.923	536.687	1766.52
950.023	536.587	1745.64
950.123	536.487	1731.42
950.223	536.387	1749.72
950.323	536.287	1756.28
950.423	536.187	1763.28
950.523	536.087	1764.06
950.622	535.988	1757.5
950.722	535.888	1751.84
950.822	535.788	1748.34
950.922	535.688	1725.36
951.022	535.588	1744.25
951.122	535.488	1726.58
951.222	535.388	1730.71
951.322	535.288	1759.01
951.422	535.188	1764.68
951.522	535.088	1747.77
951.621	534.989	1773.05
951.721	534.889	1751.37
951.821	534.789	1747.85
951.921	534.689	1788.5
952.021	534.589	1799.77
952.121	534.489	1805.35
952.221	534.389	1800.58
952.321	534.289	1827.11
952.421	534.189	1834.03
952.52	534.09	1849.99
952.62	533.99	1845.32
952.72	533.89	1861.42
952.82	533.79	1879.18
952.92	533.69	1917.07
953.02	533.59	1892.38
953.12	533.49	1924.18
953.22	533.39	1936.59
953.32	533.29	2002.91
953.42	533.19	2046.65
953.519	533.091	2057.04
953.619	532.991	2107.35
953.719	532.891	2120.61
953.819	532.791	2188.42
953.919	532.691	2234.28
954.019	532.591	2266.76
954.119	532.491	2293.54
954.219	532.391	2364.73
954.319	532.291	2418.72
954.418	532.192	2508.31
954.518	532.092	2613.44
954.618	531.992	2646.87
954.718	531.892	2696.58
954.818	531.792	2804.09
954.918	531.692	2918.43
955.018	531.592	2990.58
955.118	531.492	3014.9
955.218	531.392	3027.89
955.318	531.292	2983.34
955.417	531.193	2914.87
955.517	531.093	2832.63
955.617	530.993	2692.76
955.717	530.893	2520.8
955.817	530.793	2361.83
955.917	530.693	2172.12
956.017	530.593	2078.13
956.117	530.493	2014.06
956.217	530.393	1865.68
956.317	530.293	1724.98
956.416	530.194	1697.26
956.516	530.094	1689.62
956.616	529.994	1627.22
956.716	529.894	1617.09
956.816	529.794	1584.19
956.916	529.694	1596.05
957.016	529.594	1615.15
957.116	529.494	1578.76
957.216	529.394	1599.39
957.315	529.295	1586.08
957.415	529.195	1588.25
957.515	529.095	1548.71
957.615	528.995	1541.3
957.715	528.895	1563.5
957.815	528.795	1546.8
957.915	528.695	1504.58
958.015	528.595	1537.03
958.115	528.495	1541.12
958.215	528.395	1558.38
958.314	528.296	1541.29
958.414	528.196	1523.29
958.514	528.096	1503.14
958.614	527.996	1554.5
958.714	527.896	1556.57
958.814	527.796	1534.18
958.914	527.696	1565.52
959.014	527.596	1549.12
959.114	527.496	1495.48
959.213	527.397	1534.18
959.313	527.297	1549.24
959.413	527.197	1566.1
959.513	527.097	1576.6
959.613	526.997	1574.45
959.713	526.897	1566.86
959.813	526.797	1558.49
959.913	526.697	1599.84
960.013	526.597	1559.7
960.113	526.497	1546.99
960.212	526.398	1550.97
960.312	526.298	1552.86
960.412	526.198	1537.71
960.512	526.098	1541.17
960.612	525.998	1550.62
960.712	525.898	1571.62
960.812	525.798	1551.55
960.912	525.698	1543.66
961.012	525.598	1546.59
961.112	525.498	1518.49
961.211	525.399	1539.41
961.311	525.299	1538.84
961.411	525.199	1521.28
961.511	525.099	1595.33
961.611	524.999	1585.06
961.711	524.899	1551.99
961.811	524.799	1537.1
961.911	524.699	1537.5
962.011	524.599	1537.07
962.11	524.5	1538.44
962.21	524.4	1546.87
962.31	524.3	1564.15
962.41	524.2	1546.22
962.51	524.1	1523.65
962.61	524	1560.9