c:\users\mark\owncloud\muelheim group\projects\gas phase background\ex340_cec356_cu n2 largearea.vms
Cu LMM
	Characteristic Energy eV	1486.61	Acquisition Time s	4.35
KE_Cu LMM	BE_Cu LMM	CPS_Cu LMM
866.61	620	3017.45
866.71	619.9	2975.43
866.81	619.8	2991.03
866.91	619.7	2966.74
867.01	619.6	2974.97
867.109	619.501	2927.63
867.209	619.401	2963.66
867.309	619.301	2990.55
867.409	619.201	2972.09
867.509	619.101	2943.45
867.609	619.001	2971.2
867.709	618.901	2942.34
867.809	618.801	2959.72
867.909	618.701	2967.68
868.009	618.601	2926.48
868.108	618.502	2920.44
868.208	618.402	2963.63
868.308	618.302	2952.32
868.408	618.202	2935.84
868.508	618.102	2913.06
868.608	618.002	2956.71
868.708	617.902	2963.38
868.808	617.802	2927.49
868.908	617.702	2919.17
869.008	617.602	2955.06
869.107	617.503	2924.21
869.207	617.403	2910.14
869.307	617.303	2933.93
869.407	617.203	2941.2
869.507	617.103	2920.57
869.607	617.003	2929.17
869.707	616.903	2920.02
869.807	616.803	2903.56
869.907	616.703	2901.89
870.006	616.604	2936.16
870.106	616.504	2936.99
870.206	616.404	2950.09
870.306	616.304	2940.64
870.406	616.204	2936.53
870.506	616.104	2911.06
870.606	616.004	2931.24
870.706	615.904	2942.97
870.806	615.804	2914.18
870.906	615.704	2902.87
871.005	615.605	2938.14
871.105	615.505	2903.89
871.205	615.405	2886.85
871.305	615.305	2928.3
871.405	615.205	2923.26
871.505	615.105	2936.94
871.605	615.005	2927.22
871.705	614.905	2922.16
871.805	614.805	2899.47
871.904	614.706	2905.91
872.004	614.606	2936.14
872.104	614.506	2911.98
872.204	614.406	2916.34
872.304	614.306	2890.69
872.404	614.206	2899.4
872.504	614.106	2953.63
872.604	614.006	2905.86
872.704	613.906	2921.38
872.804	613.806	2905.01
872.903	613.707	2920.18
873.003	613.607	2912.18
873.103	613.507	2937.15
873.203	613.407	2919.7
873.303	613.307	2905.1
873.403	613.207	2953.1
873.503	613.107	2936.32
873.603	613.007	2927.31
873.703	612.907	2953.49
873.803	612.807	2920.25
873.902	612.708	2901.01
874.002	612.608	2928.62
874.102	612.508	2938.94
874.202	612.408	2938.69
874.302	612.308	2942.71
874.402	612.208	2944.78
874.502	612.108	2952.34
874.602	612.008	2926.18
874.702	611.908	2912.92
874.801	611.809	2921.75
874.901	611.709	2909.77
875.001	611.609	2906.23
875.101	611.509	2939.08
875.201	611.409	2936.34
875.301	611.309	2937.08
875.401	611.209	2960.07
875.501	611.109	2945.59
875.601	611.009	2972.92
875.701	610.909	2942.57
875.8	610.81	2934.25
875.9	610.71	2924.83
876	610.61	2932.55
876.1	610.51	2931.61
876.2	610.41	2931.17
876.3	610.31	2950.87
876.4	610.21	2935.52
876.5	610.11	2951.89
876.6	610.01	2977.86
876.699	609.911	2922.97
876.799	609.811	2936.97
876.899	609.711	2938.11
876.999	609.611	2970.67
877.099	609.511	2957.98
877.199	609.411	2957.15
877.299	609.311	2957.03
877.399	609.211	2949.59
877.499	609.111	2942.78
877.599	609.011	2906.32
877.698	608.912	2942.39
877.798	608.812	2951.79
877.898	608.712	2928.76
877.998	608.612	2905.13
878.098	608.512	2906.3
878.198	608.412	2960.83
878.298	608.312	2928.41
878.398	608.212	2939.45
878.498	608.112	2955.13
878.598	608.012	2955.17
878.697	607.913	2983.7
878.797	607.813	2946.48
878.897	607.713	2952.21
878.997	607.613	2943.63
879.097	607.513	2991.47
879.197	607.413	2935.29
879.297	607.313	2923.79
879.397	607.213	2990.57
879.497	607.113	2979.06
879.596	607.014	2927.79
879.696	606.914	2996.05
879.796	606.814	2981.75
879.896	606.714	2946.97
879.996	606.614	2908.92
880.096	606.514	2942.53
880.196	606.414	2980.51
880.296	606.314	2929.56
880.396	606.214	2920.09
880.496	606.114	2976.14
880.595	606.015	2969.63
880.695	605.915	2950.16
880.795	605.815	2995.03
880.895	605.715	2932.6
880.995	605.615	2974.46
881.095	605.515	2953.36
881.195	605.415	2956.76
881.295	605.315	2960.3
881.395	605.215	2972
881.494	605.116	2951.22
881.594	605.016	2995.59
881.694	604.916	2976.51
881.794	604.816	2933.52
881.894	604.716	2967.15
881.994	604.616	2982.8
882.094	604.516	2967.93
882.194	604.416	2981.01
882.294	604.316	3005.38
882.394	604.216	2986.57
882.493	604.117	2968.71
882.593	604.017	2973.98
882.693	603.917	2961.4
882.793	603.817	2965.45
882.893	603.717	2988.07
882.993	603.617	2962.48
883.093	603.517	2983.01
883.193	603.417	2983.52
883.293	603.317	2963.06
883.393	603.217	2959.59
883.492	603.118	3000.23
883.592	603.018	2993.63
883.692	602.918	2979.7
883.792	602.818	3011.68
883.892	602.718	2985.66
883.992	602.618	2949.36
884.092	602.518	2965.38
884.192	602.418	2982.05
884.292	602.318	2983.1
884.391	602.219	2987.82
884.491	602.119	2996.39
884.591	602.019	2999.24
884.691	601.919	2989.63
884.791	601.819	2980.02
884.891	601.719	2972.85
884.991	601.619	2978.39
885.091	601.519	2999.95
885.191	601.419	2993.68
885.291	601.319	2951.38
885.39	601.22	2996.05
885.49	601.12	2972.18
885.59	601.02	2947.38
885.69	600.92	2970.3
885.79	600.82	2974.55
885.89	600.72	3002.11
885.99	600.62	2981.15
886.09	600.52	2967.54
886.19	600.42	2981.17
886.289	600.321	3014.28
886.389	600.221	2993.17
886.489	600.121	3032.9
886.589	600.021	2993.45
886.689	599.921	2980.14
886.789	599.821	2988.87
886.889	599.721	2979.03
886.989	599.621	2970
887.089	599.521	2999.82
887.189	599.421	3007.63
887.288	599.322	3027.77
887.388	599.222	2992.87
887.488	599.122	2987.66
887.588	599.022	3011.33
887.688	598.922	2996.37
887.788	598.822	2996.51
887.888	598.722	2977.56
887.988	598.622	2997.45
888.088	598.522	3025.38
888.188	598.422	2993.15
888.287	598.323	3009.03
888.387	598.223	2989.43
888.487	598.123	2992.02
888.587	598.023	3014.62
888.687	597.923	3008.07
888.787	597.823	3033.63
888.887	597.723	3052.16
888.987	597.623	3002.41
889.087	597.523	3004.85
889.186	597.424	3009.43
889.286	597.324	3011.38
889.386	597.224	3052.97
889.486	597.124	3036.76
889.586	597.024	3012.76
889.686	596.924	3028.87
889.786	596.824	3037.43
889.886	596.724	2989.52
889.986	596.624	3019.17
890.086	596.524	3036.21
890.185	596.425	3032.85
890.285	596.325	3035.84
890.385	596.225	3024.97
890.485	596.125	3007.03
890.585	596.025	2984.41
890.685	595.925	3023.4
890.785	595.825	2983.45
890.885	595.725	2978.46
890.985	595.625	2995.47
891.084	595.526	3019.66
891.184	595.426	3007.98
891.284	595.326	3032.23
891.384	595.226	3015.06
891.484	595.126	3007.56
891.584	595.026	3030.76
891.684	594.926	3030.51
891.784	594.826	2998.83
891.884	594.726	3023.1
891.984	594.626	3041.79
892.083	594.527	3017.98
892.183	594.427	3012.46
892.283	594.327	3032.3
892.383	594.227	3057.66
892.483	594.127	3032.14
892.583	594.027	3025.15
892.683	593.927	3003.15
892.783	593.827	3022.94
892.883	593.727	3038.44
892.983	593.627	3048.78
893.082	593.528	2991.29
893.182	593.428	2994.16
893.282	593.328	2980.87
893.382	593.228	3042.09
893.482	593.128	3005.29
893.582	593.028	2954.16
893.682	592.928	3013.72
893.782	592.828	3019.33
893.882	592.728	2997.52
893.981	592.629	2971.72
894.081	592.529	2989.47
894.181	592.429	2998.25
894.281	592.329	3010.28
894.381	592.229	3035.61
894.481	592.129	3022.09
894.581	592.029	3015.91
894.681	591.929	3015.61
894.781	591.829	3030.78
894.881	591.729	2996.02
894.98	591.63	2973.45
895.08	591.53	2980.69
895.18	591.43	3004.16
895.28	591.33	2984.23
895.38	591.23	2968.34
895.48	591.13	2982.94
895.58	591.03	3012.92
895.68	590.93	3010.62
895.78	590.83	3033.98
895.879	590.731	3011.47
895.979	590.631	2988.48
896.079	590.531	2964.48
896.179	590.431	2954.25
896.279	590.331	3004.57
896.379	590.231	2995.95
896.479	590.131	2999.59
896.579	590.031	3002.16
896.679	589.931	3019.06
896.779	589.831	2984.32
896.878	589.732	2942.76
896.978	589.632	2959.84
897.078	589.532	3031.03
897.178	589.432	2991.68
897.278	589.332	2968.53
897.378	589.232	2983.03
897.478	589.132	2996.92
897.578	589.032	2993.98
897.678	588.932	2967.56
897.778	588.832	2975.89
897.877	588.733	2996.21
897.977	588.633	2985.93
898.077	588.533	2977.29
898.177	588.433	3011.77
898.277	588.333	2977.36
898.377	588.233	3017.13
898.477	588.133	2990.94
898.577	588.033	2995.98
898.677	587.933	3016.92
898.776	587.834	2980.57
898.876	587.734	2998.74
898.976	587.634	2957.66
899.076	587.534	2972.71
899.176	587.434	2989.61
899.276	587.334	3026.39
899.376	587.234	3030.34
899.476	587.134	2997.17
899.576	587.034	2989.45
899.676	586.934	3031.54
899.775	586.835	2973.1
899.875	586.735	3034.99
899.975	586.635	3014.6
900.075	586.535	2987.54
900.175	586.435	2986.69
900.275	586.335	3006.74
900.375	586.235	3000.78
900.475	586.135	3020.07
900.575	586.035	3021.33
900.675	585.935	3006.41
900.774	585.836	2993.31
900.874	585.736	2962.53
900.974	585.636	2973.75
901.074	585.536	2953.22
901.174	585.436	2954.67
901.274	585.336	2969.95
901.374	585.236	2966.9
901.474	585.136	2983.84
901.574	585.036	2973.29
901.673	584.937	2985.4
901.773	584.837	2944.46
901.873	584.737	2961.08
901.973	584.637	3004.62
902.073	584.537	2990.9
902.173	584.437	2963.66
902.273	584.337	2938.18
902.373	584.237	2945.45
902.473	584.137	2907.24
902.573	584.037	2990.62
902.672	583.938	3033.24
902.772	583.838	2968.55
902.872	583.738	2935.84
902.972	583.638	2943.89
903.072	583.538	2895.17
903.172	583.438	2888.44
903.272	583.338	2912.71
903.372	583.238	2940.37
903.472	583.138	2892.83
903.571	583.039	2924.51
903.671	582.939	2924.85
903.771	582.839	2939.54
903.871	582.739	2897.1
903.971	582.639	2931.56
904.071	582.539	2927.4
904.171	582.439	2925.33
904.271	582.339	2968.32
904.371	582.239	2948.99
904.471	582.139	2968.9
904.57	582.04	2980
904.67	581.94	2948.9
904.77	581.84	2992.55
904.87	581.74	2980.25
904.97	581.64	2958.53
905.07	581.54	2987.75
905.17	581.44	3017.1
905.27	581.34	3006.11
905.37	581.24	2994.8
905.47	581.14	2985.91
905.569	581.041	2977.82
905.669	580.941	2950.14
905.769	580.841	2944.16
905.869	580.741	2908.14
905.969	580.641	2877.01
906.069	580.541	2811.86
906.169	580.441	2763.29
906.269	580.341	2774.18
906.369	580.241	2735.03
906.468	580.142	2677.2
906.568	580.042	2688.85
906.668	579.942	2632.57
906.768	579.842	2650.83
906.868	579.742	2675.49
906.968	579.642	2653.2
907.068	579.542	2654.28
907.168	579.442	2674.67
907.268	579.342	2582.97
907.368	579.242	2579.79
907.467	579.143	2586.46
907.567	579.043	2593.26
907.667	578.943	2610.76
907.767	578.843	2607.24
907.867	578.743	2570.97
907.967	578.643	2619.63
908.067	578.543	2620.11
908.167	578.443	2581.56
908.267	578.343	2610.62
908.366	578.244	2568
908.466	578.144	2575.22
908.566	578.044	2617.95
908.666	577.944	2629.15
908.766	577.844	2593.26
908.866	577.744	2551.54
908.966	577.644	2548.53
909.066	577.544	2598.97
909.166	577.444	2543.93
909.266	577.344	2556.62
909.365	577.245	2597.33
909.465	577.145	2571.59
909.565	577.045	2533.06
909.665	576.945	2552.02
909.765	576.845	2521.93
909.865	576.745	2530
909.965	576.645	2515.68
910.065	576.545	2536.39
910.165	576.445	2540.44
910.265	576.345	2544.94
910.364	576.246	2549.77
910.464	576.146	2520.83
910.564	576.046	2552.16
910.664	575.946	2578.53
910.764	575.846	2542.83
910.864	575.746	2556.62
910.964	575.646	2565.61
911.064	575.546	2586.55
911.164	575.446	2534.67
911.263	575.347	2543.33
911.363	575.247	2555.52
911.463	575.147	2561.36
911.563	575.047	2543.43
911.663	574.947	2563.84
911.763	574.847	2577.43
911.863	574.747	2613.15
911.963	574.647	2596.94
912.063	574.547	2586.07
912.163	574.447	2621.1
912.262	574.348	2611.13
912.362	574.248	2668.78
912.462	574.148	2768.9
912.562	574.048	2747.54
912.662	573.948	2740.09
912.762	573.848	2778.99
912.862	573.748	2776.41
912.962	573.648	2806.57
913.062	573.548	2862.94
913.161	573.449	2861.01
913.261	573.349	2875.84
913.361	573.249	2888.94
913.461	573.149	2896.41
913.561	573.049	2928.87
913.661	572.949	2962.39
913.761	572.849	3003.36
913.861	572.749	3007.52
913.961	572.649	3059.52
914.061	572.549	3027.54
914.16	572.45	3028.87
914.26	572.35	2997.4
914.36	572.25	3002.76
914.46	572.15	2985.98
914.56	572.05	2976.94
914.66	571.95	2974.34
914.76	571.85	2941.08
914.86	571.75	2893.43
914.96	571.65	2881.13
915.06	571.55	2933.95
915.159	571.451	2866.14
915.259	571.351	2868.87
915.359	571.251	2917.38
915.459	571.151	2949.17
915.559	571.051	2985.33
915.659	570.951	3007.7
915.759	570.851	3092.25
915.859	570.751	3131.68
915.959	570.651	3168.69
916.058	570.552	3180.62
916.158	570.452	3200.25
916.258	570.352	3201.84
916.358	570.252	3140.69
916.458	570.152	3098.64
916.558	570.052	3094.11
916.658	569.952	3085.84
916.758	569.852	3116.3
916.858	569.752	3104.21
916.958	569.652	3109.79
917.057	569.553	3168.6
917.157	569.453	3193.7
917.257	569.353	3232.83
917.357	569.253	3306.53
917.457	569.153	3373.59
917.557	569.053	3505.98
917.657	568.953	3636.05
917.757	568.853	3811.82
917.857	568.753	4075.36
917.956	568.654	4337.13
918.056	568.554	4688.64
918.156	568.454	4996.14
918.256	568.354	5206.05
918.356	568.254	5528.57
918.456	568.154	5743.1
918.556	568.054	5776.37
918.656	567.954	5684.21
918.756	567.854	5478.25
918.856	567.754	5066.34
918.955	567.655	4649.54
919.055	567.555	4239.22
919.155	567.455	3920.83
919.255	567.355	3688.07
919.355	567.255	3471.31
919.455	567.155	3330.11
919.555	567.055	3280.67
919.655	566.955	3122.11
919.755	566.855	3013.52
919.855	566.755	2892.3
919.954	566.656	2754.87
920.054	566.556	2639.29
920.154	566.456	2532.87
920.254	566.356	2509.13
920.354	566.256	2422.23
920.454	566.156	2398.8
920.554	566.056	2428.46
920.654	565.956	2484.97
920.754	565.856	2488.64
920.853	565.757	2506.18
920.953	565.657	2548.92
921.053	565.557	2628.39
921.153	565.457	2649.29
921.253	565.357	2631.06
921.353	565.257	2641.2
921.453	565.157	2562.74
921.553	565.057	2450.18
921.653	564.957	2343.26
921.753	564.857	2227.37
921.852	564.758	2155.77
921.952	564.658	2048.99
922.052	564.558	1961.52
922.152	564.458	1850.45
922.252	564.358	1795
922.352	564.258	1729.14
922.452	564.158	1717.83
922.552	564.058	1653.01
922.652	563.958	1638.87
922.751	563.859	1595.65
922.851	563.759	1602.01
922.951	563.659	1587.37
923.051	563.559	1566.35
923.151	563.459	1563.22
923.251	563.359	1549.42
923.351	563.259	1545.63
923.451	563.159	1559.71
923.551	563.059	1551.62
923.651	562.959	1519.31
923.75	562.86	1492.69
923.85	562.76	1495.2
923.95	562.66	1485.31
924.05	562.56	1531.72
924.15	562.46	1515.91
924.25	562.36	1532.61
924.35	562.26	1524.7
924.45	562.16	1467.69
924.55	562.06	1504.62
924.65	561.96	1489.66
924.749	561.861	1476.74
924.849	561.761	1496.94
924.949	561.661	1491.68
925.049	561.561	1479.33
925.149	561.461	1484.5
925.249	561.361	1498.26
925.349	561.261	1475.34
925.449	561.161	1469.57
925.549	561.061	1467.39
925.648	560.962	1424.01
925.748	560.862	1463.58
925.848	560.762	1440.74
925.948	560.662	1433.77
926.048	560.562	1432.77
926.148	560.462	1420.95
926.248	560.362	1391.42
926.348	560.262	1386.31
926.448	560.162	1406.76
926.548	560.062	1409.13
926.647	559.963	1386.1
926.747	559.863	1397.73
926.847	559.763	1385.83
926.947	559.663	1359.09
927.047	559.563	1375.19
927.147	559.463	1343.85
927.247	559.363	1309.93
927.347	559.263	1314.21
927.447	559.163	1297.71
927.546	559.064	1292.13
927.646	558.964	1305.73
927.746	558.864	1300.85
927.846	558.764	1310.84
927.946	558.664	1303.47
928.046	558.564	1298.44
928.146	558.464	1299.97
928.246	558.364	1278.26
928.346	558.264	1268.26
928.446	558.164	1250.39
928.545	558.065	1264.92
928.645	557.965	1261.95
928.745	557.865	1262.21
928.845	557.765	1247.44
928.945	557.665	1249.74
929.045	557.565	1244.33
929.145	557.465	1212.7
929.245	557.365	1208.95
929.345	557.265	1225.89
929.445	557.165	1227.22
929.544	557.066	1230.86
929.644	556.966	1202.59
929.744	556.866	1210.56
929.844	556.766	1210.54
929.944	556.666	1189.05
930.044	556.566	1188.63
930.144	556.466	1182.37
930.244	556.366	1184.26
930.344	556.266	1197
930.443	556.167	1165.43
930.543	556.067	1170.79
930.643	555.967	1177.58
930.743	555.867	1171.5
930.843	555.767	1150.97
930.943	555.667	1149.73
931.043	555.567	1166.04
931.143	555.467	1164.31
931.243	555.367	1140.45
931.343	555.267	1157.32
931.442	555.168	1158.39
931.542	555.068	1168.8
931.642	554.968	1179.3
931.742	554.868	1181.84
931.842	554.768	1171.64
931.942	554.668	1182.68
932.042	554.568	1166.94
932.142	554.468	1184.85
932.242	554.368	1153.1
932.342	554.268	1171.99
932.441	554.169	1178.64
932.541	554.069	1200.79
932.641	553.969	1177.32
932.741	553.869	1190.94
932.841	553.769	1188.71
932.941	553.669	1169.63
933.041	553.569	1194.63
933.141	553.469	1183.73
933.241	553.369	1200.95
933.34	553.27	1218.5
933.44	553.17	1210.73
933.54	553.07	1214
933.64	552.97	1226.24
933.74	552.87	1243.91
933.84	552.77	1253.78
933.94	552.67	1271.9
934.04	552.57	1269
934.14	552.47	1287.31
934.24	552.37	1297.95
934.339	552.271	1293.24
934.439	552.171	1283.23
934.539	552.071	1291.85
934.639	551.971	1297.31
934.739	551.871	1294.29
934.839	551.771	1300.44
934.939	551.671	1291.2
935.039	551.571	1253.59
935.139	551.471	1243.98
935.238	551.372	1220.41
935.338	551.272	1208.62
935.438	551.172	1193.99
935.538	551.072	1172.05
935.638	550.972	1124.18
935.738	550.872	1121.19
935.838	550.772	1118.02
935.938	550.672	1114.53
936.038	550.572	1079.3
936.138	550.472	1091.58
936.237	550.373	1111.72
936.337	550.273	1092.77
936.437	550.173	1067.16
936.537	550.073	1112.34
936.637	549.973	1116.31
936.737	549.873	1096.14
936.837	549.773	1093.75
936.937	549.673	1117.51
937.037	549.573	1150.09
937.137	549.473	1154.7
937.236	549.374	1167.25
937.336	549.274	1191.22
937.436	549.174	1233.39
937.536	549.074	1244.46
937.636	548.974	1318.47
937.736	548.874	1346.71
937.836	548.774	1364.1
937.936	548.674	1378.14
938.036	548.574	1437.5
938.135	548.475	1458.51
938.235	548.375	1473.19
938.335	548.275	1486.4
938.435	548.175	1470.37
938.535	548.075	1437.96
938.635	547.975	1427.19
938.735	547.875	1382.34
938.835	547.775	1353.63
938.935	547.675	1309.68
939.035	547.575	1276.77
939.134	547.476	1253.64
939.234	547.376	1260.49
939.334	547.276	1195.08
939.434	547.176	1183.09
939.534	547.076	1164.88
939.634	546.976	1100.16
939.734	546.876	1080.15
939.834	546.776	1084.43
939.934	546.676	1065.44
940.033	546.577	1036.29
940.133	546.477	1030.08
940.233	546.377	984.432
940.333	546.277	1001.09
940.433	546.177	985.414
940.533	546.077	975.556
940.633	545.977	975.669
940.733	545.877	992.264
940.833	545.777	960.655
940.933	545.677	952.657
941.032	545.578	963.89
941.132	545.478	964.347
941.232	545.378	939.784
941.332	545.278	938.418
941.432	545.178	937.028
941.532	545.078	912.648
941.632	544.978	898.211
941.732	544.878	905.545
941.832	544.778	875.297
941.932	544.678	866.414
942.031	544.579	888.522
942.131	544.479	863.664
942.231	544.379	857.568
942.331	544.279	842.359
942.431	544.179	842.216
942.531	544.079	839.607
942.631	543.979	809.784
942.731	543.879	820.195
942.831	543.779	803.499
942.93	543.68	795.517
943.03	543.58	813.034
943.13	543.48	794.108
943.23	543.38	787.122
943.33	543.28	775.297
943.43	543.18	773.752
943.53	543.08	783.211
943.63	542.98	785.713
943.73	542.88	794.922
943.83	542.78	781.278
943.929	542.681	778.152
944.029	542.581	742.637
944.129	542.481	746.011
944.229	542.381	773.503
944.329	542.281	760.037
944.429	542.181	768.703
944.529	542.081	770.966
944.629	541.981	769.103
944.729	541.881	776.972
944.828	541.782	765.828
944.928	541.682	745.929
945.028	541.582	763.869
945.128	541.482	776.671
945.228	541.382	774.761
945.328	541.282	749.754
945.428	541.182	750.915
945.528	541.082	767.211
945.628	540.982	748.517
945.728	540.882	746.2
945.827	540.783	756.503
945.927	540.683	748.584
946.027	540.583	734.897
946.127	540.483	752.628
946.227	540.383	743.639
946.327	540.283	755.103
946.427	540.183	740.143
946.527	540.083	758.115
946.627	539.983	757.071
946.727	539.883	754.418
946.826	539.784	741.478
946.926	539.684	728.989
947.026	539.584	734.177
947.126	539.484	740.802
947.226	539.384	743.966
947.326	539.284	741.308
947.426	539.184	720.025
947.526	539.084	718.103
947.626	538.984	737.149
947.725	538.885	741.202
947.825	538.785	725.782
947.925	538.685	718.524
948.025	538.585	728.221
948.125	538.485	722.644
948.225	538.385	731.986
948.325	538.285	716.292
948.425	538.185	726.526
948.525	538.085	719.234
948.625	537.985	702.506
948.724	537.886	720.251
948.824	537.786	721.016
948.924	537.686	731.08
949.024	537.586	723.009
949.124	537.486	700.228
949.224	537.386	709.416
949.324	537.286	703.097
949.424	537.186	703.88
949.524	537.086	720.014
949.623	536.987	725.485
949.723	536.887	725.855
949.823	536.787	710.177
949.923	536.687	709.363
950.023	536.587	717.956
950.123	536.487	711.145
950.223	536.387	721.54
950.323	536.287	714.039
950.423	536.187	714.485
950.523	536.087	734.306
950.622	535.988	724.651
950.722	535.888	716.389
950.822	535.788	714.832
950.922	535.688	709.913
951.022	535.588	690.423
951.122	535.488	703.524
951.222	535.388	730.805
951.322	535.288	727.802
951.422	535.188	710.326
951.522	535.088	735.782
951.621	534.989	731.455
951.721	534.889	721.349
951.821	534.789	728.717
951.921	534.689	734.644
952.021	534.589	723.097
952.121	534.489	721.786
952.221	534.389	716.832
952.321	534.289	730.936
952.421	534.189	728.161
952.52	534.09	733.871
952.62	533.99	746.386
952.72	533.89	742.497
952.82	533.79	728.959
952.92	533.69	741.393
953.02	533.59	740.685
953.12	533.49	747.455
953.22	533.39	746.453
953.32	533.29	760.584
953.42	533.19	779.044
953.519	533.091	773.77
953.619	532.991	782.274
953.719	532.891	811.657
953.819	532.791	782.37
953.919	532.691	800.03
954.019	532.591	802.533
954.119	532.491	820.207
954.219	532.391	826.754
954.319	532.291	816.561
954.418	532.192	841.308
954.518	532.092	841.559
954.618	531.992	862.382
954.718	531.892	873.069
954.818	531.792	899.582
954.918	531.692	907.683
955.018	531.592	922.145
955.118	531.492	930.97
955.218	531.392	937.828
955.318	531.292	938.926
955.417	531.193	933.143
955.517	531.093	903.738
955.617	530.993	869.706
955.717	530.893	835.883
955.817	530.793	825.825
955.917	530.693	802.037
956.017	530.593	771.687
956.117	530.493	764.313
956.217	530.393	740.545
956.317	530.293	707.191
956.416	530.194	709.046
956.516	530.094	710.149
956.616	529.994	702.324
956.716	529.894	674.968
956.816	529.794	688.568
956.916	529.694	672.191
957.016	529.594	682.566
957.116	529.494	693.276
957.216	529.394	697.108
957.315	529.295	704.699
957.415	529.195	687.331
957.515	529.095	677.623
957.615	528.995	690.186
957.715	528.895	685.016
957.815	528.795	671.846
957.915	528.695	684.936
958.015	528.595	684.77
958.115	528.495	678.563
958.215	528.395	686.382
958.314	528.296	671.844
958.414	528.196	685.867
958.514	528.096	674.133
958.614	527.996	684.251
958.714	527.896	670.483
958.814	527.796	688.368
958.914	527.696	669.818
959.014	527.596	671.655
959.114	527.496	670.083
959.213	527.397	678.664
959.313	527.297	703.287
959.413	527.197	701.616
959.513	527.097	691.729
959.613	526.997	683.991
959.713	526.897	672.779
959.813	526.797	674.71
959.913	526.697	666.349
960.013	526.597	674.777
960.113	526.497	702.706
960.212	526.398	685.154
960.312	526.298	680.168
960.412	526.198	694.88
960.512	526.098	682.331
960.612	525.998	674.034
960.712	525.898	670.977
960.812	525.798	678.667
960.912	525.698	694.278
961.012	525.598	725.857
961.112	525.498	706.078
961.211	525.399	684.269
961.311	525.299	684.943
961.411	525.199	680.966
961.511	525.099	691.554
961.611	524.999	680.993
961.711	524.899	681.207
961.811	524.799	686.846
961.911	524.699	684.563
962.011	524.599	677.283
962.11	524.5	692.876
962.21	524.4	679.756
962.31	524.3	672.77
962.41	524.2	673.936
962.51	524.1	655.085
962.61	524	677.766