C:\Users\Mark\ownCloud\Muelheim Group\Projects\Gas phase background\EX320_CEC356_Ag in He.vms
Ag3d
	Characteristic Energy eV	1486.61	Acquisition Time s	0.3
KE_Ag3d	BE_Ag3d	CPS_Ag3d
1036.61	450	66920.5
1036.71	449.9	67088.3
1036.81	449.8	66675.1
1036.91	449.7	66787.5
1037.01	449.6	67131.7
1037.11	449.5	66526
1037.21	449.4	66576.2
1037.31	449.3	66779.2
1037.41	449.2	67389.5
1037.51	449.1	66900.9
1037.61	449	66841.4
1037.71	448.9	66600.2
1037.81	448.8	66720.9
1037.91	448.7	67017.7
1038.01	448.6	67527.4
1038.11	448.5	67055.9
1038.21	448.4	66631.8
1038.31	448.3	66762.3
1038.41	448.2	66231.7
1038.51	448.1	66807.6
1038.61	448	67009.3
1038.71	447.9	67430.8
1038.81	447.8	66819.5
1038.91	447.7	66447.3
1039.01	447.6	66972.5
1039.11	447.5	67180.1
1039.21	447.4	67148.7
1039.31	447.3	67609
1039.41	447.2	67199.7
1039.51	447.1	67310.5
1039.61	447	66981.7
1039.71	446.9	66931.4
1039.81	446.8	67095.9
1039.91	446.7	66798.8
1040.01	446.6	67039.7
1040.11	446.5	66813.4
1040.21	446.4	67150.7
1040.31	446.3	67025.7
1040.41	446.2	66709.9
1040.51	446.1	66995.1
1040.61	446	66940.2
1040.71	445.9	67228.1
1040.81	445.8	66983
1040.91	445.7	66596.8
1041.01	445.6	66754.1
1041.11	445.5	66826.7
1041.21	445.4	66602.6
1041.31	445.3	67307.3
1041.41	445.2	66889.2
1041.51	445.1	66850.9
1041.61	445	66903.8
1041.71	444.9	66844.9
1041.81	444.8	66498.5
1041.91	444.7	66672.7
1042.01	444.6	67104.6
1042.11	444.5	67016.4
1042.21	444.4	66957.5
1042.31	444.3	67786.1
1042.41	444.2	66894.7
1042.51	444.1	66931.7
1042.61	444	67047.1
1042.71	443.9	66739.9
1042.81	443.8	66570.1
1042.91	443.7	66526.2
1043.01	443.6	67069.1
1043.11	443.5	66882.7
1043.21	443.4	67375.6
1043.31	443.3	67503.5
1043.41	443.2	67499.5
1043.51	443.1	67296.2
1043.61	443	66921.9
1043.71	442.9	67153.6
1043.81	442.8	67877
1043.91	442.7	67419.9
1044.01	442.6	67405.9
1044.11	442.5	67159.6
1044.21	442.4	67100
1044.31	442.3	66914.4
1044.41	442.2	67138.8
1044.51	442.1	67523.3
1044.61	442	67157
1044.71	441.9	67396.5
1044.81	441.8	67535.2
1044.91	441.7	66953.3
1045.01	441.6	67212.5
1045.11	441.5	67440.4
1045.21	441.4	67545.8
1045.31	441.3	67422
1045.41	441.2	67661
1045.51	441.1	67124.5
1045.61	441	67614.1
1045.71	440.9	67266.7
1045.81	440.8	66947.1
1045.91	440.7	67417.8
1046.01	440.6	67367.4
1046.11	440.5	67173.7
1046.21	440.4	66947.7
1046.31	440.3	67122
1046.41	440.2	68117.8
1046.51	440.1	67580.9
1046.61	440	67450.4
1046.71	439.9	66928.1
1046.81	439.8	67215.3
1046.91	439.7	67394.1
1047.01	439.6	67267.8
1047.11	439.5	67946
1047.21	439.4	67704.5
1047.31	439.3	67364.6
1047.41	439.2	67812.9
1047.51	439.1	67332.1
1047.61	439	67542.5
1047.71	438.9	67839.4
1047.81	438.8	67869.3
1047.91	438.7	67551.9
1048.01	438.6	67967.4
1048.11	438.5	67394.7
1048.21	438.4	67636.8
1048.31	438.3	67244.6
1048.41	438.2	67193.7
1048.51	438.1	67383.2
1048.61	438	67405.6
1048.71	437.9	67691.7
1048.81	437.8	67861
1048.91	437.7	67728.7
1049.01	437.6	67505
1049.11	437.5	67626.7
1049.21	437.4	67970.7
1049.31	437.3	67694.8
1049.41	437.2	67974.9
1049.51	437.1	67938.1
1049.61	437	67665.4
1049.71	436.9	67209.2
1049.81	436.8	67266.4
1049.91	436.7	67206.9
1050.01	436.6	67378.4
1050.11	436.5	67603.8
1050.21	436.4	67812.3
1050.31	436.3	67825.9
1050.41	436.2	67940.6
1050.51	436.1	67448.3
1050.61	436	67693.3
1050.71	435.9	68097.8
1050.81	435.8	68418.9
1050.91	435.7	68446.2
1051.01	435.6	68752.3
1051.11	435.5	68262.3
1051.21	435.4	68519
1051.31	435.3	68023.2
1051.41	435.2	67879.1
1051.51	435.1	68076.6
1051.61	435	67879.1
1051.71	434.9	67354
1051.81	434.8	67406.9
1051.91	434.7	67801
1052.01	434.6	68186.9
1052.11	434.5	68468.5
1052.21	434.4	67923.7
1052.31	434.3	68002.1
1052.41	434.2	68334.8
1052.51	434.1	68264.8
1052.61	434	67974.8
1052.71	433.9	68106.9
1052.81	433.8	68388.7
1052.91	433.7	68393.6
1053.01	433.6	68592.5
1053.11	433.5	68421.6
1053.21	433.4	68138.1
1053.31	433.3	68901.1
1053.41	433.2	68615.8
1053.51	433.1	68354.3
1053.61	433	68044.3
1053.71	432.9	68292.7
1053.81	432.8	68531
1053.91	432.7	68059.3
1054.01	432.6	68429.8
1054.11	432.5	68862.7
1054.21	432.4	68160.2
1054.31	432.3	68280.4
1054.41	432.2	68608.8
1054.51	432.1	68767.7
1054.61	432	69260.7
1054.71	431.9	68922.8
1054.81	431.8	69106.4
1054.91	431.7	69097.7
1055.01	431.6	68669.9
1055.11	431.5	68952
1055.21	431.4	68708.4
1055.31	431.3	68643.6
1055.41	431.2	68772
1055.51	431.1	68332.8
1055.61	431	68105.2
1055.71	430.9	68695.1
1055.81	430.8	68544.8
1055.91	430.7	68764.7
1056.01	430.6	68941.6
1056.11	430.5	69153.1
1056.21	430.4	68973.9
1056.31	430.3	68828.9
1056.41	430.2	68508.1
1056.51	430.1	68784.2
1056.61	430	69339.9
1056.71	429.9	69373.6
1056.81	429.8	69266.9
1056.91	429.7	69061.4
1057.01	429.6	68801.3
1057.11	429.5	68834.1
1057.21	429.4	68528.2
1057.31	429.3	69057.8
1057.41	429.2	69431.3
1057.51	429.1	69516.2
1057.61	429	69130
1057.71	428.9	68666.5
1057.81	428.8	69519.9
1057.91	428.7	69697.8
1058.01	428.6	69173.2
1058.11	428.5	69980.8
1058.21	428.4	70054.7
1058.31	428.3	69736.3
1058.41	428.2	69576.9
1058.51	428.1	69782.7
1058.61	428	69596.9
1058.71	427.9	70077.5
1058.81	427.8	69928.5
1058.91	427.7	69952.1
1059.01	427.6	70033.7
1059.11	427.5	69238.7
1059.21	427.4	68998.4
1059.31	427.3	69780
1059.41	427.2	69776.4
1059.51	427.1	69358.5
1059.61	427	69660.2
1059.71	426.9	69895.3
1059.81	426.8	69231.8
1059.91	426.7	69384.8
1060.01	426.6	69633.9
1060.11	426.5	69588.7
1060.21	426.4	69209.4
1060.31	426.3	69418
1060.41	426.2	69191.6
1060.51	426.1	69489.7
1060.61	426	70270.6
1060.71	425.9	70409.9
1060.81	425.8	69922.4
1060.91	425.7	69617.4
1061.01	425.6	70104.8
1061.11	425.5	69973
1061.21	425.4	70239.3
1061.31	425.3	69934.6
1061.41	425.2	70329.8
1061.51	425.1	69821.1
1061.61	425	69826.4
1061.71	424.9	70222.2
1061.81	424.8	70274.6
1061.91	424.7	70012.1
1062.01	424.6	70148.4
1062.11	424.5	70354.1
1062.21	424.4	69970.9
1062.31	424.3	70240
1062.41	424.2	71084.2
1062.51	424.1	71084.8
1062.61	424	70727.1
1062.71	423.9	70450
1062.81	423.8	70470.7
1062.91	423.7	70960.2
1063.01	423.6	70761.3
1063.11	423.5	70774.9
1063.21	423.4	70908.4
1063.31	423.3	70781.6
1063.41	423.2	71019.8
1063.51	423.1	70685.6
1063.61	423	70448.3
1063.71	422.9	70891.5
1063.81	422.8	70960.8
1063.91	422.7	70382.8
1064.01	422.6	70339.5
1064.11	422.5	70620
1064.21	422.4	70637.2
1064.31	422.3	70192.9
1064.41	422.2	70720.4
1064.51	422.1	70888.8
1064.61	422	71006.3
1064.71	421.9	70875.6
1064.81	421.8	71424.6
1064.91	421.7	71320.2
1065.01	421.6	70878.9
1065.11	421.5	70887.9
1065.21	421.4	70740.9
1065.31	421.3	70939.2
1065.41	421.2	70798.4
1065.51	421.1	70924.1
1065.61	421	70749
1065.71	420.9	70812.4
1065.81	420.8	71155.7
1065.91	420.7	70621.4
1066.01	420.6	70819.3
1066.11	420.5	70508.3
1066.21	420.4	70570.4
1066.31	420.3	70563.4
1066.41	420.2	70629.5
1066.51	420.1	71033.7
1066.61	420	70290.3
1066.71	419.9	70273.3
1066.81	419.8	70819.3
1066.91	419.7	70755.9
1067.01	419.6	70492.9
1067.11	419.5	70610.5
1067.21	419.4	70901.8
1067.31	419.3	71101
1067.41	419.2	70726.8
1067.51	419.1	70807.5
1067.61	419	71182.7
1067.71	418.9	71217.6
1067.81	418.8	71116.9
1067.91	418.7	70788.8
1068.01	418.6	71264.2
1068.11	418.5	71623.4
1068.21	418.4	70841.3
1068.31	418.3	70529.5
1068.41	418.2	70645.4
1068.51	418.1	70756.6
1068.61	418	70428.5
1068.71	417.9	70316.3
1068.81	417.8	69995.7
1068.91	417.7	70446.9
1069.01	417.6	70772.4
1069.11	417.5	70373.9
1069.21	417.4	70757.6
1069.31	417.3	70741
1069.41	417.2	70510.2
1069.51	417.1	70961.9
1069.61	417	71262
1069.71	416.9	71056.7
1069.81	416.8	71292.3
1069.91	416.7	71329.7
1070.01	416.6	70921
1070.11	416.5	71170.6
1070.21	416.4	71307.9
1070.31	416.3	72135.3
1070.41	416.2	71843.2
1070.51	416.1	71556.6
1070.61	416	70850.4
1070.71	415.9	70938.2
1070.81	415.8	71117.4
1070.91	415.7	70961.2
1071.01	415.6	71367.4
1071.11	415.5	71168
1071.21	415.4	71139.2
1071.31	415.3	71833.8
1071.41	415.2	71326.3
1071.51	415.1	71129.9
1071.61	415	71078.7
1071.71	414.9	71658.7
1071.81	414.8	71799.3
1071.91	414.7	72052.2
1072.01	414.6	71127.3
1072.11	414.5	70916.8
1072.21	414.4	71120.4
1072.31	414.3	71400.9
1072.41	414.2	71800
1072.51	414.1	71556.2
1072.61	414	71924.7
1072.71	413.9	71440.4
1072.81	413.8	71786.4
1072.91	413.7	71903.9
1073.01	413.6	71259.5
1073.11	413.5	71233.7
1073.21	413.4	71519.9
1073.31	413.3	71376
1073.41	413.2	72036.9
1073.51	413.1	72177.4
1073.61	413	72095.7
1073.71	412.9	71582.4
1073.81	412.8	71730.3
1073.91	412.7	71720.8
1074.01	412.6	72582.1
1074.11	412.5	72534
1074.21	412.4	71937.4
1074.31	412.3	72189.3
1074.41	412.2	72042.8
1074.51	412.1	72202
1074.61	412	71961.6
1074.71	411.9	71751.7
1074.81	411.8	71477.6
1074.91	411.7	71648.1
1075.01	411.6	71519.5
1075.11	411.5	71520.1
1075.21	411.4	72039.5
1075.31	411.3	72653.9
1075.41	411.2	72652.6
1075.51	411.1	72122.6
1075.61	411	72333.3
1075.71	410.9	73069.4
1075.81	410.8	73031
1075.91	410.7	73553.8
1076.01	410.6	73789.7
1076.11	410.5	72949.2
1076.21	410.4	73477
1076.31	410.3	73497.7
1076.41	410.2	72776.9
1076.51	410.1	72884.9
1076.61	410	72829.5
1076.71	409.9	73098.1
1076.81	409.8	72677.7
1076.91	409.7	72784
1077.01	409.6	72656
1077.11	409.5	73035
1077.21	409.4	73612.5
1077.31	409.3	74225.8
1077.41	409.2	73770.3
1077.51	409.1	73725.5
1077.61	409	73344.6
1077.71	408.9	73896.7
1077.81	408.8	73627.9
1077.91	408.7	73863.3
1078.01	408.6	73473.9
1078.11	408.5	73664.3
1078.21	408.4	73732.3
1078.31	408.3	74030.6
1078.41	408.2	74425.3
1078.51	408.1	74324.7
1078.61	408	73949.7
1078.71	407.9	74286.2
1078.81	407.8	74243.3
1078.91	407.7	74511.1
1079.01	407.6	74391
1079.11	407.5	74728.1
1079.21	407.4	74573.6
1079.31	407.3	74307.1
1079.41	407.2	74583.5
1079.51	407.1	74754.6
1079.61	407	74655.4
1079.71	406.9	74903.4
1079.81	406.8	74978.1
1079.91	406.7	74451
1080.01	406.6	74766.7
1080.11	406.5	75202.4
1080.21	406.4	75168.8
1080.31	406.3	75435.6
1080.41	406.2	75542
1080.51	406.1	75055.8
1080.61	406	75522.2
1080.71	405.9	75882.9
1080.81	405.8	76210.9
1080.91	405.7	76406.6
1081.01	405.6	76522
1081.11	405.5	76028.8
1081.21	405.4	75966.9
1081.31	405.3	76402.2
1081.41	405.2	76119.2
1081.51	405.1	76838.5
1081.61	405	76733.9
1081.71	404.9	76611.4
1081.81	404.8	76856.3
1081.91	404.7	76468
1082.01	404.6	76563.1
1082.11	404.5	76957.5
1082.21	404.4	76793.6
1082.31	404.3	77582.1
1082.41	404.2	77483
1082.51	404.1	76822.8
1082.61	404	77604.2
1082.71	403.9	77428.8
1082.81	403.8	77380
1082.91	403.7	78374.6
1083.01	403.6	78099.2
1083.11	403.5	77535.3
1083.21	403.4	77903.7
1083.31	403.3	78277.4
1083.41	403.2	78420.9
1083.51	403.1	79064.2
1083.61	403	79147.4
1083.71	402.9	78765.5
1083.81	402.8	78346.9
1083.91	402.7	79011.2
1084.01	402.6	78867.3
1084.11	402.5	78232.8
1084.21	402.4	78697
1084.31	402.3	78841.7
1084.41	402.2	79554.2
1084.51	402.1	79249.7
1084.61	402	78523.3
1084.71	401.9	79343.2
1084.81	401.8	79485.6
1084.91	401.7	79559.3
1085.01	401.6	80086.9
1085.11	401.5	80326.9
1085.21	401.4	80575.9
1085.31	401.3	80563.2
1085.41	401.2	80523.2
1085.51	401.1	80546.5
1085.61	401	80961.4
1085.71	400.9	80693.7
1085.81	400.8	81268.1
1085.91	400.7	82080.4
1086.01	400.6	81616.5
1086.11	400.5	81556.7
1086.21	400.4	81355.9
1086.31	400.3	81697.4
1086.41	400.2	81873.6
1086.51	400.1	82216.4
1086.61	400	82018
1086.71	399.9	82808.5
1086.81	399.8	82553.1
1086.91	399.7	82950.5
1087.01	399.6	82774.2
1087.11	399.5	82659.3
1087.21	399.4	83082.3
1087.31	399.3	83859.2
1087.41	399.2	83703.1
1087.51	399.1	83619.4
1087.61	399	83621.7
1087.71	398.9	83809.9
1087.81	398.8	83481.5
1087.91	398.7	83807.8
1088.01	398.6	83646
1088.11	398.5	83469.3
1088.21	398.4	83298
1088.31	398.3	83516.7
1088.41	398.2	83605.4
1088.51	398.1	83886.3
1088.61	398	83769.9
1088.71	397.9	83652.8
1088.81	397.8	82872.8
1088.91	397.7	83403.2
1089.01	397.6	84044.5
1089.11	397.5	84933.7
1089.21	397.4	85564.4
1089.31	397.3	85434.9
1089.41	397.2	84443
1089.51	397.1	83791.8
1089.61	397	82667.5
1089.71	396.9	80664.6
1089.81	396.8	79319.9
1089.91	396.7	79860.1
1090.01	396.6	79080.2
1090.11	396.5	79004.9
1090.21	396.4	79572.9
1090.31	396.3	80210.9
1090.41	396.2	80934.8
1090.51	396.1	83055.9
1090.61	396	85973.4
1090.71	395.9	89475.2
1090.81	395.8	94640.6
1090.91	395.7	99308.3
1091.01	395.6	104141
1091.11	395.5	108297
1091.21	395.4	109147
1091.31	395.3	105479
1091.41	395.2	100980
1091.51	395.1	95959.6
1091.61	395	90690.3
1091.71	394.9	86545.9
1091.81	394.8	84115.3
1091.91	394.7	82750.1
1092.01	394.6	82311.7
1092.11	394.5	81738.4
1092.21	394.4	81172.9
1092.31	394.3	81103.8
1092.41	394.2	81183.6
1092.51	394.1	80876.6
1092.61	394	80900.3
1092.71	393.9	81180.5
1092.81	393.8	81086.9
1092.91	393.7	81382.4
1093.01	393.6	80974.1
1093.11	393.5	82192.5
1093.21	393.4	82208.3
1093.31	393.3	81795.2
1093.41	393.2	82155.2
1093.51	393.1	82259.8
1093.61	393	81669.8
1093.71	392.9	81382.8
1093.81	392.8	81138.2
1093.91	392.7	81186.5
1094.01	392.6	81111.5
1094.11	392.5	81166.4
1094.21	392.4	80921.4
1094.31	392.3	80617.6
1094.41	392.2	80827.2
1094.51	392.1	81054.2
1094.61	392	80194.8
1094.71	391.9	80288.9
1094.81	391.8	81066.8
1094.91	391.7	81304.9
1095.01	391.6	81360
1095.11	391.5	82590.3
1095.21	391.4	83559.8
1095.31	391.3	83233.2
1095.41	391.2	82510.3
1095.51	391.1	81425.4
1095.61	391	78907.2
1095.71	390.9	76976.6
1095.81	390.8	75065.8
1095.91	390.7	73415.1
1096.01	390.6	73583.9
1096.11	390.5	74360.6
1096.21	390.4	74046.1
1096.31	390.3	74894.6
1096.41	390.2	76893.6
1096.51	390.1	79578.5
1096.61	390	82653.9
1096.71	389.9	87933.4
1096.81	389.8	94058.3
1096.91	389.7	101713
1097.01	389.6	108202
1097.11	389.5	111658
1097.21	389.4	112088
1097.31	389.3	107818
1097.41	389.2	101338
1097.51	389.1	93886.1
1097.61	389	86327.9
1097.71	388.9	79738.8
1097.81	388.8	77002.9
1097.91	388.7	73800.1
1098.01	388.6	71965.9
1098.11	388.5	71158.4
1098.21	388.4	70146.1
1098.31	388.3	68807.1
1098.41	388.2	69108.9
1098.51	388.1	68447.6
1098.61	388	68573.9
1098.71	387.9	68768.9
1098.81	387.8	68780.4
1098.91	387.7	68695.7
1099.01	387.6	69001.3
1099.11	387.5	68808
1099.21	387.4	68833
1099.31	387.3	69231.3
1099.41	387.2	68953.3
1099.51	387.1	68489.2
1099.61	387	68933.4
1099.71	386.9	68534.1
1099.81	386.8	69213.2
1099.91	386.7	68754.1
1100.01	386.6	68915.6
1100.11	386.5	68749.4
1100.21	386.4	68499.2
1100.31	386.3	69155.1
1100.41	386.2	68751.1
1100.51	386.1	68206.4
1100.61	386	68460.9
1100.71	385.9	68486.5
1100.81	385.8	68000.8
1100.91	385.7	67323.4
1101.01	385.6	67631
1101.11	385.5	67917.6
1101.21	385.4	68036.7
1101.31	385.3	67372.1
1101.41	385.2	67402.3
1101.51	385.1	67283.8
1101.61	385	67004.9
1101.71	384.9	67409.2
1101.81	384.8	67838.3
1101.91	384.7	67767.1
1102.01	384.6	67328
1102.11	384.5	67443.5
1102.21	384.4	67665.5
1102.31	384.3	67889
1102.41	384.2	68609.6
1102.51	384.1	68752.7
1102.61	384	68317.3
1102.71	383.9	68223.5
1102.81	383.8	67983.9
1102.91	383.7	68626
1103.01	383.6	69343.1
1103.11	383.5	69436.6
1103.21	383.4	69180.5
1103.31	383.3	69534.3
1103.41	383.2	70005.7
1103.51	383.1	70275.2
1103.61	383	70787.5
1103.71	382.9	70883.7
1103.81	382.8	70962.2
1103.91	382.7	71183.6
1104.01	382.6	71276.1
1104.11	382.5	71611.9
1104.21	382.4	71726.5
1104.31	382.3	72004
1104.41	382.2	71774.9
1104.51	382.1	72334.5
1104.61	382	72522
1104.71	381.9	72051.8
1104.81	381.8	72506.9
1104.91	381.7	72465
1105.01	381.6	72203.4
1105.11	381.5	71741.5
1105.21	381.4	71497.1
1105.31	381.3	71099
1105.41	381.2	71265.4
1105.51	381.1	70875.7
1105.61	381	70309
1105.71	380.9	69818
1105.81	380.8	69573.9
1105.91	380.7	69543.8
1106.01	380.6	69208.6
1106.11	380.5	69153
1106.21	380.4	69031.2
1106.31	380.3	68379.7
1106.41	380.2	68530.6
1106.51	380.1	68232.1
1106.61	380	68013.7
1106.71	379.9	67883.1
1106.81	379.8	67894.7
1106.91	379.7	68110
1107.01	379.6	68962.9
1107.11	379.5	68536.7
1107.21	379.4	69020.7
1107.31	379.3	69179.9
1107.41	379.2	68837.4
1107.51	379.1	69624
1107.61	379	70400.6
1107.71	378.9	70798.9
1107.81	378.8	72066.7
1107.91	378.7	73525.2
1108.01	378.6	75145.5
1108.11	378.5	76705
1108.21	378.4	78788.1
1108.31	378.3	80679.5
1108.41	378.2	82585.3
1108.51	378.1	83690.5
1108.61	378	83159.9
1108.71	377.9	82550.1
1108.81	377.8	79653.6
1108.91	377.7	75994.7
1109.01	377.6	73131.5
1109.11	377.5	71015.3
1109.21	377.4	70286
1109.31	377.3	69624.2
1109.41	377.2	69356.1
1109.51	377.1	69877.2
1109.61	377	70479.2
1109.71	376.9	70602.6
1109.81	376.8	72062.8
1109.91	376.7	73312.7
1110.01	376.6	74682.7
1110.11	376.5	76080.1
1110.21	376.4	77339.8
1110.31	376.3	78593.4
1110.41	376.2	80582.5
1110.51	376.1	82184.5
1110.61	376	84393
1110.71	375.9	86703.9
1110.81	375.8	88857.7
1110.91	375.7	92695.1
1111.01	375.6	96795.6
1111.11	375.5	101178
1111.21	375.4	107700
1111.31	375.3	115211
1111.41	375.2	127482
1111.51	375.1	143872
1111.61	375	169505
1111.71	374.9	207429
1111.81	374.8	263346
1111.91	374.7	342590
1112.01	374.6	445070
1112.11	374.5	564999
1112.21	374.4	681798
1112.31	374.3	760509
1112.41	374.2	776189
1112.51	374.1	720817
1112.61	374	609872
1112.71	373.9	469918
1112.81	373.8	335686
1112.91	373.7	232443
1113.01	373.6	166192
1113.11	373.5	126715
1113.21	373.4	103231
1113.31	373.3	88525
1113.41	373.2	79418.6
1113.51	373.1	73864.8
1113.61	373	70406.2
1113.71	372.9	67723.7
1113.81	372.8	66705.6
1113.91	372.7	66021.7
1114.01	372.6	67095.3
1114.11	372.5	68015
1114.21	372.4	69752.1
1114.31	372.3	71504.1
1114.41	372.2	73934
1114.51	372.1	74589.8
1114.61	372	72950.8
1114.71	371.9	70455
1114.81	371.8	66353.6
1114.91	371.7	61427.8
1115.01	371.6	55718
1115.11	371.5	51332.4
1115.21	371.4	48105.6
1115.31	371.3	46245.9
1115.41	371.2	45534.1
1115.51	371.1	45045
1115.61	371	44994.5
1115.71	370.9	45461.3
1115.81	370.8	45760.5
1115.91	370.7	46535
1116.01	370.6	48149.5
1116.11	370.5	49948.6
1116.21	370.4	51567.1
1116.31	370.3	53516.1
1116.41	370.2	55978.2
1116.51	370.1	58367.5
1116.61	370	61645
1116.71	369.9	64870.8
1116.81	369.8	68881.4
1116.91	369.7	74186.5
1117.01	369.6	80548
1117.11	369.5	88007.3
1117.21	369.4	97020.9
1117.31	369.3	110238
1117.41	369.2	128474
1117.51	369.1	153468
1117.61	369	191102
1117.71	368.9	247200
1117.81	368.8	327771
1117.91	368.7	444510
1118.01	368.6	594178
1118.11	368.5	762931
1118.21	368.4	926536
1118.31	368.3	1.04158e+006
1118.41	368.2	1.06807e+006
1118.51	368.1	990607
1118.61	368	831265
1118.71	367.9	631271
1118.81	367.8	440574
1118.91	367.7	289288
1119.01	367.6	191714
1119.11	367.5	132224
1119.21	367.4	96327.5
1119.31	367.3	73744.8
1119.41	367.2	60203.6
1119.51	367.1	50687.1
1119.61	367	44242.5
1119.71	366.9	38805.1
1119.81	366.8	34910.7
1119.91	366.7	31908.9
1120.01	366.6	29649.6
1120.11	366.5	27402.4
1120.21	366.4	25765.5
1120.31	366.3	24212.7
1120.41	366.2	23070.7
1120.51	366.1	22090.5
1120.61	366	21264.9
1120.71	365.9	20260.2
1120.81	365.8	19623.5
1120.91	365.7	18991.6
1121.01	365.6	18274.6
1121.11	365.5	17587
1121.21	365.4	17142.6
1121.31	365.3	16734.4
1121.41	365.2	16478.9
1121.51	365.1	16258.3
1121.61	365	15873
1121.71	364.9	15320.3
1121.81	364.8	15227.2
1121.91	364.7	15194.5
1122.01	364.6	14895.7
1122.11	364.5	14118.4
1122.21	364.4	14191.9
1122.31	364.3	14044.5
1122.41	364.2	13778.9
1122.51	364.1	13574.3
1122.61	364	13249.2
1122.71	363.9	13140.4
1122.81	363.8	13401.8
1122.91	363.7	13065.5
1123.01	363.6	12704.7
1123.11	363.5	12780.2
1123.21	363.4	12838.5
1123.31	363.3	12468.4
1123.41	363.2	12812.9
1123.51	363.1	12466.4
1123.61	363	12582
1123.71	362.9	12306.8
1123.81	362.8	12412.1
1123.91	362.7	12371
1124.01	362.6	12026.8
1124.11	362.5	12123.2
1124.21	362.4	12310.9
1124.31	362.3	12005
1124.41	362.2	11964.2
1124.51	362.1	11911.4
1124.61	362	11950.5
1124.71	361.9	11741.8
1124.81	361.8	11611.2
1124.91	361.7	11689.1
1125.01	361.6	11631.2
1125.11	361.5	11673.6
1125.21	361.4	11451.2
1125.31	361.3	11469.7
1125.41	361.2	11288.8
1125.51	361.1	11279.7
1125.61	361	11374.3
1125.71	360.9	11246.7
1125.81	360.8	11229.9
1125.91	360.7	11196.6
1126.01	360.6	11131.1
1126.11	360.5	10933.7
1126.21	360.4	10888.1
1126.31	360.3	11071.3
1126.41	360.2	11044.6
1126.51	360.1	11167.9
1126.61	360	11253.4
1126.71	359.9	11091.5
1126.81	359.8	11033.8
1126.91	359.7	10920.5
1127.01	359.6	11105.8
1127.11	359.5	11256.2
1127.21	359.4	11163.2
1127.31	359.3	10974.2
1127.41	359.2	10983.6
1127.51	359.1	11233
1127.61	359	10871.5
1127.71	358.9	10976.9
1127.81	358.8	10907.4
1127.91	358.7	11009.8
1128.01	358.6	10891.8
1128.11	358.5	11026.4
1128.21	358.4	10854.2
1128.31	358.3	10812.8
1128.41	358.2	10813.9
1128.51	358.1	10739.8
1128.61	358	10583.6
1128.71	357.9	10876.1
1128.81	357.8	10960.7
1128.91	357.7	10573.1
1129.01	357.6	10854.7
1129.11	357.5	10829
1129.21	357.4	10861.3
1129.31	357.3	10723.5
1129.41	357.2	10904.4
1129.51	357.1	10878.3
1129.61	357	10894.7
1129.71	356.9	10834.5
1129.81	356.8	10711.9
1129.91	356.7	10798.5
1130.01	356.6	10951.5
1130.11	356.5	10781.1
1130.21	356.4	10657.2
1130.31	356.3	10721.7
1130.41	356.2	10826.6
1130.51	356.1	10779
1130.61	356	10880.7
1130.71	355.9	10712.2
1130.81	355.8	10709.9
1130.91	355.7	10643.8
1131.01	355.6	10665.6
1131.11	355.5	10673.1
1131.21	355.4	10761.8
1131.31	355.3	10750.5
1131.41	355.2	10871.5
1131.51	355.1	10760.6
1131.61	355	10605.2
1131.71	354.9	10521.4
1131.81	354.8	10457.7
1131.91	354.7	10602.3
1132.01	354.6	10683.6
1132.11	354.5	10621.6
1132.21	354.4	10651.3
1132.31	354.3	10614.6
1132.41	354.2	10522.4
1132.51	354.1	10663.7
1132.61	354	10725.6
1132.71	353.9	10721.4
1132.81	353.8	10613.9
1132.91	353.7	10620.9
1133.01	353.6	10640
1133.11	353.5	10672.9
1133.21	353.4	10765.2
1133.31	353.3	10859.7
1133.41	353.2	10957.1
1133.51	353.1	10819.4
1133.61	353	10841.2
1133.71	352.9	10602.6
1133.81	352.8	10559
1133.91	352.7	10710
1134.01	352.6	10731.9
1134.11	352.5	10638.2
1134.21	352.4	10464.2
1134.31	352.3	10774.1
1134.41	352.2	10697.9
1134.51	352.1	10572.7
1134.61	352	10554.7
1134.71	351.9	10803.1
1134.81	351.8	10880
1134.91	351.7	10573.4
1135.01	351.6	10501.7
1135.11	351.5	10765.7
1135.21	351.4	10825.3
1135.31	351.3	10682
1135.41	351.2	10428.7
1135.51	351.1	10667.4
1135.61	351	10656.8
1135.71	350.9	10646.9
1135.81	350.8	10792.4
1135.91	350.7	10863.3
1136.01	350.6	10919.8
1136.11	350.5	10740.9
1136.21	350.4	10662.4
1136.31	350.3	10667.8
1136.41	350.2	10580.9
1136.51	350.1	10651.1
1136.61	350	10532.4