C:\Users\Mark\ownCloud\Muelheim Group\Projects\Gas phase background\EX320_CEC356_Ag in He.vms
Ag3d
	Characteristic Energy eV	1486.61	Acquisition Time s	0.3
KE_Ag3d	BE_Ag3d	CPS_Ag3d
1036.61	450	76546.8
1036.71	449.9	76147.6
1036.81	449.8	76139.3
1036.91	449.7	75848
1037.01	449.6	76924.6
1037.11	449.5	76910.8
1037.21	449.4	76445
1037.31	449.3	77140
1037.41	449.2	77431.8
1037.51	449.1	77545.1
1037.61	449	77544.3
1037.71	448.9	77007.8
1037.81	448.8	76658.5
1037.91	448.7	77104.2
1038.01	448.6	76424.5
1038.11	448.5	76651
1038.21	448.4	77171.3
1038.31	448.3	76833.9
1038.41	448.2	77418.3
1038.51	448.1	77547.2
1038.61	448	76491.5
1038.71	447.9	77287.6
1038.81	447.8	77319.9
1038.91	447.7	76354.6
1039.01	447.6	76884.4
1039.11	447.5	76739.9
1039.21	447.4	76528.7
1039.31	447.3	76702.6
1039.41	447.2	76874.4
1039.51	447.1	76450.6
1039.61	447	76871.7
1039.71	446.9	76931
1039.81	446.8	76857.1
1039.91	446.7	77442.9
1040.01	446.6	77246.8
1040.11	446.5	76773.7
1040.21	446.4	77278.6
1040.31	446.3	77782.8
1040.41	446.2	77633.6
1040.51	446.1	76652.7
1040.61	446	77100.1
1040.71	445.9	76543.4
1040.81	445.8	76987.1
1040.91	445.7	77219.5
1041.01	445.6	77043.4
1041.11	445.5	77423.9
1041.21	445.4	77546.5
1041.31	445.3	77287.1
1041.41	445.2	77264
1041.51	445.1	77079.1
1041.61	445	76187.1
1041.71	444.9	76701.8
1041.81	444.8	77278.2
1041.91	444.7	77549.4
1042.01	444.6	77299
1042.11	444.5	77502.9
1042.21	444.4	77833.3
1042.31	444.3	77510.9
1042.41	444.2	77167.9
1042.51	444.1	76573.2
1042.61	444	77317
1042.71	443.9	77466.4
1042.81	443.8	77106.3
1042.91	443.7	76990.5
1043.01	443.6	77078.5
1043.11	443.5	77501
1043.21	443.4	77943.6
1043.31	443.3	78610.8
1043.41	443.2	78058.6
1043.51	443.1	77509.9
1043.61	443	76873.2
1043.71	442.9	77028.7
1043.81	442.8	77424.6
1043.91	442.7	77331.7
1044.01	442.6	77866.4
1044.11	442.5	77737.5
1044.21	442.4	77495.9
1044.31	442.3	78061
1044.41	442.2	78229.5
1044.51	442.1	78023.5
1044.61	442	77784.8
1044.71	441.9	77716.9
1044.81	441.8	77365.5
1044.91	441.7	76974.3
1045.01	441.6	77866
1045.11	441.5	77710.8
1045.21	441.4	77041.8
1045.31	441.3	76230.5
1045.41	441.2	76886.8
1045.51	441.1	77898.5
1045.61	441	77990.4
1045.71	440.9	77723.8
1045.81	440.8	77068.4
1045.91	440.7	77914.2
1046.01	440.6	78484.2
1046.11	440.5	77598.2
1046.21	440.4	76744
1046.31	440.3	77235.8
1046.41	440.2	77422.4
1046.51	440.1	77581.4
1046.61	440	77207.2
1046.71	439.9	76971.6
1046.81	439.8	76814.9
1046.91	439.7	77482.1
1047.01	439.6	77633.6
1047.11	439.5	77430.6
1047.21	439.4	78247
1047.31	439.3	78023.7
1047.41	439.2	78119.4
1047.51	439.1	77665.5
1047.61	439	77608.7
1047.71	438.9	77516.7
1047.81	438.8	77834.8
1047.91	438.7	78196.2
1048.01	438.6	78171.7
1048.11	438.5	78347.6
1048.21	438.4	77738.3
1048.31	438.3	77448.5
1048.41	438.2	77650.8
1048.51	438.1	77145.6
1048.61	438	76707.6
1048.71	437.9	77242.3
1048.81	437.8	77795.7
1048.91	437.7	77588.7
1049.01	437.6	77543.4
1049.11	437.5	77375.1
1049.21	437.4	77803.6
1049.31	437.3	77493.1
1049.41	437.2	78225.6
1049.51	437.1	77860.9
1049.61	437	77740.1
1049.71	436.9	77345.9
1049.81	436.8	77712.3
1049.91	436.7	77268.1
1050.01	436.6	77476.6
1050.11	436.5	77604.2
1050.21	436.4	77639.9
1050.31	436.3	77138.2
1050.41	436.2	77864.1
1050.51	436.1	77690.9
1050.61	436	77763.9
1050.71	435.9	77950.9
1050.81	435.8	78065.1
1050.91	435.7	77393.5
1051.01	435.6	77694
1051.11	435.5	77905.5
1051.21	435.4	77933.8
1051.31	435.3	77639.2
1051.41	435.2	77859.3
1051.51	435.1	78336.4
1051.61	435	77696.9
1051.71	434.9	77200.9
1051.81	434.8	78022
1051.91	434.7	77973.6
1052.01	434.6	78009
1052.11	434.5	77763.8
1052.21	434.4	77235.2
1052.31	434.3	77508
1052.41	434.2	77394
1052.51	434.1	77660.2
1052.61	434	77832.8
1052.71	433.9	78721.5
1052.81	433.8	78028.4
1052.91	433.7	78717.2
1053.01	433.6	78375.2
1053.11	433.5	77682.5
1053.21	433.4	77885
1053.31	433.3	77638.1
1053.41	433.2	77937.7
1053.51	433.1	78208.4
1053.61	433	77849.2
1053.71	432.9	77636
1053.81	432.8	77828
1053.91	432.7	77700.9
1054.01	432.6	77561.1
1054.11	432.5	77626.6
1054.21	432.4	77553.1
1054.31	432.3	77487.9
1054.41	432.2	77532.9
1054.51	432.1	77390.9
1054.61	432	77742.4
1054.71	431.9	77860.2
1054.81	431.8	78403.8
1054.91	431.7	78542.1
1055.01	431.6	78373.7
1055.11	431.5	77687.4
1055.21	431.4	77893.1
1055.31	431.3	77610.2
1055.41	431.2	78340.6
1055.51	431.1	77726.7
1055.61	431	76743.2
1055.71	430.9	77298.5
1055.81	430.8	78645.3
1055.91	430.7	79215.7
1056.01	430.6	78410
1056.11	430.5	78852.2
1056.21	430.4	78848.1
1056.31	430.3	78877.6
1056.41	430.2	78511.7
1056.51	430.1	78371.8
1056.61	430	78359.6
1056.71	429.9	77941.6
1056.81	429.8	78049.8
1056.91	429.7	78370.8
1057.01	429.6	78141.6
1057.11	429.5	78937.1
1057.21	429.4	79431.7
1057.31	429.3	78960.8
1057.41	429.2	79389.3
1057.51	429.1	78916.5
1057.61	429	78634.4
1057.71	428.9	78642.7
1057.81	428.8	79061.9
1057.91	428.7	79048.9
1058.01	428.6	78076.1
1058.11	428.5	79027.9
1058.21	428.4	78762.8
1058.31	428.3	78002.6
1058.41	428.2	78515.7
1058.51	428.1	78744
1058.61	428	79014.2
1058.71	427.9	79409.7
1058.81	427.8	78956.4
1058.91	427.7	79031.7
1059.01	427.6	79100.4
1059.11	427.5	78646.9
1059.21	427.4	78687.5
1059.31	427.3	78085.3
1059.41	427.2	78819.6
1059.51	427.1	79333.6
1059.61	427	79127.1
1059.71	426.9	79026.8
1059.81	426.8	79325.7
1059.91	426.7	78518.2
1060.01	426.6	79051.5
1060.11	426.5	79541.1
1060.21	426.4	78783
1060.31	426.3	79205.2
1060.41	426.2	79214
1060.51	426.1	79594.5
1060.61	426	79505.8
1060.71	425.9	79294.6
1060.81	425.8	78393.9
1060.91	425.7	78670.9
1061.01	425.6	78996.2
1061.11	425.5	79631.3
1061.21	425.4	78924.3
1061.31	425.3	79531.8
1061.41	425.2	79738.9
1061.51	425.1	79384.8
1061.61	425	78931.8
1061.71	424.9	79489.1
1061.81	424.8	79686.2
1061.91	424.7	79887.4
1062.01	424.6	79917.2
1062.11	424.5	79566.4
1062.21	424.4	79643.3
1062.31	424.3	79521
1062.41	424.2	79740
1062.51	424.1	80002.3
1062.61	424	80078.2
1062.71	423.9	79689.6
1062.81	423.8	79336.9
1062.91	423.7	79223.9
1063.01	423.6	79956.6
1063.11	423.5	79995.2
1063.21	423.4	79881.2
1063.31	423.3	79657.9
1063.41	423.2	80022.9
1063.51	423.1	79247.5
1063.61	423	79775.3
1063.71	422.9	80256.7
1063.81	422.8	79865.4
1063.91	422.7	79641.3
1064.01	422.6	79805.6
1064.11	422.5	79527.3
1064.21	422.4	79911
1064.31	422.3	80119.6
1064.41	422.2	80828.3
1064.51	422.1	79954.5
1064.61	422	79886.1
1064.71	421.9	80422
1064.81	421.8	80572.7
1064.91	421.7	81119
1065.01	421.6	80788.5
1065.11	421.5	79896.7
1065.21	421.4	79850.4
1065.31	421.3	79891
1065.41	421.2	80201.4
1065.51	421.1	79670.1
1065.61	421	79317.2
1065.71	420.9	80166.7
1065.81	420.8	80569.8
1065.91	420.7	80523.1
1066.01	420.6	79767.9
1066.11	420.5	79582.6
1066.21	420.4	80137
1066.31	420.3	79746.2
1066.41	420.2	80662.8
1066.51	420.1	80372.8
1066.61	420	79577.8
1066.71	419.9	79454.6
1066.81	419.8	79508.1
1066.91	419.7	79766.8
1067.01	419.6	79211
1067.11	419.5	79567.3
1067.21	419.4	79823.7
1067.31	419.3	79458.4
1067.41	419.2	79590.2
1067.51	419.1	80441.6
1067.61	419	80041.8
1067.71	418.9	80113.9
1067.81	418.8	80633.7
1067.91	418.7	80098.9
1068.01	418.6	80137.5
1068.11	418.5	79403.1
1068.21	418.4	79052.9
1068.31	418.3	78660.2
1068.41	418.2	79536.6
1068.51	418.1	80059.9
1068.61	418	79896.8
1068.71	417.9	80235.6
1068.81	417.8	79924.6
1068.91	417.7	79719
1069.01	417.6	79644.5
1069.11	417.5	79860.9
1069.21	417.4	79469.8
1069.31	417.3	79730.9
1069.41	417.2	79996.1
1069.51	417.1	79314.3
1069.61	417	79873.4
1069.71	416.9	79928.7
1069.81	416.8	79420.4
1069.91	416.7	78919.9
1070.01	416.6	79993.9
1070.11	416.5	80078.4
1070.21	416.4	80219.5
1070.31	416.3	80685.7
1070.41	416.2	80223.8
1070.51	416.1	79398.1
1070.61	416	79383.1
1070.71	415.9	79924.8
1070.81	415.8	79879.6
1070.91	415.7	79943.2
1071.01	415.6	81217.5
1071.11	415.5	80973.2
1071.21	415.4	80466.9
1071.31	415.3	80286
1071.41	415.2	80360.7
1071.51	415.1	79694.6
1071.61	415	79696.7
1071.71	414.9	80090.1
1071.81	414.8	80909.5
1071.91	414.7	80867.4
1072.01	414.6	81234.7
1072.11	414.5	81013.2
1072.21	414.4	80340.2
1072.31	414.3	80688.8
1072.41	414.2	81086.1
1072.51	414.1	80642.7
1072.61	414	80740
1072.71	413.9	80544.9
1072.81	413.8	80926.9
1072.91	413.7	81188.8
1073.01	413.6	80448.4
1073.11	413.5	80479.7
1073.21	413.4	80399.8
1073.31	413.3	80087.3
1073.41	413.2	80438.8
1073.51	413.1	80636.4
1073.61	413	80994.1
1073.71	412.9	80858.5
1073.81	412.8	81543.3
1073.91	412.7	81144.7
1074.01	412.6	81953.7
1074.11	412.5	81376.1
1074.21	412.4	80868.4
1074.31	412.3	81065.6
1074.41	412.2	81766.8
1074.51	412.1	81721.8
1074.61	412	80448
1074.71	411.9	80122.1
1074.81	411.8	81009.2
1074.91	411.7	81203.3
1075.01	411.6	80852.5
1075.11	411.5	80136.1
1075.21	411.4	80851.8
1075.31	411.3	81719.5
1075.41	411.2	81416.3
1075.51	411.1	81466.3
1075.61	411	81462.9
1075.71	410.9	82041.9
1075.81	410.8	81763.6
1075.91	410.7	81958.2
1076.01	410.6	81905.1
1076.11	410.5	81727.9
1076.21	410.4	82882.6
1076.31	410.3	82428.9
1076.41	410.2	82482.6
1076.51	410.1	82594.1
1076.61	410	82086.2
1076.71	409.9	81577.3
1076.81	409.8	81609.3
1076.91	409.7	82130.1
1077.01	409.6	82283.7
1077.11	409.5	82774.7
1077.21	409.4	83179.5
1077.31	409.3	83665.6
1077.41	409.2	83558.6
1077.51	409.1	83679.9
1077.61	409	83729.6
1077.71	408.9	83352.8
1077.81	408.8	83502.1
1077.91	408.7	83267.6
1078.01	408.6	83200.3
1078.11	408.5	83427.8
1078.21	408.4	83723.9
1078.31	408.3	84213.6
1078.41	408.2	83679.7
1078.51	408.1	83056.3
1078.61	408	83687.9
1078.71	407.9	83552.3
1078.81	407.8	83058.8
1078.91	407.7	83998.6
1079.01	407.6	84013.4
1079.11	407.5	83892.2
1079.21	407.4	83347.7
1079.31	407.3	83775.8
1079.41	407.2	84468
1079.51	407.1	84288
1079.61	407	84205.3
1079.71	406.9	84631.5
1079.81	406.8	85100.9
1079.91	406.7	85045.3
1080.01	406.6	84129.2
1080.11	406.5	84449
1080.21	406.4	84832.9
1080.31	406.3	84811.7
1080.41	406.2	85532
1080.51	406.1	84821.7
1080.61	406	85054.9
1080.71	405.9	85501.4
1080.81	405.8	85252.3
1080.91	405.7	84805
1081.01	405.6	85899.7
1081.11	405.5	84933.5
1081.21	405.4	85146.2
1081.31	405.3	85341.9
1081.41	405.2	85359
1081.51	405.1	85863.5
1081.61	405	86542.7
1081.71	404.9	85977.2
1081.81	404.8	85843.2
1081.91	404.7	85234.3
1082.01	404.6	84934
1082.11	404.5	85262.4
1082.21	404.4	86045.1
1082.31	404.3	87036.9
1082.41	404.2	86639.3
1082.51	404.1	86903
1082.61	404	87347.7
1082.71	403.9	86348.6
1082.81	403.8	86645
1082.91	403.7	87133.9
1083.01	403.6	86679.9
1083.11	403.5	87335.7
1083.21	403.4	87732.1
1083.31	403.3	87369.5
1083.41	403.2	86800.8
1083.51	403.1	87726.5
1083.61	403	87638.1
1083.71	402.9	87365.3
1083.81	402.8	87753.6
1083.91	402.7	87323.8
1084.01	402.6	88184.5
1084.11	402.5	87941.9
1084.21	402.4	87714.8
1084.31	402.3	88110.6
1084.41	402.2	88712.8
1084.51	402.1	89029.1
1084.61	402	88423.1
1084.71	401.9	88844.2
1084.81	401.8	88815.8
1084.91	401.7	89158.7
1085.01	401.6	89069
1085.11	401.5	89322.4
1085.21	401.4	89467
1085.31	401.3	89975.1
1085.41	401.2	89492
1085.51	401.1	89891.1
1085.61	401	90384
1085.71	400.9	90742
1085.81	400.8	90035.6
1085.91	400.7	90726.9
1086.01	400.6	91011.6
1086.11	400.5	90800.1
1086.21	400.4	90760.4
1086.31	400.3	90681
1086.41	400.2	90853.8
1086.51	400.1	91211.8
1086.61	400	90804.9
1086.71	399.9	91104.3
1086.81	399.8	91114.6
1086.91	399.7	91618.7
1087.01	399.6	91852.1
1087.11	399.5	91914.6
1087.21	399.4	91848.8
1087.31	399.3	92346.6
1087.41	399.2	92194.9
1087.51	399.1	91841.7
1087.61	399	92141.9
1087.71	398.9	92960.4
1087.81	398.8	92327.2
1087.91	398.7	91840.1
1088.01	398.6	91871.6
1088.11	398.5	91535.6
1088.21	398.4	92266.2
1088.31	398.3	91859.9
1088.41	398.2	91949.9
1088.51	398.1	92323.6
1088.61	398	92276.4
1088.71	397.9	91600.2
1088.81	397.8	91699.9
1088.91	397.7	91684.8
1089.01	397.6	92400.9
1089.11	397.5	92381.2
1089.21	397.4	91979.7
1089.31	397.3	91770.7
1089.41	397.2	90855.7
1089.51	397.1	90847.8
1089.61	397	91290.9
1089.71	396.9	90363.9
1089.81	396.8	90908.4
1089.91	396.7	91684.8
1090.01	396.6	91257.7
1090.11	396.5	91269.9
1090.21	396.4	90417.5
1090.31	396.3	90442.8
1090.41	396.2	90589.6
1090.51	396.1	91276.6
1090.61	396	91987.6
1090.71	395.9	91665.7
1090.81	395.8	92443.2
1090.91	395.7	92449.7
1091.01	395.6	92643.7
1091.11	395.5	93639.2
1091.21	395.4	93842.4
1091.31	395.3	93328.9
1091.41	395.2	93582.8
1091.51	395.1	92880.8
1091.61	395	93181.1
1091.71	394.9	94408.7
1091.81	394.8	95645.4
1091.91	394.7	95016.5
1092.01	394.6	94514.6
1092.11	394.5	95689
1092.21	394.4	95854.7
1092.31	394.3	96203.9
1092.41	394.2	96404
1092.51	394.1	96455
1092.61	394	96682.9
1092.71	393.9	96826.8
1092.81	393.8	97576.2
1092.91	393.7	97443.9
1093.01	393.6	97241.9
1093.11	393.5	97397.2
1093.21	393.4	97701.9
1093.31	393.3	96655.9
1093.41	393.2	97379.5
1093.51	393.1	97773.4
1093.61	393	96913.2
1093.71	392.9	97746.1
1093.81	392.8	97516
1093.91	392.7	97101.6
1094.01	392.6	96383.3
1094.11	392.5	96334.3
1094.21	392.4	96133.5
1094.31	392.3	95644.5
1094.41	392.2	96288.5
1094.51	392.1	96442.7
1094.61	392	95744.4
1094.71	391.9	95447.2
1094.81	391.8	96021.4
1094.91	391.7	96383.7
1095.01	391.6	96043.3
1095.11	391.5	96231.8
1095.21	391.4	96045.6
1095.31	391.3	96104.6
1095.41	391.2	95369.6
1095.51	391.1	95458.4
1095.61	391	95253.7
1095.71	390.9	94755.5
1095.81	390.8	95532.4
1095.91	390.7	95823.5
1096.01	390.6	95654.8
1096.11	390.5	95480.3
1096.21	390.4	95245.4
1096.31	390.3	94519.5
1096.41	390.2	94429.3
1096.51	390.1	94602.8
1096.61	390	94297.1
1096.71	389.9	94507.3
1096.81	389.8	94444.6
1096.91	389.7	93929.6
1097.01	389.6	93372.7
1097.11	389.5	93057.6
1097.21	389.4	93892
1097.31	389.3	93449.8
1097.41	389.2	94157.2
1097.51	389.1	94003.2
1097.61	389	94066.1
1097.71	388.9	94033.4
1097.81	388.8	93841.4
1097.91	388.7	93545.2
1098.01	388.6	92980.5
1098.11	388.5	93378.4
1098.21	388.4	94169.7
1098.31	388.3	94195.1
1098.41	388.2	93911
1098.51	388.1	93881.4
1098.61	388	94358.5
1098.71	387.9	93868.8
1098.81	387.8	94439.8
1098.91	387.7	95041.8
1099.01	387.6	95233.9
1099.11	387.5	95253.8
1099.21	387.4	94687.3
1099.31	387.3	94781.6
1099.41	387.2	95407.3
1099.51	387.1	94851.8
1099.61	387	95434.2
1099.71	386.9	95392.2
1099.81	386.8	95424
1099.91	386.7	94667.3
1100.01	386.6	94473.1
1100.11	386.5	94823.9
1100.21	386.4	94969.8
1100.31	386.3	94490.1
1100.41	386.2	94133.3
1100.51	386.1	94360.5
1100.61	386	93818.2
1100.71	385.9	93837.5
1100.81	385.8	93997.7
1100.91	385.7	93653.7
1101.01	385.6	93659.9
1101.11	385.5	94221.1
1101.21	385.4	93874.1
1101.31	385.3	92888.7
1101.41	385.2	93215.2
1101.51	385.1	93166.8
1101.61	385	93521.9
1101.71	384.9	93146.3
1101.81	384.8	92851.4
1101.91	384.7	92967.2
1102.01	384.6	93117.7
1102.11	384.5	92728.2
1102.21	384.4	92769.6
1102.31	384.3	92313.2
1102.41	384.2	92811.3
1102.51	384.1	92937.7
1102.61	384	93592.6
1102.71	383.9	93935
1102.81	383.8	94072.5
1102.91	383.7	93789
1103.01	383.6	94782.6
1103.11	383.5	95170.3
1103.21	383.4	94697.1
1103.31	383.3	94663.3
1103.41	383.2	95812.2
1103.51	383.1	96026.2
1103.61	383	96241.7
1103.71	382.9	96902.9
1103.81	382.8	96787.2
1103.91	382.7	97259.3
1104.01	382.6	97131.9
1104.11	382.5	97561.3
1104.21	382.4	97709.5
1104.31	382.3	98053.5
1104.41	382.2	98229.2
1104.51	382.1	97843.5
1104.61	382	97943.5
1104.71	381.9	97542.3
1104.81	381.8	98193.5
1104.91	381.7	97878.2
1105.01	381.6	97332.8
1105.11	381.5	97111.8
1105.21	381.4	95941.3
1105.31	381.3	96222.4
1105.41	381.2	96195.7
1105.51	381.1	94935.9
1105.61	381	95520.6
1105.71	380.9	95306.9
1105.81	380.8	94580.8
1105.91	380.7	94520.9
1106.01	380.6	93802.6
1106.11	380.5	92873.3
1106.21	380.4	93201.4
1106.31	380.3	93190.4
1106.41	380.2	93226.4
1106.51	380.1	92542.1
1106.61	380	92044.8
1106.71	379.9	91738.2
1106.81	379.8	92324.7
1106.91	379.7	92866.4
1107.01	379.6	92158.6
1107.11	379.5	91781.2
1107.21	379.4	92525.1
1107.31	379.3	92967.9
1107.41	379.2	93715.3
1107.51	379.1	93700.8
1107.61	379	93983.6
1107.71	378.9	94175.2
1107.81	378.8	95996.9
1107.91	378.7	97435.3
1108.01	378.6	99958.6
1108.11	378.5	103272
1108.21	378.4	106320
1108.31	378.3	108704
1108.41	378.2	111065
1108.51	378.1	112798
1108.61	378	112665
1108.71	377.9	111579
1108.81	377.8	108239
1108.91	377.7	103584
1109.01	377.6	100316
1109.11	377.5	97339.5
1109.21	377.4	95546.4
1109.31	377.3	94443.9
1109.41	377.2	93500.3
1109.51	377.1	94537.8
1109.61	377	95041.6
1109.71	376.9	95775.6
1109.81	376.8	96637
1109.91	376.7	98080.9
1110.01	376.6	100841
1110.11	376.5	102358
1110.21	376.4	104408
1110.31	376.3	105795
1110.41	376.2	107826
1110.51	376.1	110483
1110.61	376	113378
1110.71	375.9	117304
1110.81	375.8	121436
1110.91	375.7	125573
1111.01	375.6	131184
1111.11	375.5	136760
1111.21	375.4	145412
1111.31	375.3	157037
1111.41	375.2	174087
1111.51	375.1	196729
1111.61	375	232396
1111.71	374.9	285513
1111.81	374.8	366071
1111.91	374.7	478294
1112.01	374.6	620868
1112.11	374.5	785309
1112.21	374.4	945803
1112.31	374.3	1.05378e+006
1112.41	374.2	1.07539e+006
1112.51	374.1	995672
1112.61	374	842808
1112.71	373.9	651995
1112.81	373.8	466069
1112.91	373.7	324066
1113.01	373.6	230649
1113.11	373.5	174733
1113.21	373.4	140769
1113.31	373.3	119676
1113.41	373.2	107739
1113.51	373.1	99659.3
1113.61	373	94153.2
1113.71	372.9	90495.1
1113.81	372.8	88930.4
1113.91	372.7	88589.8
1114.01	372.6	89252.1
1114.11	372.5	90252.8
1114.21	372.4	92285.8
1114.31	372.3	95689.3
1114.41	372.2	99591.8
1114.51	372.1	99621
1114.61	372	98937.8
1114.71	371.9	95562.1
1114.81	371.8	89954.5
1114.91	371.7	83311.3
1115.01	371.6	76542.8
1115.11	371.5	71002.4
1115.21	371.4	66534.3
1115.31	371.3	63282
1115.41	371.2	61193.8
1115.51	371.1	60510.6
1115.61	371	60814.6
1115.71	370.9	60701.4
1115.81	370.8	61578.7
1115.91	370.7	62649.6
1116.01	370.6	64233.5
1116.11	370.5	66680.8
1116.21	370.4	68989.4
1116.31	370.3	71778.1
1116.41	370.2	75551.1
1116.51	370.1	78933.3
1116.61	370	82343.2
1116.71	369.9	87183.4
1116.81	369.8	93779.4
1116.91	369.7	100918
1117.01	369.6	109342
1117.11	369.5	120120
1117.21	369.4	133098
1117.31	369.3	150568
1117.41	369.2	176136
1117.51	369.1	210932
1117.61	369	263122
1117.71	368.9	342179
1117.81	368.8	456646
1117.91	368.7	617212
1118.01	368.6	822885
1118.11	368.5	1.06186e+006
1118.21	368.4	1.28654e+006
1118.31	368.3	1.44262e+006
1118.41	368.2	1.48065e+006
1118.51	368.1	1.3708e+006
1118.61	368	1.14971e+006
1118.71	367.9	877693
1118.81	367.8	615788
1118.91	367.7	407140
1119.01	367.6	268654
1119.11	367.5	184770
1119.21	367.4	134121
1119.31	367.3	101677
1119.41	367.2	82201.5
1119.51	367.1	68820.6
1119.61	367	59146.5
1119.71	366.9	51910.6
1119.81	366.8	46299.3
1119.91	366.7	41601.7
1120.01	366.6	38112.9
1120.11	366.5	35764.2
1120.21	366.4	33340.6
1120.31	366.3	31066.3
1120.41	366.2	29391.3
1120.51	366.1	27845.8
1120.61	366	27175.9
1120.71	365.9	25484
1120.81	365.8	24782.7
1120.91	365.7	23868.3
1121.01	365.6	22891.4
1121.11	365.5	22032
1121.21	365.4	21415.3
1121.31	365.3	20862.3
1121.41	365.2	20083.7
1121.51	365.1	19859.1
1121.61	365	19320.3
1121.71	364.9	18934.8
1121.81	364.8	18881.4
1121.91	364.7	18351.6
1122.01	364.6	17655
1122.11	364.5	17459.6
1122.21	364.4	17273.4
1122.31	364.3	17266.9
1122.41	364.2	16923.7
1122.51	364.1	16295
1122.61	364	16007.2
1122.71	363.9	15964.1
1122.81	363.8	16030.6
1122.91	363.7	15628.4
1123.01	363.6	15400.8
1123.11	363.5	15229.5
1123.21	363.4	15122.2
1123.31	363.3	14832.7
1123.41	363.2	14750.6
1123.51	363.1	14645.8
1123.61	363	14715.5
1123.71	362.9	14390.3
1123.81	362.8	14356.1
1123.91	362.7	14590.9
1124.01	362.6	14411.4
1124.11	362.5	14694.9
1124.21	362.4	14363.2
1124.31	362.3	14240.7
1124.41	362.2	14007.9
1124.51	362.1	13689.8
1124.61	362	13795
1124.71	361.9	13708.6
1124.81	361.8	13470.6
1124.91	361.7	13640.9
1125.01	361.6	13791.4
1125.11	361.5	13862.7
1125.21	361.4	13361.2
1125.31	361.3	13115.1
1125.41	361.2	13318.4
1125.51	361.1	13106.8
1125.61	361	12837.6
1125.71	360.9	13006.1
1125.81	360.8	13070.7
1125.91	360.7	12883.3
1126.01	360.6	12922.2
1126.11	360.5	13086.1
1126.21	360.4	13027.9
1126.31	360.3	12895.2
1126.41	360.2	12754.6
1126.51	360.1	12892.2
1126.61	360	12802.4
1126.71	359.9	12436.3
1126.81	359.8	12589
1126.91	359.7	12565.1
1127.01	359.6	12650.9
1127.11	359.5	12769.8
1127.21	359.4	13008.5
1127.31	359.3	12694.1
1127.41	359.2	12747.5
1127.51	359.1	12807.9
1127.61	359	12861.2
1127.71	358.9	12508.8
1127.81	358.8	12494.8
1127.91	358.7	12510.7
1128.01	358.6	12592.9
1128.11	358.5	12430.3
1128.21	358.4	12599.3
1128.31	358.3	12458.9
1128.41	358.2	12473.5
1128.51	358.1	12641.5
1128.61	358	12341
1128.71	357.9	12571.8
1128.81	357.8	12519.4
1128.91	357.7	12478
1129.01	357.6	12358.3
1129.11	357.5	12322.8
1129.21	357.4	12495.6
1129.31	357.3	12420
1129.41	357.2	12415.2
1129.51	357.1	12543.8
1129.61	357	12424.1
1129.71	356.9	12342
1129.81	356.8	12229.9
1129.91	356.7	12243.3
1130.01	356.6	12497.5
1130.11	356.5	12217.9
1130.21	356.4	12400
1130.31	356.3	12182.4
1130.41	356.2	12164.9
1130.51	356.1	12203.2
1130.61	356	12100.3
1130.71	355.9	12063.3
1130.81	355.8	12263.4
1130.91	355.7	12003.1
1131.01	355.6	12191.8
1131.11	355.5	12164.2
1131.21	355.4	12327.5
1131.31	355.3	12361.9
1131.41	355.2	12140
1131.51	355.1	12289.5
1131.61	355	12214.4
1131.71	354.9	12246.1
1131.81	354.8	12449.4
1131.91	354.7	12384.9
1132.01	354.6	12317.2
1132.11	354.5	12127.8
1132.21	354.4	12178.4
1132.31	354.3	12105.7
1132.41	354.2	12288
1132.51	354.1	12502.6
1132.61	354	12459.7
1132.71	353.9	12339.9
1132.81	353.8	11990.4
1132.91	353.7	11960.5
1133.01	353.6	12162.2
1133.11	353.5	12117.1
1133.21	353.4	12049
1133.31	353.3	12031
1133.41	353.2	12593.8
1133.51	353.1	12376.7
1133.61	353	12124.5
1133.71	352.9	11991.2
1133.81	352.8	11870.9
1133.91	352.7	12421.1
1134.01	352.6	12220
1134.11	352.5	11920.5
1134.21	352.4	11893
1134.31	352.3	12247.1
1134.41	352.2	12382.9
1134.51	352.1	12151.2
1134.61	352	11860.7
1134.71	351.9	12125.7
1134.81	351.8	12043.6
1134.91	351.7	11840
1135.01	351.6	11792
1135.11	351.5	12083.5
1135.21	351.4	12287.3
1135.31	351.3	12226.9
1135.41	351.2	12135.7
1135.51	351.1	12051.6
1135.61	351	12020.9
1135.71	350.9	12048.6
1135.81	350.8	11942.8
1135.91	350.7	12071
1136.01	350.6	12372
1136.11	350.5	12169.1
1136.21	350.4	12230.4
1136.31	350.3	12235.5
1136.41	350.2	11894.7
1136.51	350.1	11904.3
1136.61	350	12035.6