C:\Users\Mark\ownCloud\Muelheim Group\Projects\Gas phase background\EX320_CEC356_Ag in He.vms
Ag3d
	Characteristic Energy eV	1486.61	Acquisition Time s	0.3
KE_Ag3d	BE_Ag3d	CPS_Ag3d
1036.61	450	71460.4
1036.71	449.9	71583.1
1036.81	449.8	71921.9
1036.91	449.7	71459.5
1037.01	449.6	71437.3
1037.11	449.5	71666.8
1037.21	449.4	71860.5
1037.31	449.3	71886.9
1037.41	449.2	71635.1
1037.51	449.1	71656
1037.61	449	72101.8
1037.71	448.9	72328.9
1037.81	448.8	72346
1037.91	448.7	71667.2
1038.01	448.6	71672.8
1038.11	448.5	71733.9
1038.21	448.4	71916.8
1038.31	448.3	71934.6
1038.41	448.2	71790.8
1038.51	448.1	71775.7
1038.61	448	71917.3
1038.71	447.9	71738.7
1038.81	447.8	72032.1
1038.91	447.7	72552.2
1039.01	447.6	72292.3
1039.11	447.5	71924.2
1039.21	447.4	71857.9
1039.31	447.3	71995.5
1039.41	447.2	71957.5
1039.51	447.1	71551.7
1039.61	447	71603.4
1039.71	446.9	71964.5
1039.81	446.8	71940.4
1039.91	446.7	72254.4
1040.01	446.6	72367
1040.11	446.5	72085.7
1040.21	446.4	72359.2
1040.31	446.3	71938
1040.41	446.2	71858.1
1040.51	446.1	72225.6
1040.61	446	71803
1040.71	445.9	71870.4
1040.81	445.8	72075.7
1040.91	445.7	72176.9
1041.01	445.6	72088.7
1041.11	445.5	71776.8
1041.21	445.4	71895.5
1041.31	445.3	71614.1
1041.41	445.2	71856.9
1041.51	445.1	72217.9
1041.61	445	72172.4
1041.71	444.9	72091.2
1041.81	444.8	72325.1
1041.91	444.7	72109.5
1042.01	444.6	71641.7
1042.11	444.5	71710
1042.21	444.4	72316.9
1042.31	444.3	71796.1
1042.41	444.2	72715.5
1042.51	444.1	72603.6
1042.61	444	72034.5
1042.71	443.9	72122.3
1042.81	443.8	72527.9
1042.91	443.7	72333.6
1043.01	443.6	72594.7
1043.11	443.5	72569.5
1043.21	443.4	72414.1
1043.31	443.3	72156.3
1043.41	443.2	72275.7
1043.51	443.1	71973.8
1043.61	443	71717.2
1043.71	442.9	72313.9
1043.81	442.8	72251.5
1043.91	442.7	72152.9
1044.01	442.6	71829.5
1044.11	442.5	72087.7
1044.21	442.4	72038
1044.31	442.3	72404.3
1044.41	442.2	72410.9
1044.51	442.1	72681.1
1044.61	442	72322.5
1044.71	441.9	72278.1
1044.81	441.8	72368.8
1044.91	441.7	72843.2
1045.01	441.6	72515.3
1045.11	441.5	72324.6
1045.21	441.4	71985.3
1045.31	441.3	72342.9
1045.41	441.2	72271.7
1045.51	441.1	72558.2
1045.61	441	72747.3
1045.71	440.9	72881.5
1045.81	440.8	72535.4
1045.91	440.7	72216.6
1046.01	440.6	72567.5
1046.11	440.5	72393.5
1046.21	440.4	72544.8
1046.31	440.3	72637.5
1046.41	440.2	72017.5
1046.51	440.1	72382.2
1046.61	440	72307.6
1046.71	439.9	72570.1
1046.81	439.8	72476
1046.91	439.7	72459.3
1047.01	439.6	72514.3
1047.11	439.5	72320.3
1047.21	439.4	72729.6
1047.31	439.3	72672.1
1047.41	439.2	72720.2
1047.51	439.1	73250.3
1047.61	439	73327.3
1047.71	438.9	72450.9
1047.81	438.8	72331.8
1047.91	438.7	72612.7
1048.01	438.6	72443.3
1048.11	438.5	72593.1
1048.21	438.4	72588
1048.31	438.3	72560.2
1048.41	438.2	72300.5
1048.51	438.1	72614.3
1048.61	438	72664.7
1048.71	437.9	72854.5
1048.81	437.8	72377.1
1048.91	437.7	72342.4
1049.01	437.6	73025.7
1049.11	437.5	72721.4
1049.21	437.4	72528.3
1049.31	437.3	72549.9
1049.41	437.2	72708.5
1049.51	437.1	72778.3
1049.61	437	73212.3
1049.71	436.9	72886.7
1049.81	436.8	72850.5
1049.91	436.7	73026.9
1050.01	436.6	73040.4
1050.11	436.5	72663.1
1050.21	436.4	72724.3
1050.31	436.3	73295.6
1050.41	436.2	72983.8
1050.51	436.1	72842.9
1050.61	436	72851.3
1050.71	435.9	72859.2
1050.81	435.8	72634.1
1050.91	435.7	72772.7
1051.01	435.6	72461.2
1051.11	435.5	72749.5
1051.21	435.4	72565.4
1051.31	435.3	72599.8
1051.41	435.2	73118.2
1051.51	435.1	73202.1
1051.61	435	72893.4
1051.71	434.9	73124.6
1051.81	434.8	73177.3
1051.91	434.7	73641.9
1052.01	434.6	72898.6
1052.11	434.5	73033.3
1052.21	434.4	73097.6
1052.31	434.3	73010.3
1052.41	434.2	73098.3
1052.51	434.1	73466.1
1052.61	434	73481.7
1052.71	433.9	73362
1052.81	433.8	73148.5
1052.91	433.7	73268.9
1053.01	433.6	73195.8
1053.11	433.5	73265.9
1053.21	433.4	73052
1053.31	433.3	72694.5
1053.41	433.2	73193.6
1053.51	433.1	73204.7
1053.61	433	73457.4
1053.71	432.9	73561.3
1053.81	432.8	73167.2
1053.91	432.7	73157.6
1054.01	432.6	72922
1054.11	432.5	73381.3
1054.21	432.4	73520.7
1054.31	432.3	73590.9
1054.41	432.2	73399.6
1054.51	432.1	73181.7
1054.61	432	73413.5
1054.71	431.9	73460.8
1054.81	431.8	73246.8
1054.91	431.7	73237.8
1055.01	431.6	73251.4
1055.11	431.5	73472.1
1055.21	431.4	73656.2
1055.31	431.3	73796.3
1055.41	431.2	73517.5
1055.51	431.1	73740.7
1055.61	431	73711.7
1055.71	430.9	73760.5
1055.81	430.8	73773.1
1055.91	430.7	73644.8
1056.01	430.6	73416.8
1056.11	430.5	73632.7
1056.21	430.4	73352.1
1056.31	430.3	73472.6
1056.41	430.2	73918
1056.51	430.1	74252.2
1056.61	430	74050.6
1056.71	429.9	74007.5
1056.81	429.8	73564.9
1056.91	429.7	73767.1
1057.01	429.6	73510.4
1057.11	429.5	73734.7
1057.21	429.4	74303.2
1057.31	429.3	74198.2
1057.41	429.2	74023
1057.51	429.1	74597.9
1057.61	429	74528.7
1057.71	428.9	74305.2
1057.81	428.8	74191.4
1057.91	428.7	74211.4
1058.01	428.6	74465.9
1058.11	428.5	74537.9
1058.21	428.4	74402.3
1058.31	428.3	74164
1058.41	428.2	73870.6
1058.51	428.1	74195.2
1058.61	428	74064.5
1058.71	427.9	74229.8
1058.81	427.8	74030
1058.91	427.7	73969.8
1059.01	427.6	74274.2
1059.11	427.5	74686.6
1059.21	427.4	74407.9
1059.31	427.3	73599.9
1059.41	427.2	73850.5
1059.51	427.1	74501.5
1059.61	427	74256.2
1059.71	426.9	74728.8
1059.81	426.8	74973.7
1059.91	426.7	74816.4
1060.01	426.6	74872.3
1060.11	426.5	74366.1
1060.21	426.4	73923.5
1060.31	426.3	74731.8
1060.41	426.2	74854.6
1060.51	426.1	74459.1
1060.61	426	74745.2
1060.71	425.9	74801.3
1060.81	425.8	74644.5
1060.91	425.7	75097.1
1061.01	425.6	74543.8
1061.11	425.5	74181
1061.21	425.4	74219.2
1061.31	425.3	74510.3
1061.41	425.2	74504.9
1061.51	425.1	75452.7
1061.61	425	74974.3
1061.71	424.9	74693.6
1061.81	424.8	75483.3
1061.91	424.7	75660.9
1062.01	424.6	74939.6
1062.11	424.5	75218.6
1062.21	424.4	75253.4
1062.31	424.3	75243.3
1062.41	424.2	75086.9
1062.51	424.1	75583.2
1062.61	424	75601.7
1062.71	423.9	75622.8
1062.81	423.8	75099.8
1062.91	423.7	75146.9
1063.01	423.6	75307.2
1063.11	423.5	75404.3
1063.21	423.4	75478.4
1063.31	423.3	75731.1
1063.41	423.2	75733.1
1063.51	423.1	75639.5
1063.61	423	75353
1063.71	422.9	75644
1063.81	422.8	75408.7
1063.91	422.7	75793.3
1064.01	422.6	75364.9
1064.11	422.5	75159.6
1064.21	422.4	75299.4
1064.31	422.3	75454.5
1064.41	422.2	75551.9
1064.51	422.1	75747.1
1064.61	422	75439.7
1064.71	421.9	75590.1
1064.81	421.8	75261.3
1064.91	421.7	75463.7
1065.01	421.6	75339
1065.11	421.5	75413.8
1065.21	421.4	75031.7
1065.31	421.3	75193.7
1065.41	421.2	75691.7
1065.51	421.1	75479
1065.61	421	75571.5
1065.71	420.9	75621.9
1065.81	420.8	75186.2
1065.91	420.7	75698
1066.01	420.6	75966.2
1066.11	420.5	75792.7
1066.21	420.4	75723
1066.31	420.3	75921.5
1066.41	420.2	75600.7
1066.51	420.1	75606.4
1066.61	420	75662.2
1066.71	419.9	75940.7
1066.81	419.8	75414.1
1066.91	419.7	75728.7
1067.01	419.6	75640
1067.11	419.5	76010.6
1067.21	419.4	75628.8
1067.31	419.3	75408
1067.41	419.2	75313
1067.51	419.1	75410.7
1067.61	419	75561.2
1067.71	418.9	75020.8
1067.81	418.8	75484.3
1067.91	418.7	76012.7
1068.01	418.6	75511.9
1068.11	418.5	75552.7
1068.21	418.4	75499
1068.31	418.3	75459.6
1068.41	418.2	75581.6
1068.51	418.1	75414
1068.61	418	75378.4
1068.71	417.9	75363
1068.81	417.8	75415.4
1068.91	417.7	75924.3
1069.01	417.6	75443.1
1069.11	417.5	75782
1069.21	417.4	75739.9
1069.31	417.3	75629.8
1069.41	417.2	75766.4
1069.51	417.1	75624.5
1069.61	417	75963.1
1069.71	416.9	76256.5
1069.81	416.8	75910.7
1069.91	416.7	75971.2
1070.01	416.6	76440.2
1070.11	416.5	76466.4
1070.21	416.4	76234.4
1070.31	416.3	75850.2
1070.41	416.2	76045.2
1070.51	416.1	76188.4
1070.61	416	76034.7
1070.71	415.9	76104
1070.81	415.8	76474.6
1070.91	415.7	76404.8
1071.01	415.6	76325.9
1071.11	415.5	76278.1
1071.21	415.4	76395.2
1071.31	415.3	75943.3
1071.41	415.2	76332.6
1071.51	415.1	76233.4
1071.61	415	76231.3
1071.71	414.9	76614.3
1071.81	414.8	76670.8
1071.91	414.7	76709.2
1072.01	414.6	76961.4
1072.11	414.5	77050.9
1072.21	414.4	77079.1
1072.31	414.3	77069.3
1072.41	414.2	76676.9
1072.51	414.1	76641.7
1072.61	414	76594.2
1072.71	413.9	76663.2
1072.81	413.8	76196
1072.91	413.7	76075.7
1073.01	413.6	76617.7
1073.11	413.5	77228.9
1073.21	413.4	77103.6
1073.31	413.3	76841.4
1073.41	413.2	76244.4
1073.51	413.1	76173.1
1073.61	413	76710.1
1073.71	412.9	76874.1
1073.81	412.8	77159.7
1073.91	412.7	77160
1074.01	412.6	77220.3
1074.11	412.5	77359.3
1074.21	412.4	77672.1
1074.31	412.3	77415.2
1074.41	412.2	76850.4
1074.51	412.1	76934.6
1074.61	412	77526.6
1074.71	411.9	77560.3
1074.81	411.8	77897.4
1074.91	411.7	77954.8
1075.01	411.6	77489.2
1075.11	411.5	77306
1075.21	411.4	77806.8
1075.31	411.3	77655.3
1075.41	411.2	78093.4
1075.51	411.1	77969.4
1075.61	411	78196.9
1075.71	410.9	78031.4
1075.81	410.8	77971.1
1075.91	410.7	77835.6
1076.01	410.6	78288.2
1076.11	410.5	78418.4
1076.21	410.4	78106.3
1076.31	410.3	77388.7
1076.41	410.2	77867.9
1076.51	410.1	78205.2
1076.61	410	78743.8
1076.71	409.9	78153.1
1076.81	409.8	78412.5
1076.91	409.7	78866
1077.01	409.6	78755.8
1077.11	409.5	78799.8
1077.21	409.4	78628.8
1077.31	409.3	78330.4
1077.41	409.2	78488.3
1077.51	409.1	78983.1
1077.61	409	78845.9
1077.71	408.9	78895.8
1077.81	408.8	78679.7
1077.91	408.7	78623.9
1078.01	408.6	78670.8
1078.11	408.5	78848.6
1078.21	408.4	79090.4
1078.31	408.3	79307.9
1078.41	408.2	79216.1
1078.51	408.1	79796.1
1078.61	408	79690.3
1078.71	407.9	79244.7
1078.81	407.8	79604.8
1078.91	407.7	79437.5
1079.01	407.6	79545.1
1079.11	407.5	79877.9
1079.21	407.4	79928
1079.31	407.3	80089.7
1079.41	407.2	79657.5
1079.51	407.1	79660.5
1079.61	407	80226
1079.71	406.9	80348.8
1079.81	406.8	80373.8
1079.91	406.7	80607.8
1080.01	406.6	80591.9
1080.11	406.5	80825.3
1080.21	406.4	80630
1080.31	406.3	80513.8
1080.41	406.2	80541
1080.51	406.1	80559.7
1080.61	406	80659.9
1080.71	405.9	80637.6
1080.81	405.8	80584.3
1080.91	405.7	80966.1
1081.01	405.6	81133.2
1081.11	405.5	81055.9
1081.21	405.4	81277.8
1081.31	405.3	80982.5
1081.41	405.2	81115.5
1081.51	405.1	81436.7
1081.61	405	81763.6
1081.71	404.9	81606.8
1081.81	404.8	81666.3
1081.91	404.7	82180.7
1082.01	404.6	82212.5
1082.11	404.5	82214.4
1082.21	404.4	82077.1
1082.31	404.3	81747.6
1082.41	404.2	81977.1
1082.51	404.1	82120.5
1082.61	404	82290
1082.71	403.9	82334.4
1082.81	403.8	82398.6
1082.91	403.7	82357.3
1083.01	403.6	82819.8
1083.11	403.5	83032.4
1083.21	403.4	83012.4
1083.31	403.3	82998.2
1083.41	403.2	82860.3
1083.51	403.1	83013.4
1083.61	403	82763.1
1083.71	402.9	83309
1083.81	402.8	84065.4
1083.91	402.7	83743.5
1084.01	402.6	83724.6
1084.11	402.5	83742.2
1084.21	402.4	83641.1
1084.31	402.3	84108
1084.41	402.2	84106.6
1084.51	402.1	83702.1
1084.61	402	84402.4
1084.71	401.9	84641
1084.81	401.8	84536.3
1084.91	401.7	85246.6
1085.01	401.6	85792
1085.11	401.5	85556.5
1085.21	401.4	85729
1085.31	401.3	85620.2
1085.41	401.2	85515.1
1085.51	401.1	86266.1
1085.61	401	86569.9
1085.71	400.9	86278
1085.81	400.8	86490.9
1085.91	400.7	86384.9
1086.01	400.6	87304.6
1086.11	400.5	87257.6
1086.21	400.4	87153.9
1086.31	400.3	87249.9
1086.41	400.2	87189.3
1086.51	400.1	87000.6
1086.61	400	87747.3
1086.71	399.9	87454.7
1086.81	399.8	87527
1086.91	399.7	87576.2
1087.01	399.6	87980.8
1087.11	399.5	87791.1
1087.21	399.4	88062.2
1087.31	399.3	88412.3
1087.41	399.2	88531.3
1087.51	399.1	88223.4
1087.61	399	88001.6
1087.71	398.9	88132.8
1087.81	398.8	88392.6
1087.91	398.7	88051.1
1088.01	398.6	88289.3
1088.11	398.5	87993.3
1088.21	398.4	88233.7
1088.31	398.3	88121.7
1088.41	398.2	88682.9
1088.51	398.1	88880.1
1088.61	398	88761.9
1088.71	397.9	88221.8
1088.81	397.8	88864.3
1088.91	397.7	89145.9
1089.01	397.6	88922.6
1089.11	397.5	88857.1
1089.21	397.4	89144.5
1089.31	397.3	88957.3
1089.41	397.2	89111.4
1089.51	397.1	88237.7
1089.61	397	87321.2
1089.71	396.9	86748.3
1089.81	396.8	86634.6
1089.91	396.7	85803.1
1090.01	396.6	85620
1090.11	396.5	85639.9
1090.21	396.4	85848.7
1090.31	396.3	86664.7
1090.41	396.2	87388.1
1090.51	396.1	88417.2
1090.61	396	89901.5
1090.71	395.9	91326.8
1090.81	395.8	94782.1
1090.91	395.7	98122.9
1091.01	395.6	100372
1091.11	395.5	101850
1091.21	395.4	101803
1091.31	395.3	100946
1091.41	395.2	98498
1091.51	395.1	95912.6
1091.61	395	93059.2
1091.71	394.9	91306.2
1091.81	394.8	90877.5
1091.91	394.7	90327.3
1092.01	394.6	89218.3
1092.11	394.5	88930.9
1092.21	394.4	89312.4
1092.31	394.3	89168.7
1092.41	394.2	89083.1
1092.51	394.1	89388
1092.61	394	89113.6
1092.71	393.9	89560.4
1092.81	393.8	89721
1092.91	393.7	89797.6
1093.01	393.6	90563.3
1093.11	393.5	90063.2
1093.21	393.4	90275.6
1093.31	393.3	90278.1
1093.41	393.2	89937.2
1093.51	393.1	90062.4
1093.61	393	89892.9
1093.71	392.9	89668.7
1093.81	392.8	90018.9
1093.91	392.7	90347.6
1094.01	392.6	89853.4
1094.11	392.5	89714.7
1094.21	392.4	89757.7
1094.31	392.3	89787.2
1094.41	392.2	89371.2
1094.51	392.1	89220.2
1094.61	392	89069.5
1094.71	391.9	88674.3
1094.81	391.8	88407.1
1094.91	391.7	88370
1095.01	391.6	89227.6
1095.11	391.5	90290.2
1095.21	391.4	90655.5
1095.31	391.3	90403.2
1095.41	391.2	89394.2
1095.51	391.1	88145.1
1095.61	391	87251.4
1095.71	390.9	86680.5
1095.81	390.8	85617.7
1095.91	390.7	85138.2
1096.01	390.6	84163.3
1096.11	390.5	84107.4
1096.21	390.4	84302.2
1096.31	390.3	84820.5
1096.41	390.2	85257.4
1096.51	390.1	86645.2
1096.61	390	88663.4
1096.71	389.9	91202.7
1096.81	389.8	94780.3
1096.91	389.7	98716.1
1097.01	389.6	101742
1097.11	389.5	104661
1097.21	389.4	104468
1097.31	389.3	102570
1097.41	389.2	98902.9
1097.51	389.1	94440.4
1097.61	389	90409.7
1097.71	388.9	87609
1097.81	388.8	85537.6
1097.91	388.7	84012.1
1098.01	388.6	82889.7
1098.11	388.5	82247.8
1098.21	388.4	81261.9
1098.31	388.3	82002.4
1098.41	388.2	81884.9
1098.51	388.1	81748
1098.61	388	81745.6
1098.71	387.9	81767.6
1098.81	387.8	81207.5
1098.91	387.7	81223.9
1099.01	387.6	81182.8
1099.11	387.5	81019.9
1099.21	387.4	81672.2
1099.31	387.3	81194.2
1099.41	387.2	81352.8
1099.51	387.1	81796.9
1099.61	387	81898.8
1099.71	386.9	81603.6
1099.81	386.8	81132
1099.91	386.7	81035.7
1100.01	386.6	81061
1100.11	386.5	80792.7
1100.21	386.4	80970.2
1100.31	386.3	80480.7
1100.41	386.2	81119.8
1100.51	386.1	80985.3
1100.61	386	80673.3
1100.71	385.9	80520.4
1100.81	385.8	80569.3
1100.91	385.7	80560.1
1101.01	385.6	79967.2
1101.11	385.5	80040.5
1101.21	385.4	79857.2
1101.31	385.3	79386.9
1101.41	385.2	79160.7
1101.51	385.1	78964.7
1101.61	385	79129
1101.71	384.9	78975.9
1101.81	384.8	78968
1101.91	384.7	79185.9
1102.01	384.6	79287.6
1102.11	384.5	78992.9
1102.21	384.4	79104.6
1102.31	384.3	79199.7
1102.41	384.2	79071.4
1102.51	384.1	79646.6
1102.61	384	79555.1
1102.71	383.9	79603.8
1102.81	383.8	79783.3
1102.91	383.7	79840.7
1103.01	383.6	79686
1103.11	383.5	80337.9
1103.21	383.4	80037.8
1103.31	383.3	80510.8
1103.41	383.2	80891.8
1103.51	383.1	80787.3
1103.61	383	80923.4
1103.71	382.9	81817.8
1103.81	382.8	82486.7
1103.91	382.7	82357.6
1104.01	382.6	82502.6
1104.11	382.5	82124.6
1104.21	382.4	82658.8
1104.31	382.3	82687.5
1104.41	382.2	82785.4
1104.51	382.1	82416.7
1104.61	382	82016.1
1104.71	381.9	82538.5
1104.81	381.8	82462.4
1104.91	381.7	81685.8
1105.01	381.6	81242.6
1105.11	381.5	81717.1
1105.21	381.4	81311.4
1105.31	381.3	81243.4
1105.41	381.2	80477.5
1105.51	381.1	80159.8
1105.61	381	79903.5
1105.71	380.9	79734.5
1105.81	380.8	79847.4
1105.91	380.7	79288.4
1106.01	380.6	78507.9
1106.11	380.5	78153.4
1106.21	380.4	78028.8
1106.31	380.3	78059.2
1106.41	380.2	78035.1
1106.51	380.1	77826.5
1106.61	380	78091.6
1106.71	379.9	77787.6
1106.81	379.8	77323.8
1106.91	379.7	77195.4
1107.01	379.6	77148.6
1107.11	379.5	76860.4
1107.21	379.4	77190.9
1107.31	379.3	77496.8
1107.41	379.2	78544.3
1107.51	379.1	78690
1107.61	379	78732.1
1107.71	378.9	79420.9
1107.81	378.8	80204
1107.91	378.7	81995.5
1108.01	378.6	83888.9
1108.11	378.5	85290.1
1108.21	378.4	87574.1
1108.31	378.3	90241.6
1108.41	378.2	92438.9
1108.51	378.1	94614.2
1108.61	378	94728.3
1108.71	377.9	93314.8
1108.81	377.8	91530.5
1108.91	377.7	89189.1
1109.01	377.6	85631
1109.11	377.5	82284.8
1109.21	377.4	80164.6
1109.31	377.3	79721.5
1109.41	377.2	79182.8
1109.51	377.1	79082
1109.61	377	79501.8
1109.71	376.9	80565.4
1109.81	376.8	80944.3
1109.91	376.7	82056.1
1110.01	376.6	83637.4
1110.11	376.5	85095.6
1110.21	376.4	86330.3
1110.31	376.3	88298.5
1110.41	376.2	90252.3
1110.51	376.1	92687
1110.61	376	94751.6
1110.71	375.9	97862
1110.81	375.8	100937
1110.91	375.7	104566
1111.01	375.6	108484
1111.11	375.5	114415
1111.21	375.4	121490
1111.31	375.3	131027
1111.41	375.2	144642
1111.51	375.1	165226
1111.61	375	195225
1111.71	374.9	238839
1111.81	374.8	306100
1111.91	374.7	400036
1112.01	374.6	520695
1112.11	374.5	657493
1112.21	374.4	786574
1112.31	374.3	875339
1112.41	374.2	890725
1112.51	374.1	824106
1112.61	374	694963
1112.71	373.9	535248
1112.81	373.8	384643
1112.91	373.7	267850
1113.01	373.6	190028
1113.11	373.5	143957
1113.21	373.4	117156
1113.31	373.3	100498
1113.41	373.2	89691
1113.51	373.1	82972.6
1113.61	373	78575.2
1113.71	372.9	75772.1
1113.81	372.8	74123.9
1113.91	372.7	73768.8
1114.01	372.6	74236.1
1114.11	372.5	75412.1
1114.21	372.4	77804.5
1114.31	372.3	80242.1
1114.41	372.2	81764.3
1114.51	372.1	82982
1114.61	372	82904.6
1114.71	371.9	80548.3
1114.81	371.8	76474.6
1114.91	371.7	70956.4
1115.01	371.6	65697.9
1115.11	371.5	61094.9
1115.21	371.4	57120.2
1115.31	371.3	53986.1
1115.41	371.2	52056.2
1115.51	371.1	51327.9
1115.61	371	51595.6
1115.71	370.9	52029.6
1115.81	370.8	52650.2
1115.91	370.7	53777.3
1116.01	370.6	55338.7
1116.11	370.5	56544.3
1116.21	370.4	58572.9
1116.31	370.3	60732.1
1116.41	370.2	63155.6
1116.51	370.1	66580.7
1116.61	370	70207.2
1116.71	369.9	74720.5
1116.81	369.8	79455.5
1116.91	369.7	85197.7
1117.01	369.6	92214.5
1117.11	369.5	101050
1117.21	369.4	112324
1117.31	369.3	127532
1117.41	369.2	147562
1117.51	369.1	177868
1117.61	369	222118
1117.71	368.9	288244
1117.81	368.8	384912
1117.91	368.7	519998
1118.01	368.6	693353
1118.11	368.5	889219
1118.21	368.4	1.07485e+006
1118.31	368.3	1.20072e+006
1118.41	368.2	1.22393e+006
1118.51	368.1	1.13362e+006
1118.61	368	949631
1118.71	367.9	723085
1118.81	367.8	505241
1118.91	367.7	335101
1119.01	367.6	222150
1119.11	367.5	153673
1119.21	367.4	111663
1119.31	367.3	86281.1
1119.41	367.2	69600.4
1119.51	367.1	58462.8
1119.61	367	50175.5
1119.71	366.9	44020.7
1119.81	366.8	39456.8
1119.91	366.7	35676.3
1120.01	366.6	32798.2
1120.11	366.5	30400.1
1120.21	366.4	28521.2
1120.31	366.3	26853.7
1120.41	366.2	25718.5
1120.51	366.1	24376.6
1120.61	366	23244.7
1120.71	365.9	22295.2
1120.81	365.8	21579.5
1120.91	365.7	20992.2
1121.01	365.6	20232.8
1121.11	365.5	19427.4
1121.21	365.4	18808.2
1121.31	365.3	18364.6
1121.41	365.2	18122.9
1121.51	365.1	17499.7
1121.61	365	17104.1
1121.71	364.9	16953.5
1121.81	364.8	16633.2
1121.91	364.7	16324.1
1122.01	364.6	15940
1122.11	364.5	15914.3
1122.21	364.4	15682.5
1122.31	364.3	15353.7
1122.41	364.2	15201.1
1122.51	364.1	14874.5
1122.61	364	14900.2
1122.71	363.9	14624
1122.81	363.8	14530.9
1122.91	363.7	14253.4
1123.01	363.6	14254.7
1123.11	363.5	14010
1123.21	363.4	13708.9
1123.31	363.3	13586.5
1123.41	363.2	13537.4
1123.51	363.1	13465.9
1123.61	363	13359.3
1123.71	362.9	13404.9
1123.81	362.8	13580.4
1123.91	362.7	13217.3
1124.01	362.6	13276.4
1124.11	362.5	13127.2
1124.21	362.4	12965.7
1124.31	362.3	13152
1124.41	362.2	12963.4
1124.51	362.1	12852
1124.61	362	12884.5
1124.71	361.9	12753.3
1124.81	361.8	12772.2
1124.91	361.7	12657.9
1125.01	361.6	12506.8
1125.11	361.5	12365.8
1125.21	361.4	12298.8
1125.31	361.3	12258.5
1125.41	361.2	12162.2
1125.51	361.1	12274.7
1125.61	361	12371.9
1125.71	360.9	12302.5
1125.81	360.8	12078.3
1125.91	360.7	12202.9
1126.01	360.6	12078.4
1126.11	360.5	12285.4
1126.21	360.4	12124.9
1126.31	360.3	11963.3
1126.41	360.2	11903.3
1126.51	360.1	11714.1
1126.61	360	11846.2
1126.71	359.9	11884
1126.81	359.8	12062.5
1126.91	359.7	12096.1
1127.01	359.6	12006.4
1127.11	359.5	11915.4
1127.21	359.4	11821.4
1127.31	359.3	11795.4
1127.41	359.2	11795
1127.51	359.1	11635.1
1127.61	359	11546.7
1127.71	358.9	11714.8
1127.81	358.8	11689.4
1127.91	358.7	11577.6
1128.01	358.6	11810.6
1128.11	358.5	11722.3
1128.21	358.4	11771.8
1128.31	358.3	11679.4
1128.41	358.2	11669.8
1128.51	358.1	11694.9
1128.61	358	11671
1128.71	357.9	11592.1
1128.81	357.8	11592.4
1128.91	357.7	11692.4
1129.01	357.6	11639.4
1129.11	357.5	11790.5
1129.21	357.4	11849.3
1129.31	357.3	11793.3
1129.41	357.2	11763.6
1129.51	357.1	11609.9
1129.61	357	11444
1129.71	356.9	11488
1129.81	356.8	11512.9
1129.91	356.7	11529.9
1130.01	356.6	11523.4
1130.11	356.5	11548.5
1130.21	356.4	11566.1
1130.31	356.3	11503.3
1130.41	356.2	11438.4
1130.51	356.1	11434.5
1130.61	356	11513
1130.71	355.9	11613
1130.81	355.8	11596.8
1130.91	355.7	11606.7
1131.01	355.6	11474.6
1131.11	355.5	11609
1131.21	355.4	11547.3
1131.31	355.3	11598.1
1131.41	355.2	11510.7
1131.51	355.1	11513.5
1131.61	355	11227.4
1131.71	354.9	11526.1
1131.81	354.8	11532
1131.91	354.7	11743.9
1132.01	354.6	11491.9
1132.11	354.5	11315.8
1132.21	354.4	11268.7
1132.31	354.3	11298.8
1132.41	354.2	11337.7
1132.51	354.1	11272.8
1132.61	354	11279.5
1132.71	353.9	11487.9
1132.81	353.8	11428.2
1132.91	353.7	11536.7
1133.01	353.6	11344.8
1133.11	353.5	11219.4
1133.21	353.4	11227.8
1133.31	353.3	11382.9
1133.41	353.2	11430.5
1133.51	353.1	11466.8
1133.61	353	11391.3
1133.71	352.9	11520.6
1133.81	352.8	11498.4
1133.91	352.7	11492.2
1134.01	352.6	11405.9
1134.11	352.5	11419
1134.21	352.4	11396.6
1134.31	352.3	11315.8
1134.41	352.2	11475
1134.51	352.1	11441.4
1134.61	352	11295.9
1134.71	351.9	11368.7
1134.81	351.8	11362.2
1134.91	351.7	11498.7
1135.01	351.6	11377.4
1135.11	351.5	11268.9
1135.21	351.4	11357.8
1135.31	351.3	11630.7
1135.41	351.2	11670.3
1135.51	351.1	11526.1
1135.61	351	11455.9
1135.71	350.9	11272.3
1135.81	350.8	11425.6
1135.91	350.7	11361.9
1136.01	350.6	11276.3
1136.11	350.5	11421.7
1136.21	350.4	11438
1136.31	350.3	11473.8
1136.41	350.2	11437.6
1136.51	350.1	11529.2
1136.61	350	11498.8