C:\Users\Mark\ownCloud\Muelheim Group\Projects\Gas phase background\EX320_CEC356_Ag in He.vms
Survey
	Characteristic Energy eV	1486.61	Acquisition Time s	0.1
KE_Survey	BE_Survey	CPS_Survey
800.11	686.5	91022.1
800.61	686	90766.5
801.11	685.5	90981.3
801.61	685	90788.6
802.11	684.5	90978.4
802.61	684	91100
803.11	683.5	91072.6
803.61	683	91267.8
804.11	682.5	91464.6
804.61	682	91402.3
805.11	681.5	91349.5
805.61	681	91501.5
806.11	680.5	91336.7
806.61	680	91900.2
807.11	679.5	92150.4
807.61	679	91583.2
808.11	678.5	91877.8
808.61	678	91702.4
809.11	677.5	92074.1
809.61	677	92071.1
810.11	676.5	92441.3
810.61	676	92449.7
811.11	675.5	92415.4
811.61	675	92644.9
812.11	674.5	92560.7
812.61	674	92704.5
813.11	673.5	92977.1
813.61	673	93103
814.11	672.5	93432.4
814.61	672	93073.1
815.11	671.5	93174.2
815.61	671	93156.6
816.11	670.5	93351.3
816.61	670	93446.6
817.11	669.5	93608.9
817.61	669	93575.2
818.11	668.5	93875.2
818.61	668	93763.5
819.11	667.5	93982.9
819.61	667	93957.5
820.11	666.5	94019.7
820.61	666	93993.6
821.11	665.5	94288.9
821.61	665	94473
822.11	664.5	94530.3
822.61	664	94438
823.11	663.5	94486.8
823.61	663	95132.9
824.11	662.5	95072.2
824.61	662	95213.8
825.11	661.5	95597.2
825.61	661	95550.3
826.11	660.5	95429.6
826.61	660	95771.6
827.11	659.5	95842.7
827.61	659	96030.2
828.11	658.5	96425.9
828.61	658	96261.6
829.11	657.5	96530.3
829.61	657	96638.5
830.11	656.5	96657.4
830.61	656	96837.6
831.11	655.5	96917.9
831.61	655	97012.8
832.11	654.5	96662.1
832.61	654	97099.8
833.11	653.5	97136.5
833.61	653	97121.6
834.11	652.5	97207
834.61	652	97584.3
835.11	651.5	97675.8
835.61	651	98039.4
836.11	650.5	97573.8
836.61	650	97334.5
837.11	649.5	97737.6
837.61	649	97963.8
838.11	648.5	98167.6
838.61	648	98043.2
839.11	647.5	98039.5
839.61	647	98509.4
840.11	646.5	98585.9
840.61	646	98438.1
841.11	645.5	98586.5
841.61	645	98786.6
842.11	644.5	99047.1
842.61	644	99242.3
843.11	643.5	99413.7
843.61	643	99302.8
844.11	642.5	99579
844.61	642	99572.4
845.11	641.5	99743
845.61	641	99926.6
846.11	640.5	100021
846.61	640	100128
847.11	639.5	100123
847.61	639	100312
848.11	638.5	100861
848.61	638	100784
849.11	637.5	100583
849.61	637	100820
850.11	636.5	100708
850.61	636	101166
851.11	635.5	101475
851.61	635	101793
852.11	634.5	102272
852.61	634	101950
853.11	633.5	102291
853.61	633	103374
854.11	632.5	103043
854.61	632	102854
855.11	631.5	103420
855.61	631	103705
856.11	630.5	104258
856.61	630	104232
857.11	629.5	104636
857.61	629	104944
858.11	628.5	105111
858.61	628	104938
859.11	627.5	105378
859.61	627	105098
860.11	626.5	105458
860.61	626	105848
861.11	625.5	105654
861.61	625	105539
862.11	624.5	105331
862.61	624	105398
863.11	623.5	105012
863.61	623	104564
864.11	622.5	104884
864.61	622	104768
865.11	621.5	104948
865.61	621	104881
866.11	620.5	104560
866.61	620	104863
867.11	619.5	104835
867.61	619	104895
868.11	618.5	104966
868.61	618	105141
869.11	617.5	105120
869.61	617	105408
870.11	616.5	105369
870.61	616	105801
871.11	615.5	105607
871.61	615	105816
872.11	614.5	106161
872.61	614	106646
873.11	613.5	107573
873.61	613	108052
874.11	612.5	108212
874.61	612	108852
875.11	611.5	109290
875.61	611	109770
876.11	610.5	110325
876.61	610	111457
877.11	609.5	112731
877.61	609	114178
878.11	608.5	116052
878.61	608	118342
879.11	607.5	121166
879.61	607	125008
880.11	606.5	130650
880.61	606	138574
881.11	605.5	148828
881.61	605	161055
882.11	604.5	171333
882.61	604	175349
883.11	603.5	172474
883.61	603	162070
884.11	602.5	148735
884.61	602	136340
885.11	601.5	126367
885.61	601	119457
886.11	600.5	114495
886.61	600	111568
887.11	599.5	109438
887.61	599	107844
888.11	598.5	106491
888.61	598	105732
889.11	597.5	105234
889.61	597	104886
890.11	596.5	104307
890.61	596	103590
891.11	595.5	103469
891.61	595	103567
892.11	594.5	103115
892.61	594	102471
893.11	593.5	101866
893.61	593	100842
894.11	592.5	100317
894.61	592	99596.2
895.11	591.5	98942.1
895.61	591	98568.2
896.11	590.5	98491.2
896.61	590	98476.1
897.11	589.5	98282.7
897.61	589	98010.8
898.11	588.5	97652.9
898.61	588	98035.5
899.11	587.5	97950.3
899.61	587	97936.3
900.11	586.5	97871.9
900.61	586	97924.3
901.11	585.5	98143.6
901.61	585	98232.2
902.11	584.5	98766
902.61	584	98752.2
903.11	583.5	99256.7
903.61	583	99850
904.11	582.5	100580
904.61	582	101576
905.11	581.5	102272
905.61	581	103197
906.11	580.5	103835
906.61	580	105181
907.11	579.5	106190
907.61	579	108027
908.11	578.5	109924
908.61	578	113395
909.11	577.5	116768
909.61	577	121819
910.11	576.5	128499
910.61	576	136805
911.11	575.5	149980
911.61	575	168481
912.11	574.5	190571
912.61	574	212495
913.11	573.5	227305
913.61	573	230240
914.11	572.5	218081
914.61	572	194445
915.11	571.5	167745
915.61	571	144147
916.11	570.5	125880
916.61	570	112580
917.11	569.5	103338
917.61	569	96466.4
918.11	568.5	91598.7
918.61	568	87989
919.11	567.5	85041.8
919.61	567	82899.4
920.11	566.5	81147.3
920.61	566	79773.1
921.11	565.5	78451.2
921.61	565	77471.9
922.11	564.5	76938.6
922.61	564	76350.7
923.11	563.5	75862
923.61	563	75041.4
924.11	562.5	75184.7
924.61	562	74661.5
925.11	561.5	74387.9
925.61	561	73881.5
926.11	560.5	73981.1
926.61	560	73756.4
927.11	559.5	73603.7
927.61	559	73422.2
928.11	558.5	73234.3
928.61	558	73228
929.11	557.5	73031.9
929.61	557	72886.6
930.11	556.5	72935.8
930.61	556	73418.4
931.11	555.5	73014.9
931.61	555	73096.2
932.11	554.5	73049.9
932.61	554	72915.3
933.11	553.5	73141.3
933.61	553	73027.6
934.11	552.5	73093.2
934.61	552	72680
935.11	551.5	73026.9
935.61	551	73094.6
936.11	550.5	73219.1
936.61	550	72996.7
937.11	549.5	72918.9
937.61	549	73247.9
938.11	548.5	73322.8
938.61	548	73215.8
939.11	547.5	72967.2
939.61	547	73244.5
940.11	546.5	73658.9
940.61	546	73682.4
941.11	545.5	73436.7
941.61	545	73615
942.11	544.5	73700.1
942.61	544	73483.2
943.11	543.5	73648.8
943.61	543	73895.6
944.11	542.5	73948.9
944.61	542	73762.3
945.11	541.5	73918.7
945.61	541	74035.8
946.11	540.5	73882.5
946.61	540	73867.1
947.11	539.5	74089.6
947.61	539	74235.9
948.11	538.5	73954.8
948.61	538	74278.3
949.11	537.5	74491.3
949.61	537	74564.4
950.11	536.5	74564.6
950.61	536	74571.7