C:\Users\Mark\ownCloud\Muelheim Group\Projects\Gas phase background\CasaXP2.vms
Survey
	Characteristic Energy eV	1486.61	Acquisition Time s	0.1
KE_Survey	BE_Survey	CPS_Survey
975.11	511.5	107292
975.61	511	107221
976.11	510.5	107173
976.61	510	107336
977.11	509.5	107284
977.61	509	107245
978.11	508.5	107342
978.61	508	107768
979.11	507.5	108136
979.61	507	108013
980.11	506.5	108234
980.61	506	108089
981.11	505.5	108413
981.61	505	108287
982.11	504.5	108632
982.61	504	108711
983.11	503.5	108749
983.61	503	108701
984.11	502.5	109036
984.61	502	108899
985.11	501.5	109346
985.61	501	109494
986.11	500.5	109738
986.61	500	109480
987.11	499.5	109527
987.61	499	109901
988.11	498.5	109863
988.61	498	109810
989.11	497.5	110056
989.61	497	110264
990.11	496.5	110578
990.61	496	110221
991.11	495.5	110236
991.61	495	110500
992.11	494.5	110490
992.61	494	110799
993.11	493.5	110486
993.61	493	110893
994.11	492.5	110820
994.61	492	111145
995.11	491.5	111281
995.61	491	111280
996.11	490.5	111546
996.61	490	111861
997.11	489.5	111694
997.61	489	111713
998.11	488.5	112263
998.61	488	111849
999.11	487.5	112391
999.61	487	112500
1000.11	486.5	112552
1000.61	486	112952
1001.11	485.5	112811
1001.61	485	112888
1002.11	484.5	113039
1002.61	484	113112
1003.11	483.5	113636
1003.61	483	113556
1004.11	482.5	113460
1004.61	482	113789
1005.11	481.5	113851
1005.61	481	113438
1006.11	480.5	113944
1006.61	480	114094
1007.11	479.5	114159
1007.61	479	114344
1008.11	478.5	114759
1008.61	478	115049
1009.11	477.5	114668
1009.61	477	114902
1010.11	476.5	115013
1010.61	476	115761
1011.11	475.5	115461
1011.61	475	115786
1012.11	474.5	115313
1012.61	474	116058
1013.11	473.5	115734
1013.61	473	115704
1014.11	472.5	116184
1014.61	472	116266
1015.11	471.5	116262
1015.61	471	116807
1016.11	470.5	116704
1016.61	470	116530
1017.11	469.5	116709
1017.61	469	117010
1018.11	468.5	117261
1018.61	468	117617
1019.11	467.5	117775
1019.61	467	117762
1020.11	466.5	117630
1020.61	466	117889
1021.11	465.5	118056
1021.61	465	118039
1022.11	464.5	118657
1022.61	464	118620
1023.11	463.5	118584
1023.61	463	118843
1024.11	462.5	119280
1024.61	462	119361
1025.11	461.5	119412
1025.61	461	119431
1026.11	460.5	119520
1026.61	460	119984
1027.11	459.5	120108
1027.61	459	120226
1028.11	458.5	120584
1028.61	458	120453
1029.11	457.5	120683
1029.61	457	121031
1030.11	456.5	121083
1030.61	456	121083
1031.11	455.5	121436
1031.61	455	121514
1032.11	454.5	121417
1032.61	454	121818
1033.11	453.5	121734
1033.61	453	122199
1034.11	452.5	122142
1034.61	452	122785
1035.11	451.5	122514
1035.61	451	122899
1036.11	450.5	122979
1036.61	450	123105
1037.11	449.5	123191
1037.61	449	123331
1038.11	448.5	123559
1038.61	448	124084
1039.11	447.5	124163
1039.61	447	123947
1040.11	446.5	124132
1040.61	446	124558
1041.11	445.5	124464
1041.61	445	124605
1042.11	444.5	124751
1042.61	444	125036
1043.11	443.5	125341
1043.61	443	125142
1044.11	442.5	125506
1044.61	442	125928
1045.11	441.5	126116
1045.61	441	126195
1046.11	440.5	126205
1046.61	440	126753
1047.11	439.5	126766
1047.61	439	127148
1048.11	438.5	127216
1048.61	438	127221
1049.11	437.5	127545
1049.61	437	127625
1050.11	436.5	127796
1050.61	436	127287
1051.11	435.5	127745
1051.61	435	128454
1052.11	434.5	128577
1052.61	434	128881
1053.11	433.5	129156
1053.61	433	129380
1054.11	432.5	129323
1054.61	432	129813
1055.11	431.5	129878
1055.61	431	129776
1056.11	430.5	130092
1056.61	430	130385
1057.11	429.5	130354
1057.61	429	130432
1058.11	428.5	130752
1058.61	428	130744
1059.11	427.5	131297
1059.61	427	131601
1060.11	426.5	132159
1060.61	426	132326
1061.11	425.5	132124
1061.61	425	132788
1062.11	424.5	132502
1062.61	424	132967
1063.11	423.5	132933
1063.61	423	133481
1064.11	422.5	133443
1064.61	422	133760
1065.11	421.5	133751
1065.61	421	134357
1066.11	420.5	134516
1066.61	420	134328
1067.11	419.5	134513
1067.61	419	135220
1068.11	418.5	135260
1068.61	418	135350
1069.11	417.5	135700
1069.61	417	135744
1070.11	416.5	136032
1070.61	416	136023
1071.11	415.5	136161
1071.61	415	136390
1072.11	414.5	136573
1072.61	414	137283
1073.11	413.5	137581
1073.61	413	137254
1074.11	412.5	137725
1074.61	412	137709
1075.11	411.5	137951
1075.61	411	138206
1076.11	410.5	138339
1076.61	410	138672
1077.11	409.5	138833
1077.61	409	139137
1078.11	408.5	139736
1078.61	408	139470
1079.11	407.5	139831
1079.61	407	140224
1080.11	406.5	140547
1080.61	406	141046
1081.11	405.5	141117
1081.61	405	141046
1082.11	404.5	141148
1082.61	404	141616
1083.11	403.5	142216
1083.61	403	142290
1084.11	402.5	142574
1084.61	402	142606
1085.11	401.5	143564
1085.61	401	143756
1086.11	400.5	144095
1086.61	400	144572
1087.11	399.5	144494
1087.61	399	144675
1088.11	398.5	145022
1088.61	398	145346
1089.11	397.5	145448
1089.61	397	145646
1090.11	396.5	146551
1090.61	396	146247
1091.11	395.5	146472
1091.61	395	146576
1092.11	394.5	147193
1092.61	394	147492
1093.11	393.5	147366
1093.61	393	147657
1094.11	392.5	148186
1094.61	392	148822
1095.11	391.5	149120
1095.61	391	149560
1096.11	390.5	150036
1096.61	390	149979
1097.11	389.5	150573
1097.61	389	151403
1098.11	388.5	151749
1098.61	388	152110
1099.11	387.5	152227
1099.61	387	152482
1100.11	386.5	153004
1100.61	386	153050
1101.11	385.5	153425
1101.61	385	153767
1102.11	384.5	154320
1102.61	384	154637
1103.11	383.5	154870
1103.61	383	155076
1104.11	382.5	155043
1104.61	382	155491
1105.11	381.5	156236
1105.61	381	156517
1106.11	380.5	156776
1106.61	380	157567
1107.11	379.5	157956
1107.61	379	158697
1108.11	378.5	158626
1108.61	378	159141
1109.11	377.5	159154
1109.61	377	159536
1110.11	376.5	159399
1110.61	376	159822
1111.11	375.5	160472
1111.61	375	160655
1112.11	374.5	160750
1112.61	374	160244
1113.11	373.5	160190
1113.61	373	159855
1114.11	372.5	159760
1114.61	372	160138
1115.11	371.5	160019
1115.61	371	160097
1116.11	370.5	160982
1116.61	370	161127
1117.11	369.5	161432
1117.61	369	161768
1118.11	368.5	162463
1118.61	368	163153
1119.11	367.5	164004
1119.61	367	164380
1120.11	366.5	165153
1120.61	366	165391
1121.11	365.5	166148
1121.61	365	166858
1122.11	364.5	167462
1122.61	364	168474
1123.11	363.5	169617
1123.61	363	170635
1124.11	362.5	171443
1124.61	362	172608
1125.11	361.5	174117
1125.61	361	175682
1126.11	360.5	177672
1126.61	360	180173
1127.11	359.5	182950
1127.61	359	185300
1128.11	358.5	189261
1128.61	358	194607
1129.11	357.5	199687
1129.61	357	207623
1130.11	356.5	216671
1130.61	356	228489
1131.11	355.5	242298
1131.61	355	258225
1132.11	354.5	274905
1132.61	354	289315
1133.11	353.5	298383
1133.61	353	299521
1134.11	352.5	291672
1134.61	352	275527
1135.11	351.5	254840
1135.61	351	234167
1136.11	350.5	215313
1136.61	350	199266
1137.11	349.5	186710
1137.61	349	176483
1138.11	348.5	168437
1138.61	348	162401
1139.11	347.5	158239
1139.61	347	154249
1140.11	346.5	152077
1140.61	346	150008
1141.11	345.5	148412
1141.61	345	147668
1142.11	344.5	146625
1142.61	344	146354
1143.11	343.5	146704
1143.61	343	147336
1144.11	342.5	148489
1144.61	342	150791
1145.11	341.5	153783
1145.61	341	157424
1146.11	340.5	162215
1146.61	340	168664
1147.11	339.5	176955
1147.61	339	187502
1148.11	338.5	201578
1148.61	338	220149
1149.11	337.5	243320
1149.61	337	270658
1150.11	336.5	300155
1150.61	336	328108
1151.11	335.5	347329
1151.61	335	351225
1152.11	334.5	337882
1152.61	334	310880
1153.11	333.5	276093
1153.61	333	239428
1154.11	332.5	207451
1154.61	332	180278
1155.11	331.5	159078
1155.61	331	142378
1156.11	330.5	129946
1156.61	330	119742
1157.11	329.5	111789
1157.61	329	105332
1158.11	328.5	100501
1158.61	328	96265.2
1159.11	327.5	92796.8
1159.61	327	89836.1
1160.11	326.5	87515.3
1160.61	326	85185
1161.11	325.5	83646.8
1161.61	325	82210.6
1162.11	324.5	80996.6
1162.61	324	79839.5
1163.11	323.5	78753.6
1163.61	323	77912.6
1164.11	322.5	77215.3
1164.61	322	76775.8
1165.11	321.5	76228.4
1165.61	321	75648.2
1166.11	320.5	75374.3
1166.61	320	74844
1167.11	319.5	75006.3
1167.61	319	74691.5
1168.11	318.5	74467.6
1168.61	318	73629.7
1169.11	317.5	73091.1
1169.61	317	72592
1170.11	316.5	72495.9
1170.61	316	72046.1
1171.11	315.5	72034.8
1171.61	315	71762.7
1172.11	314.5	71848.3
1172.61	314	71410.4
1173.11	313.5	71124.6
1173.61	313	70824
1174.11	312.5	70792.3
1174.61	312	70782.8
1175.11	311.5	70527.1
1175.61	311	70469.8
1176.11	310.5	70477.6
1176.61	310	70345.6
1177.11	309.5	70473
1177.61	309	70414
1178.11	308.5	70278.9
1178.61	308	70172.5
1179.11	307.5	70236.3
1179.61	307	70308.6
1180.11	306.5	70229.5
1180.61	306	69967.7
1181.11	305.5	70205.1
1181.61	305	70001.2
1182.11	304.5	70124.6
1182.61	304	69917.9