C:\Users\Mark\ownCloud\Muelheim Group\Projects\Gas phase background\EX320_CEC356_Cu in He.vms
Pr:Cu2p
	Characteristic Energy eV	1486.61	Acquisition Time s	0.3
KE_Pr:Cu2p	BE_Pr:Cu2p	CPS_Pr:Cu2p	Background_Pr:Cu2p
456.61	1030	163295	163295
456.71	1029.9	163858	163858
456.81	1029.8	164576	164576
456.91	1029.7	163402	163402
457.01	1029.6	163659	163659
457.11	1029.5	164133	164133
457.21	1029.4	164199	164199
457.31	1029.3	163642	163642
457.41	1029.2	164702	164702
457.51	1029.1	164802	164802
457.61	1029	164135	164135
457.71	1028.9	164023	164023
457.81	1028.8	163922	163922
457.91	1028.7	164430	164430
458.01	1028.6	165269	165269
458.11	1028.5	164759	164759
458.21	1028.4	164709	164709
458.31	1028.3	163888	163888
458.41	1028.2	164670	164670
458.51	1028.1	165047	165047
458.61	1028	165128	165128
458.71	1027.9	164993	164993
458.81	1027.8	164705	164705
458.91	1027.7	164258	164258
459.01	1027.6	164598	164598
459.11	1027.5	164332	164332
459.21	1027.4	164122	164122
459.31	1027.3	164062	164062
459.41	1027.2	164206	164206
459.51	1027.1	164893	164893
459.61	1027	164555	164555
459.71	1026.9	164942	164942
459.81	1026.8	165176	165176
459.91	1026.7	165974	165974
460.01	1026.6	165915	165915
460.11	1026.5	165093	165093
460.21	1026.4	165901	165901
460.31	1026.3	166602	166602
460.41	1026.2	165597	165597
460.51	1026.1	164847	164847
460.61	1026	164648	164648
460.71	1025.9	164806	164806
460.81	1025.8	165797	165797
460.91	1025.7	165702	165702
461.01	1025.6	165290	165290
461.11	1025.5	165631	165631
461.21	1025.4	165457	165457
461.31	1025.3	166064	166064
461.41	1025.2	165608	165608
461.51	1025.1	166172	166172
461.61	1025	165590	165590
461.71	1024.9	165757	165757
461.81	1024.8	166150	166150
461.91	1024.7	164823	164823
462.01	1024.6	165744	165744
462.11	1024.5	165409	165409
462.21	1024.4	166358	166358
462.31	1024.3	166546	166546
462.41	1024.2	166018	166018
462.51	1024.1	166270	166270
462.61	1024	166404	166404
462.71	1023.9	166675	166675
462.81	1023.8	166998	166998
462.91	1023.7	167074	167074
463.01	1023.6	167320	167320
463.11	1023.5	166281	166281
463.21	1023.4	167160	167160
463.31	1023.3	167033	167033
463.41	1023.2	166726	166726
463.51	1023.1	167146	167146
463.61	1023	166852	166852
463.71	1022.9	166336	166336
463.81	1022.8	167031	167031
463.91	1022.7	167024	167024
464.01	1022.6	167172	167172
464.11	1022.5	167266	167266
464.21	1022.4	167332	167332
464.31	1022.3	167630	167630
464.41	1022.2	166646	166646
464.51	1022.1	166965	166965
464.61	1022	167291	167291
464.71	1021.9	166920	166920
464.81	1021.8	167370	167370
464.91	1021.7	167545	167545
465.01	1021.6	167129	167129
465.11	1021.5	166546	166546
465.21	1021.4	167657	167657
465.31	1021.3	167278	167278
465.41	1021.2	168342	168342
465.51	1021.1	167051	167051
465.61	1021	167208	167208
465.71	1020.9	167505	167505
465.81	1020.8	168219	168219
465.91	1020.7	167804	167804
466.01	1020.6	168229	168229
466.11	1020.5	167333	167333
466.21	1020.4	167958	167958
466.31	1020.3	168129	168129
466.41	1020.2	167537	167537
466.51	1020.1	168436	168436
466.61	1020	167810	167810
466.71	1019.9	168459	168459
466.81	1019.8	168473	168473
466.91	1019.7	167937	167937
467.01	1019.6	168401	168401
467.11	1019.5	168802	168802
467.21	1019.4	168597	168597
467.31	1019.3	169034	169034
467.41	1019.2	169219	169219
467.51	1019.1	169052	169052
467.61	1019	169281	169281
467.71	1018.9	168486	168486
467.81	1018.8	168308	168308
467.91	1018.7	169398	169398
468.01	1018.6	169211	169211
468.11	1018.5	168798	168798
468.21	1018.4	168475	168475
468.31	1018.3	168897	168897
468.41	1018.2	168429	168429
468.51	1018.1	169238	169238
468.61	1018	169308	169308
468.71	1017.9	169717	169717
468.81	1017.8	169851	169851
468.91	1017.7	169612	169612
469.01	1017.6	168933	168933
469.11	1017.5	169033	169033
469.21	1017.4	169768	169768
469.31	1017.3	169258	169258
469.41	1017.2	169848	169848
469.51	1017.1	169253	169253
469.61	1017	169553	169553
469.71	1016.9	169555	169555
469.81	1016.8	169680	169680
469.91	1016.7	170294	170294
470.01	1016.6	169754	169754
470.11	1016.5	169212	169212
470.21	1016.4	170232	170232
470.31	1016.3	170479	170479
470.41	1016.2	170957	170957
470.51	1016.1	169873	169873
470.61	1016	170936	170936
470.71	1015.9	170657	170657
470.81	1015.8	170974	170974
470.91	1015.7	171040	171040
471.01	1015.6	170582	170582
471.11	1015.5	171690	171690
471.21	1015.4	171607	171607
471.31	1015.3	171235	171235
471.41	1015.2	169944	169944
471.51	1015.1	170804	170804
471.61	1015	170573	170573
471.71	1014.9	170269	170269
471.81	1014.8	171222	171222
471.91	1014.7	171809	171809
472.01	1014.6	171023	171023
472.11	1014.5	170556	170556
472.21	1014.4	171400	171400
472.31	1014.3	171491	171491
472.41	1014.2	170517	170517
472.51	1014.1	171248	171248
472.61	1014	172100	172100
472.71	1013.9	170928	170928
472.81	1013.8	171818	171818
472.91	1013.7	172325	172325
473.01	1013.6	171776	171776
473.11	1013.5	170552	170552
473.21	1013.4	170912	170912
473.31	1013.3	171602	171602
473.41	1013.2	171332	171332
473.51	1013.1	171718	171718
473.61	1013	171874	171874
473.71	1012.9	171909	171909
473.81	1012.8	172053	172053
473.91	1012.7	172273	172273
474.01	1012.6	171894	171894
474.11	1012.5	171846	171846
474.21	1012.4	172181	172181
474.31	1012.3	172227	172227
474.41	1012.2	172003	172003
474.51	1012.1	171829	171829
474.61	1012	173292	173292
474.71	1011.9	173453	173453
474.81	1011.8	172591	172591
474.91	1011.7	173136	173136
475.01	1011.6	172397	172397
475.11	1011.5	172879	172879
475.21	1011.4	172658	172658
475.31	1011.3	173504	173504
475.41	1011.2	173104	173104
475.51	1011.1	173457	173457
475.61	1011	174284	174284
475.71	1010.9	173134	173134
475.81	1010.8	172628	172628
475.91	1010.7	173117	173117
476.01	1010.6	173628	173628
476.11	1010.5	173342	173342
476.21	1010.4	172835	172835
476.31	1010.3	173018	173018
476.41	1010.2	173791	173791
476.51	1010.1	174359	174359
476.61	1010	173166	173166
476.71	1009.9	173086	173086
476.81	1009.8	172994	172994
476.91	1009.7	173226	173226
477.01	1009.6	173581	173581
477.11	1009.5	173436	173436
477.21	1009.4	173597	173597
477.31	1009.3	174302	174302
477.41	1009.2	174373	174373
477.51	1009.1	173898	173898
477.61	1009	172969	172969
477.71	1008.9	174166	174166
477.81	1008.8	174655	174655
477.91	1008.7	174915	174915
478.01	1008.6	174663	174663
478.11	1008.5	173507	173507
478.21	1008.4	174195	174195
478.31	1008.3	174073	174073
478.41	1008.2	174344	174344
478.51	1008.1	174591	174591
478.61	1008	174220	174220
478.71	1007.9	174556	174556
478.81	1007.8	174390	174390
478.91	1007.7	175168	175168
479.01	1007.6	173683	173683
479.11	1007.5	173632	173632
479.21	1007.4	174451	174451
479.31	1007.3	175212	175212
479.41	1007.2	174211	174211
479.51	1007.1	173725	173725
479.61	1007	174143	174143
479.71	1006.9	175405	175405
479.81	1006.8	175481	175481
479.91	1006.7	176253	176253
480.01	1006.6	175520	175520
480.11	1006.5	175560	175560
480.21	1006.4	176328	176328
480.31	1006.3	175134	175134
480.41	1006.2	174724	174724
480.51	1006.1	174796	174796
480.61	1006	174711	174711
480.71	1005.9	175066	175066
480.81	1005.8	175246	175246
480.91	1005.7	175773	175773
481.01	1005.6	177241	177241
481.11	1005.5	176085	176085
481.21	1005.4	175915	175915
481.31	1005.3	175001	175001
481.41	1005.2	175195	175195
481.51	1005.1	176296	176296
481.61	1005	176351	176351
481.71	1004.9	176820	176820
481.81	1004.8	176881	176881
481.91	1004.7	176913	176913
482.01	1004.6	177616	177616
482.11	1004.5	177525	177525
482.21	1004.4	177349	177349
482.31	1004.3	178212	178212
482.41	1004.2	178045	178045
482.51	1004.1	177487	177487
482.61	1004	177646	177646
482.71	1003.9	177458	177458
482.81	1003.8	177122	177122
482.91	1003.7	176677	176677
483.01	1003.6	177694	177694
483.11	1003.5	177904	177904
483.21	1003.4	178369	178369
483.31	1003.3	177607	177607
483.41	1003.2	178011	178011
483.51	1003.1	177356	177356
483.61	1003	178087	178087
483.71	1002.9	178026	178026
483.81	1002.8	177516	177516
483.91	1002.7	178116	178116
484.01	1002.6	177005	177005
484.11	1002.5	177953	177953
484.21	1002.4	178704	178704
484.31	1002.3	178613	178613
484.41	1002.2	179050	179050
484.51	1002.1	179469	179469
484.61	1002	178560	178560
484.71	1001.9	178698	178698
484.81	1001.8	179280	179280
484.91	1001.7	179795	179795
485.01	1001.6	179661	179661
485.11	1001.5	179742	179742
485.21	1001.4	180287	180287
485.31	1001.3	179799	179799
485.41	1001.2	178813	178813
485.51	1001.1	178836	178836
485.61	1001	179906	179906
485.71	1000.9	180537	180537
485.81	1000.8	179709	179709
485.91	1000.7	179458	179458
486.01	1000.6	180042	180042
486.11	1000.5	180185	180185
486.21	1000.4	179819	179819
486.31	1000.3	180200	180200
486.41	1000.2	180128	180128
486.51	1000.1	179909	179909
486.61	1000	179062	179062
486.71	999.9	178923	178923
486.81	999.8	179436	179436
486.91	999.7	181666	181666
487.01	999.6	181364	181364
487.11	999.5	181047	181047
487.21	999.4	181613	181613
487.31	999.3	181649	181649
487.41	999.2	180155	180155
487.51	999.1	180998	180998
487.61	999	180757	180757
487.71	998.9	180211	180211
487.81	998.8	181293	181293
487.91	998.7	180910	180910
488.01	998.6	181123	181123
488.11	998.5	182345	182345
488.21	998.4	181924	181924
488.31	998.3	181733	181733
488.41	998.2	181348	181348
488.51	998.1	180901	180901
488.61	998	181867	181867
488.71	997.9	182415	182415
488.81	997.8	182758	182758
488.91	997.7	182311	182311
489.01	997.6	183098	183098
489.11	997.5	182504	182504
489.21	997.4	181743	181743
489.31	997.3	182278	182278
489.41	997.2	183148	183148
489.51	997.1	182843	182843
489.61	997	183474	183474
489.71	996.9	183463	183463
489.81	996.8	182055	182055
489.91	996.7	182205	182205
490.01	996.6	181861	181861
490.11	996.5	183195	183195
490.21	996.4	183454	183454
490.31	996.3	183552	183552
490.41	996.2	184086	184086
490.51	996.1	183866	183866
490.61	996	183574	183574
490.71	995.9	183225	183225
490.81	995.8	183091	183091
490.91	995.7	184450	184450
491.01	995.6	184447	184447
491.11	995.5	184029	184029
491.21	995.4	184323	184323
491.31	995.3	184069	184069
491.41	995.2	184060	184060
491.51	995.1	184183	184183
491.61	995	183283	183283
491.71	994.9	183922	183922
491.81	994.8	184231	184231
491.91	994.7	184506	184506
492.01	994.6	184815	184815
492.11	994.5	184389	184389
492.21	994.4	184005	184005
492.31	994.3	184893	184893
492.41	994.2	184811	184811
492.51	994.1	184778	184778
492.61	994	184194	184194
492.71	993.9	184926	184926
492.81	993.8	185300	185300
492.91	993.7	184684	184684
493.01	993.6	184661	184661
493.11	993.5	185340	185340
493.21	993.4	185226	185226
493.31	993.3	186352	186352
493.41	993.2	185705	185705
493.51	993.1	186036	186036
493.61	993	185033	185033
493.71	992.9	184951	184951
493.81	992.8	184785	184785
493.91	992.7	185996	185996
494.01	992.6	185572	185572
494.11	992.5	186040	186040
494.21	992.4	186017	186017
494.31	992.3	185640	185640
494.41	992.2	186089	186089
494.51	992.1	185179	185179
494.61	992	185239	185239
494.71	991.9	185792	185792
494.81	991.8	185574	185574
494.91	991.7	185533	185533
495.01	991.6	185670	185670
495.11	991.5	186147	186147
495.21	991.4	185847	185847
495.31	991.3	185943	185943
495.41	991.2	186135	186135
495.51	991.1	186313	186313
495.61	991	187105	187105
495.71	990.9	187186	187186
495.81	990.8	186864	186864
495.91	990.7	186541	186541
496.01	990.6	187178	187178
496.11	990.5	186147	186147
496.21	990.4	187017	187017
496.31	990.3	186803	186803
496.41	990.2	187395	187395
496.51	990.1	188157	188157
496.61	990	188344	188344
496.71	989.9	188479	188479
496.81	989.8	187958	187958
496.91	989.7	186861	186861
497.01	989.6	188772	188772
497.11	989.5	188964	188964
497.21	989.4	186931	186931
497.31	989.3	186484	186484
497.41	989.2	187548	187548
497.51	989.1	188534	188534
497.61	989	188136	188136
497.71	988.9	188053	188053
497.81	988.8	188105	188105
497.91	988.7	188955	188955
498.01	988.6	188991	188991
498.11	988.5	188103	188103
498.21	988.4	188288	188288
498.31	988.3	188806	188806
498.41	988.2	189083	189083
498.51	988.1	190013	190013
498.61	988	190086	190086
498.71	987.9	188720	188720
498.81	987.8	188958	188958
498.91	987.7	189883	189883
499.01	987.6	190108	190108
499.11	987.5	189916	189916
499.21	987.4	190769	190769
499.31	987.3	190402	190402
499.41	987.2	190397	190397
499.51	987.1	190388	190388
499.61	987	189791	189791
499.71	986.9	190913	190913
499.81	986.8	191243	191243
499.91	986.7	190068	190068
500.01	986.6	190082	190082
500.11	986.5	189670	189670
500.21	986.4	189526	189526
500.31	986.3	190521	190521
500.41	986.2	190859	190859
500.51	986.1	190446	190446
500.61	986	191387	191387
500.71	985.9	192162	192162
500.81	985.8	190802	190802
500.91	985.7	190576	190576
501.01	985.6	190897	190897
501.11	985.5	191526	191526
501.21	985.4	190751	190751
501.31	985.3	191740	191740
501.41	985.2	192307	192307
501.51	985.1	192049	192049
501.61	985	192734	192734
501.71	984.9	192223	192223
501.81	984.8	192859	192859
501.91	984.7	193179	193179
502.01	984.6	193649	193649
502.11	984.5	193345	193345
502.21	984.4	192778	192778
502.31	984.3	193062	193062
502.41	984.2	192809	192809
502.51	984.1	192464	192464
502.61	984	192384	192384
502.71	983.9	193600	193600
502.81	983.8	194170	194170
502.91	983.7	193133	193133
503.01	983.6	193216	193216
503.11	983.5	194617	194617
503.21	983.4	194891	194891
503.31	983.3	194716	194716
503.41	983.2	193613	193613
503.51	983.1	193707	193707
503.61	983	195126	195126
503.71	982.9	194693	194693
503.81	982.8	195573	195573
503.91	982.7	196636	196636
504.01	982.6	196660	196660
504.11	982.5	196140	196140
504.21	982.4	196192	196192
504.31	982.3	194328	194328
504.41	982.2	195184	195184
504.51	982.1	196827	196827
504.61	982	196732	196732
504.71	981.9	196586	196586
504.81	981.8	197139	197139
504.91	981.7	196497	196497
505.01	981.6	196174	196174
505.11	981.5	195854	195854
505.21	981.4	197347	197347
505.31	981.3	196592	196592
505.41	981.2	197025	197025
505.51	981.1	197260	197260
505.61	981	197669	197669
505.71	980.9	198067	198067
505.81	980.8	197930	197930
505.91	980.7	197176	197176
506.01	980.6	197484	197484
506.11	980.5	197623	197623
506.21	980.4	197559	197559
506.31	980.3	196981	196981
506.41	980.2	197566	197566
506.51	980.1	198375	198375
506.61	980	199872	199872
506.71	979.9	199825	199825
506.81	979.8	199420	199420
506.91	979.7	199490	199490
507.01	979.6	198902	198902
507.11	979.5	199936	199936
507.21	979.4	199682	199682
507.31	979.3	199487	199487
507.41	979.2	199383	199383
507.51	979.1	199146	199146
507.61	979	199387	199387
507.71	978.9	199166	199166
507.81	978.8	199795	199795
507.91	978.7	200829	200829
508.01	978.6	200099	200099
508.11	978.5	200287	200287
508.21	978.4	199685	199685
508.31	978.3	200394	200394
508.41	978.2	201062	201062
508.51	978.1	200158	200158
508.61	978	200755	200755
508.71	977.9	200921	200921
508.81	977.8	200804	200804
508.91	977.7	201012	201012
509.01	977.6	201733	201733
509.11	977.5	201532	201532
509.21	977.4	200340	200340
509.31	977.3	200783	200783
509.41	977.2	201143	201143
509.51	977.1	202045	202045
509.61	977	202093	202093
509.71	976.9	201764	201764
509.81	976.8	202762	202762
509.91	976.7	202675	202675
510.01	976.6	203147	203147
510.11	976.5	203821	203821
510.21	976.4	204114	204114
510.31	976.3	203925	203925
510.41	976.2	203603	203603
510.51	976.1	204415	204415
510.61	976	203843	203843
510.71	975.9	203905	203905
510.81	975.8	202953	202953
510.91	975.7	202813	202813
511.01	975.6	204629	204629
511.11	975.5	204178	204178
511.21	975.4	204093	204093
511.31	975.3	203936	203936
511.41	975.2	204772	204772
511.51	975.1	206112	206112
511.61	975	206664	206664
511.71	974.9	206594	206594
511.81	974.8	206133	206133
511.91	974.7	207125	207125
512.01	974.6	206498	206498
512.11	974.5	207763	207763
512.21	974.4	206905	206905
512.31	974.3	207785	207785
512.41	974.2	208179	208179
512.51	974.1	208312	208312
512.61	974	207023	207023
512.71	973.9	207388	207388
512.81	973.8	207900	207900
512.91	973.7	207696	207696
513.01	973.6	207173	207173
513.11	973.5	206746	206746
513.21	973.4	207751	207751
513.31	973.3	207129	207129
513.41	973.2	207877	207877
513.51	973.1	208200	208200
513.61	973	208299	208299
513.71	972.9	207629	207629
513.81	972.8	208690	208690
513.91	972.7	207278	207278
514.01	972.6	207588	207588
514.11	972.5	207459	207459
514.21	972.4	208004	208004
514.31	972.3	208061	208061
514.41	972.2	207755	207755
514.51	972.1	207310	207310
514.61	972	207374	207374
514.71	971.9	207587	207587
514.81	971.8	207421	207421
514.91	971.7	208731	208731
515.01	971.6	208670	208670
515.11	971.5	207717	207717
515.21	971.4	208260	208260
515.31	971.3	209299	209299
515.41	971.2	208162	208162
515.51	971.1	208667	208667
515.61	971	207863	207863
515.71	970.9	207750	207750
515.81	970.8	208313	208313
515.91	970.7	208274	208274
516.01	970.6	208553	208553
516.11	970.5	208338	208338
516.21	970.4	208897	208897
516.31	970.3	208732	208732
516.41	970.2	209007	209007
516.51	970.1	207983	207983
516.61	970	209331	209331
516.71	969.9	208729	208729
516.81	969.8	208723	208723
516.91	969.7	208539	208539
517.01	969.6	208582	208582
517.11	969.5	207913	207913
517.21	969.4	209409	209409
517.31	969.3	210093	210093
517.41	969.2	209894	209894
517.51	969.1	208687	208687
517.61	969	208082	208082
517.71	968.9	207832	207832
517.81	968.8	208161	208161
517.91	968.7	208440	208440
518.01	968.6	208346	208346
518.11	968.5	208543	208543
518.21	968.4	209280	209280
518.31	968.3	209544	209544
518.41	968.2	207773	207773
518.51	968.1	207562	207562
518.61	968	206779	206779
518.71	967.9	208086	208086
518.81	967.8	208335	208335
518.91	967.7	208576	208576
519.01	967.6	207386	207386
519.11	967.5	207519	207519
519.21	967.4	207586	207586
519.31	967.3	207403	207403
519.41	967.2	207657	207657
519.51	967.1	208380	208380
519.61	967	208041	208041
519.71	966.9	208874	208874
519.81	966.8	207973	207973
519.91	966.7	209615	209615
520.01	966.6	209867	209867
520.11	966.5	210505	210505
520.21	966.4	210318	210318
520.31	966.3	209747	209747
520.41	966.2	210485	210485
520.51	966.1	211007	211007
520.61	966	211596	211596
520.71	965.9	211936	211936
520.81	965.8	211303	211303
520.91	965.7	211994	211994
521.01	965.6	211476	211476
521.11	965.5	211374	211374
521.21	965.4	211389	211389
521.31	965.3	212031	212031
521.41	965.2	212249	212249
521.51	965.1	212271	212271
521.61	965	212394	212394
521.71	964.9	214277	214277
521.81	964.8	213347	213347
521.91	964.7	213244	213244
522.01	964.6	213831	213831
522.11	964.5	213222	213222
522.21	964.4	213816	213816
522.31	964.3	213498	213498
522.41	964.2	212881	212881
522.51	964.1	212702	212702
522.61	964	211792	211792
522.71	963.9	210682	210682
522.81	963.8	209046	209046
522.91	963.7	208615	208615
523.01	963.6	208530	208530
523.11	963.5	207572	207572
523.21	963.4	207568	207568
523.31	963.3	206408	206408
523.41	963.2	207257	207257
523.51	963.1	206531	206531
523.61	963	205254	205254
523.71	962.9	204018	204018
523.81	962.8	204413	204413
523.91	962.7	203710	203710
524.01	962.6	203966	203966
524.11	962.5	203536	203536
524.21	962.4	203837	203837
524.31	962.3	203051	203051
524.41	962.2	203285	203285
524.51	962.1	202039	202039
524.61	962	201994	201994
524.71	961.9	201825	201825
524.81	961.8	201160	201160
524.91	961.7	200928	200928
525.01	961.6	201940	201940
525.11	961.5	201624	201624
525.21	961.4	200842	200842
525.31	961.3	200523	200523
525.41	961.2	201608	201608
525.51	961.1	201729	201729
525.61	961	200591	200591
525.71	960.9	202114	202114
525.81	960.8	202617	202617
525.91	960.7	201474	201474
526.01	960.6	201612	201612
526.11	960.5	200825	200825
526.21	960.4	201857	201857
526.31	960.3	201506	201506
526.41	960.2	201817	201817
526.51	960.1	202345	202345
526.61	960	203477	203477
526.71	959.9	202789	202789
526.81	959.8	203000	203000
526.91	959.7	202924	202924
527.01	959.6	202218	202218
527.11	959.5	203593	203593
527.21	959.4	203955	203955
527.31	959.3	204666	204666
527.41	959.2	204536	204536
527.51	959.1	204231	204231
527.61	959	203984	203984
527.71	958.9	203484	203484
527.81	958.8	203405	203405
527.91	958.7	202942	202942
528.01	958.6	204446	204446
528.11	958.5	204073	204073
528.21	958.4	205069	205069
528.31	958.3	204752	204752
528.41	958.2	204508	204508
528.51	958.1	206130	206130
528.61	958	205154	205154
528.71	957.9	205259	205259
528.81	957.8	205872	205872
528.91	957.7	206451	206451
529.01	957.6	206279	206279
529.11	957.5	208207	208207
529.21	957.4	208411	208411
529.31	957.3	209052	209052
529.41	957.2	208468	208468
529.51	957.1	209192	209192
529.61	957	208962	208962
529.71	956.9	209774	209774
529.81	956.8	210059	210059
529.91	956.7	211177	211177
530.01	956.6	211497	211497
530.11	956.5	212165	212165
530.21	956.4	213277	213277
530.31	956.3	213788	213788
530.41	956.2	213671	213671
530.51	956.1	214908	214908
530.61	956	216748	216748
530.71	955.9	216396	216396
530.81	955.8	216599	216599
530.91	955.7	219073	219073
531.01	955.6	219464	219464
531.11	955.5	220070	220070
531.21	955.4	221188	221188
531.31	955.3	222530	222530
531.41	955.2	224154	224154
531.51	955.1	224828	224828
531.61	955	226026	226026
531.71	954.9	229885	229885
531.81	954.8	232786	232786
531.91	954.7	235022	235022
532.01	954.6	237921	237921
532.11	954.5	240775	240775
532.21	954.4	244543	244543
532.31	954.3	250031	250031
532.41	954.2	256589	256589
532.51	954.1	262734	262734
532.61	954	270065	270065
532.71	953.9	277288	277288
532.81	953.8	286566	286566
532.91	953.7	298798	298798
533.01	953.6	311994	311994
533.11	953.5	327633	327633
533.21	953.4	344538	344538
533.31	953.3	365945	365945
533.41	953.2	391592	391592
533.51	953.1	416277	416277
533.61	953	445216	445216
533.71	952.9	474660	474660
533.81	952.8	504087	504087
533.91	952.7	529370	529370
534.01	952.6	547866	547866
534.11	952.5	557595	557595
534.21	952.4	559126	559126
534.31	952.3	548508	548508
534.41	952.2	526972	526972
534.51	952.1	500039	500039
534.61	952	470255	470255
534.71	951.9	438255	438255
534.81	951.8	406754	406754
534.91	951.7	376120	376120
535.01	951.6	349279	349279
535.11	951.5	327325	327325
535.21	951.4	307845	307845
535.31	951.3	290086	290086
535.41	951.2	277868	277868
535.51	951.1	267357	267357
535.61	951	257171	257171
535.71	950.9	247708	247708
535.81	950.8	240554	240554
535.91	950.7	234763	234763
536.01	950.6	230528	230528
536.11	950.5	226464	226464
536.21	950.4	222670	222670
536.31	950.3	218901	218901
536.41	950.2	215384	215384
536.51	950.1	211844	211844
536.61	950	209512	209512
536.71	949.9	207614	207614
536.81	949.8	206313	206313
536.91	949.7	203953	203953
537.01	949.6	200958	200958
537.11	949.5	199535	199535
537.21	949.4	197274	197274
537.31	949.3	196245	196245
537.41	949.2	194899	194899
537.51	949.1	193497	193497
537.61	949	192862	192862
537.71	948.9	191517	191517
537.81	948.8	191881	191881
537.91	948.7	191161	191161
538.01	948.6	190689	190689
538.11	948.5	189775	189775
538.21	948.4	189047	189047
538.31	948.3	188847	188847
538.41	948.2	187919	187919
538.51	948.1	186887	186887
538.61	948	187479	187479
538.71	947.9	186737	186737
538.81	947.8	187540	187540
538.91	947.7	186947	186947
539.01	947.6	186706	186706
539.11	947.5	185494	185494
539.21	947.4	185989	185989
539.31	947.3	186452	186452
539.41	947.2	186128	186128
539.51	947.1	186200	186200
539.61	947	185856	185856
539.71	946.9	186198	186198
539.81	946.8	185712	185712
539.91	946.7	184727	184727
540.01	946.6	185116	185116
540.11	946.5	185735	185735
540.21	946.4	184545	184545
540.31	946.3	184879	184879
540.41	946.2	185547	185547
540.51	946.1	184198	184198
540.61	946	184586	184586
540.71	945.9	184128	184128
540.81	945.8	183918	183918
540.91	945.7	183967	183967
541.01	945.6	181821	181821
541.11	945.5	181117	181117
541.21	945.4	179706	179706
541.31	945.3	178945	178945
541.41	945.2	178034	178034
541.51	945.1	177039	177039
541.61	945	177371	177371
541.71	944.9	175842	175842
541.81	944.8	176290	176290
541.91	944.7	175960	175960
542.01	944.6	175700	175700
542.11	944.5	174350	174350
542.21	944.4	174100	174100
542.31	944.3	173341	173341
542.41	944.2	173756	173756
542.51	944.1	173104	173104
542.61	944	172610	172610
542.71	943.9	172777	172777
542.81	943.8	170814	170814
542.91	943.7	171017	171017
543.01	943.6	171595	171595
543.11	943.5	171843	171843
543.21	943.4	170137	170137
543.31	943.3	170778	170778
543.41	943.2	170419	170419
543.51	943.1	168788	168788
543.61	943	168097	168097
543.71	942.9	167045	167045
543.81	942.8	166500	166500
543.91	942.7	166241	166241
544.01	942.6	164620	164620
544.11	942.5	163825	163825
544.21	942.4	163391	163391
544.31	942.3	161635	161635
544.41	942.2	161559	161559
544.51	942.1	160787	160787
544.61	942	158917	158917
544.71	941.9	157579	157579
544.81	941.8	156862	156862
544.91	941.7	154372	154372
545.01	941.6	153881	153881
545.11	941.5	153262	153262
545.21	941.4	153187	153187
545.31	941.3	153024	153024
545.41	941.2	152610	152610
545.51	941.1	152438	152438
545.61	941	151500	151500
545.71	940.9	151882	151882
545.81	940.8	151720	151720
545.91	940.7	151128	151128
546.01	940.6	151241	151241
546.11	940.5	150479	150479
546.21	940.4	150942	150942
546.31	940.3	152077	152077
546.41	940.2	152669	152669
546.51	940.1	152168	152168
546.61	940	151245	151245
546.71	939.9	151732	151732
546.81	939.8	151466	151466
546.91	939.7	152408	152408
547.01	939.6	152749	152749
547.11	939.5	152610	152610
547.21	939.4	151709	151709
547.31	939.3	151163	151163
547.41	939.2	150409	150409
547.51	939.1	152080	152080
547.61	939	152151	152151
547.71	938.9	151160	151160
547.81	938.8	151166	151166
547.91	938.7	151808	151808
548.01	938.6	151486	151486
548.11	938.5	150571	150571
548.21	938.4	151315	151315
548.31	938.3	151258	151258
548.41	938.2	152167	152167
548.51	938.1	152082	152082
548.61	938	151629	151629
548.71	937.9	152618	152618
548.81	937.8	153384	153384
548.91	937.7	153751	153751
549.01	937.6	154909	154909
549.11	937.5	155738	155738
549.21	937.4	157168	157168
549.31	937.3	157064	157064
549.41	937.2	158518	158518
549.51	937.1	159188	159188
549.61	937	159213	159213
549.71	936.9	159809	159809
549.81	936.8	160181	160181
549.91	936.7	160444	160444
550.01	936.6	160533	160533
550.11	936.5	160763	160763
550.21	936.4	162085	162085
550.31	936.3	161335	161335
550.41	936.2	160807	160807
550.51	936.1	162429	162429
550.61	936	162346	162346
550.71	935.9	161582	161582
550.81	935.8	161647	161647
550.91	935.7	161692	161692
551.01	935.6	162769	162769
551.11	935.5	163348	163348
551.21	935.4	163795	163795
551.31	935.3	164665	164665
551.41	935.2	167350	167350
551.51	935.1	167411	167411
551.61	935	168197	168197
551.71	934.9	169879	169879
551.81	934.8	171954	171954
551.91	934.7	175213	175213
552.01	934.6	178710	178710
552.11	934.5	183899	183899
552.21	934.4	189559	189559
552.31	934.3	196866	196866
552.41	934.2	205243	205243
552.51	934.1	216303	216303
552.61	934	229232	229232
552.71	933.9	246258	246258
552.81	933.8	266892	266892
552.91	933.7	295129	295129
553.01	933.6	332194	332194
553.11	933.5	380765	380765
553.21	933.4	447204	447204
553.31	933.3	533775	533775
553.41	933.2	648111	648111
553.51	933.1	784204	784204
553.61	933	935733	935733
553.71	932.9	1.08329e+006	1.08329e+006
553.81	932.8	1.20302e+006	1.20302e+006
553.91	932.7	1.27273e+006	1.27273e+006
554.01	932.6	1.27683e+006	1.27683e+006
554.11	932.5	1.21304e+006	1.21304e+006
554.21	932.4	1.09671e+006	1.09671e+006
554.31	932.3	948372	948372
554.41	932.2	792672	792672
554.51	932.1	652726	652726
554.61	932	535805	535805
554.71	931.9	443440	443440
554.81	931.8	370042	370042
554.91	931.7	314296	314296
555.01	931.6	272086	272086
555.11	931.5	239272	239272
555.21	931.4	215575	215575
555.31	931.3	197641	197641
555.41	931.2	182722	182722
555.51	931.1	170760	170760
555.61	931	161976	161976
555.71	930.9	154772	154772
555.81	930.8	147604	147604
555.91	930.7	141995	141995
556.01	930.6	137082	137082
556.11	930.5	133711	133711
556.21	930.4	130372	130372
556.31	930.3	127870	127870
556.41	930.2	124566	124566
556.51	930.1	121888	121888
556.61	930	120287	120287
556.71	929.9	118303	118303
556.81	929.8	117069	117069
556.91	929.7	115437	115437
557.01	929.6	113347	113347
557.11	929.5	112754	112754
557.21	929.4	112508	112508
557.31	929.3	110579	110579
557.41	929.2	109499	109499
557.51	929.1	108367	108367
557.61	929	107493	107493
557.71	928.9	106222	106222
557.81	928.8	105547	105547
557.91	928.7	105296	105296
558.01	928.6	105887	105887
558.11	928.5	105222	105222
558.21	928.4	104787	104787
558.31	928.3	104207	104207
558.41	928.2	102969	102969
558.51	928.1	102228	102228
558.61	928	102102	102102
558.71	927.9	102230	102230
558.81	927.8	101890	101890
558.91	927.7	101817	101817
559.01	927.6	101275	101275
559.11	927.5	100993	100993
559.21	927.4	101166	101166
559.31	927.3	100345	100345
559.41	927.2	99206.3	99206.3
559.51	927.1	99461.6	99461.6
559.61	927	99901.4	99901.4
559.71	926.9	99597.4	99597.4
559.81	926.8	100245	100245
559.91	926.7	99825	99825
560.01	926.6	98480	98480
560.11	926.5	98796.6	98796.6
560.21	926.4	98748.4	98748.4
560.31	926.3	99106.9	99106.9
560.41	926.2	98470.2	98470.2
560.51	926.1	98551.4	98551.4
560.61	926	98279.9	98279.9
560.71	925.9	97249.4	97249.4
560.81	925.8	97260.9	97260.9
560.91	925.7	97199.7	97199.7
561.01	925.6	97726.9	97726.9
561.11	925.5	97583.6	97583.6
561.21	925.4	97357.1	97357.1
561.31	925.3	97124.4	97124.4
561.41	925.2	97691.4	97691.4
561.51	925.1	97676.3	97676.3
561.61	925	97061.1	97061.1
561.71	924.9	97007.4	97007.4
561.81	924.8	96238.3	96238.3
561.91	924.7	96729.1	96729.1
562.01	924.6	96648.4	96648.4
562.11	924.5	96464.1	96464.1
562.21	924.4	96347.4	96347.4
562.31	924.3	96824.2	96824.2
562.41	924.2	96607.7	96607.7
562.51	924.1	96572.6	96572.6
562.61	924	96981.2	96981.2
562.71	923.9	96625.1	96625.1
562.81	923.8	96167	96167
562.91	923.7	96143.3	96143.3
563.01	923.6	96055.9	96055.9
563.11	923.5	96756.7	96756.7
563.21	923.4	96408.7	96408.7
563.31	923.3	96309.3	96309.3
563.41	923.2	96514.7	96514.7
563.51	923.1	96396.8	96396.8
563.61	923	96443.5	96443.5
563.71	922.9	96211.4	96211.4
563.81	922.8	96527.9	96527.9
563.91	922.7	97110.3	97110.3
564.01	922.6	96737.5	96737.5
564.11	922.5	96454.9	96454.9
564.21	922.4	96278.1	96278.1
564.31	922.3	95284.6	95284.6
564.41	922.2	96197.5	96197.5
564.51	922.1	96193.2	96193.2
564.61	922	96283.3	96283.3
564.71	921.9	96482.2	96482.2
564.81	921.8	96805.1	96805.1
564.91	921.7	96164.7	96164.7
565.01	921.6	96254.2	96254.2
565.11	921.5	96090.9	96090.9
565.21	921.4	96233.9	96233.9
565.31	921.3	96195.7	96195.7
565.41	921.2	95654	95654
565.51	921.1	96035.1	96035.1
565.61	921	95856.7	95856.7
565.71	920.9	95944.2	95944.2
565.81	920.8	95387.8	95387.8
565.91	920.7	95731	95731
566.01	920.6	95795.1	95795.1
566.11	920.5	95892.8	95892.8
566.21	920.4	96013.4	96013.4
566.31	920.3	95740.2	95740.2
566.41	920.2	95972.5	95972.5
566.51	920.1	95926.6	95926.6
566.61	920	95877.6	95877.6