C:\Users\Mark\ownCloud\Muelheim Group\Projects\Gas phase background\EX320_CEC356_Cu in He.vms
Survey TF corrected
	Characteristic Energy eV	1486.61	Acquisition Time s	0.1
KE_Survey TF corrected	BE_Survey TF corrected	CPS_Survey TF corrected	Background_Survey TF corrected
295.61	1191	13120.6	13120.6
296.11	1190.5	13556.4	13556.4
296.61	1190	13475.4	13475.4
297.11	1189.5	13476	13476
297.61	1189	12896.7	12896.7
298.11	1188.5	13401.6	13401.6
298.61	1188	13646.9	13646.9
299.11	1187.5	13298.7	13298.7
299.61	1187	12464.5	12464.5
300.11	1186.5	12786.5	12786.5
300.61	1186	12704.7	12704.7
301.11	1185.5	12431.9	12431.9
301.61	1185	12897.1	12897.1
302.11	1184.5	12785.6	12785.6
302.61	1184	12741	12741
303.11	1183.5	12590.6	12590.6
303.61	1183	12779.8	12779.8
304.11	1182.5	12499.5	12499.5
304.61	1182	12510	12510
305.11	1181.5	13294	13294
305.61	1181	13043	13043
306.11	1180.5	12704.9	12704.9
306.61	1180	12725.1	12725.1
307.11	1179.5	12656.3	12656.3
307.61	1179	11946.6	11946.6
308.11	1178.5	12010.2	12010.2
308.61	1178	12202.5	12202.5
309.11	1177.5	12173.4	12173.4
309.61	1177	12080.5	12080.5
310.11	1176.5	12254.8	12254.8
310.61	1176	12216.5	12216.5
311.11	1175.5	12390.4	12390.4
311.61	1175	12310.3	12310.3
312.11	1174.5	12675.3	12675.3
312.61	1174	12517.2	12517.2
313.11	1173.5	12081	12081
313.61	1173	12327	12327
314.11	1172.5	12731.9	12731.9
314.61	1172	11913	11913
315.11	1171.5	12287.5	12287.5
315.61	1171	12248.4	12248.4
316.11	1170.5	12328.5	12328.5
316.61	1170	12147.7	12147.7
317.11	1169.5	11932.5	11932.5
317.61	1169	12070.7	12070.7
318.11	1168.5	12598.9	12598.9
318.61	1168	12722	12722
319.11	1167.5	12359.4	12359.4
319.61	1167	11749.4	11749.4
320.11	1166.5	12411.4	12411.4
320.61	1166	12151.5	12151.5
321.11	1165.5	11733	11733
321.61	1165	12219	12219
322.11	1164.5	12879	12879
322.61	1164	12494.5	12494.5
323.11	1163.5	12177.1	12177.1
323.61	1163	12614.9	12614.9
324.11	1162.5	12585.9	12585.9
324.61	1162	12150.2	12150.2
325.11	1161.5	12475.4	12475.4
325.61	1161	12748.8	12748.8
326.11	1160.5	13284.9	13284.9
326.61	1160	12032	12032
327.11	1159.5	12365.5	12365.5
327.61	1159	13108.7	13108.7
328.11	1158.5	13229.5	13229.5
328.61	1158	12320.7	12320.7
329.11	1157.5	12156.9	12156.9
329.61	1157	11758.4	11758.4
330.11	1156.5	12568.1	12568.1
330.61	1156	12754.7	12754.7
331.11	1155.5	12361.8	12361.8
331.61	1155	12178.9	12178.9
332.11	1154.5	12585.5	12585.5
332.61	1154	12008.8	12008.8
333.11	1153.5	12420.3	12420.3
333.61	1153	12810.4	12810.4
334.11	1152.5	12456.5	12456.5
334.61	1152	12536.5	12536.5
335.11	1151.5	12814	12814
335.61	1151	12423.2	12423.2
336.11	1150.5	12983.5	12983.5
336.61	1150	12808.2	12808.2
337.11	1149.5	12855.1	12855.1
337.61	1149	12489.3	12489.3
338.11	1148.5	12268.1	12268.1
338.61	1148	12606.8	12606.8
339.11	1147.5	11979.5	11979.5
339.61	1147	12651.4	12651.4
340.11	1146.5	12418.9	12418.9
340.61	1146	12340.4	12340.4
341.11	1145.5	12854.6	12854.6
341.61	1145	13540.7	13540.7
342.11	1144.5	13004.2	13004.2
342.61	1144	13166.8	13166.8
343.11	1143.5	13147.4	13147.4
343.61	1143	13491.3	13491.3
344.11	1142.5	12812.4	12812.4
344.61	1142	13105.9	13105.9
345.11	1141.5	13216.8	13216.8
345.61	1141	13434.5	13434.5
346.11	1140.5	13469.8	13469.8
346.61	1140	12913.1	12913.1
347.11	1139.5	13443.2	13443.2
347.61	1139	13368.9	13368.9
348.11	1138.5	13106.4	13106.4
348.61	1138	12989.3	12989.3
349.11	1137.5	13374.5	13374.5
349.61	1137	13888.3	13888.3
350.11	1136.5	13175.2	13175.2
350.61	1136	13401.9	13401.9
351.11	1135.5	13490.6	13490.6
351.61	1135	13543.5	13543.5
352.11	1134.5	13148.6	13148.6
352.61	1134	13151.1	13151.1
353.11	1133.5	13275.3	13275.3
353.61	1133	13303.3	13303.3
354.11	1132.5	13794.1	13794.1
354.61	1132	13455.8	13455.8
355.11	1131.5	13310	13310
355.61	1131	13781.2	13781.2
356.11	1130.5	14393.4	14393.4
356.61	1130	14253.9	14253.9
357.11	1129.5	13811	13811
357.61	1129	14056.3	14056.3
358.11	1128.5	14430.8	14430.8
358.61	1128	13888.9	13888.9
359.11	1127.5	14126.3	14126.3
359.61	1127	14439.5	14439.5
360.11	1126.5	13808.6	13808.6
360.61	1126	14130.3	14130.3
361.11	1125.5	14412	14412
361.61	1125	14483.2	14483.2
362.11	1124.5	14490.8	14490.8
362.61	1124	14951.5	14951.5
363.11	1123.5	14369.1	14369.1
363.61	1123	14557	14557
364.11	1122.5	15354.3	15354.3
364.61	1122	15289.9	15289.9
365.11	1121.5	15418.5	15418.5
365.61	1121	15025.5	15025.5
366.11	1120.5	16129.4	16129.4
366.61	1120	15648.2	15648.2
367.11	1119.5	14771.3	14771.3
367.61	1119	14777.9	14777.9
368.11	1118.5	15494.6	15494.6
368.61	1118	14815.1	14815.1
369.11	1117.5	15126.1	15126.1
369.61	1117	14908.3	14908.3
370.11	1116.5	15060	15060
370.61	1116	15100	15100
371.11	1115.5	14950.6	14950.6
371.61	1115	14954.8	14954.8
372.11	1114.5	14098.1	14098.1
372.61	1114	14639.1	14639.1
373.11	1113.5	13918.2	13918.2
373.61	1113	13573.4	13573.4
374.11	1112.5	14500.7	14500.7
374.61	1112	13864.8	13864.8
375.11	1111.5	13367.6	13367.6
375.61	1111	13418.3	13418.3
376.11	1110.5	13543	13543
376.61	1110	12740.5	12740.5
377.11	1109.5	12971.5	12971.5
377.61	1109	12484.1	12484.1
378.11	1108.5	13461	13461
378.61	1108	13393.9	13393.9
379.11	1107.5	12708	12708
379.61	1107	12683.8	12683.8
380.11	1106.5	12739.1	12739.1
380.61	1106	12444	12444
381.11	1105.5	12649.4	12649.4
381.61	1105	12421.2	12421.2
382.11	1104.5	12529.1	12529.1
382.61	1104	13089.9	13089.9
383.11	1103.5	13098.4	13098.4
383.61	1103	13712.6	13712.6
384.11	1102.5	14897.9	14897.9
384.61	1102	15098.8	15098.8
385.11	1101.5	16102.6	16102.6
385.61	1101	16450.1	16450.1
386.11	1100.5	18037.9	18037.9
386.61	1100	19688.3	19688.3
387.11	1099.5	21134.8	21134.8
387.61	1099	23243.9	23243.9
388.11	1098.5	26047.4	26047.4
388.61	1098	27689.7	27689.7
389.11	1097.5	29506.1	29506.1
389.61	1097	30476.7	30476.7
390.11	1096.5	29724.2	29724.2
390.61	1096	29146.6	29146.6
391.11	1095.5	27163.6	27163.6
391.61	1095	24869.5	24869.5
392.11	1094.5	22290.9	22290.9
392.61	1094	19779.7	19779.7
393.11	1093.5	16870.4	16870.4
393.61	1093	13951.5	13951.5
394.11	1092.5	11740.7	11740.7
394.61	1092	10099.5	10099.5
395.11	1091.5	8615.79	8615.79
395.61	1091	8499.57	8499.57
396.11	1090.5	6920.68	6920.68
396.61	1090	5660.24	5660.24
397.11	1089.5	5121.28	5121.28
397.61	1089	4496.17	4496.17
398.11	1088.5	3211.61	3211.61
398.61	1088	3097.08	3097.08
399.11	1087.5	3209.24	3209.24
399.61	1087	3174.17	3174.17
400.11	1086.5	2469.13	2469.13
400.61	1086	2499.28	2499.28
401.11	1085.5	1907.38	1907.38
401.61	1085	1813.6	1813.6
402.11	1084.5	1184.62	1184.62
402.61	1084	992.836	992.836
403.11	1083.5	1018.78	1018.78
403.61	1083	1497.45	1497.45
404.11	1082.5	463.675	463.675
404.61	1082	649.175	649.175
405.11	1081.5	317.327	317.327
405.61	1081	99.3388	99.3388