C:\Users\Mark\ownCloud\Muelheim Group\Projects\Gas phase background\EX320_CEC356_Cu in He.vms
Survey TF corrected
	Characteristic Energy eV	1486.61	Acquisition Time s	0.1
KE_Survey TF corrected	BE_Survey TF corrected	CPS_Survey TF corrected	Background_Survey TF corrected
874.11	612.5	80078	80078
874.61	612	79517.6	79517.6
875.11	611.5	79858.8	79858.8
875.61	611	80086.2	80086.2
876.11	610.5	80387.6	80387.6
876.61	610	81325.1	81325.1
877.11	609.5	80889	80889
877.61	609	80795.1	80795.1
878.11	608.5	81013.1	81013.1
878.61	608	81763.4	81763.4
879.11	607.5	81905.9	81905.9
879.61	607	81702.2	81702.2
880.11	606.5	82048.1	82048.1
880.61	606	82131.3	82131.3
881.11	605.5	82509.4	82509.4
881.61	605	82443.8	82443.8
882.11	604.5	83573.4	83573.4
882.61	604	83929.7	83929.7
883.11	603.5	84455.9	84455.9
883.61	603	83949.5	83949.5
884.11	602.5	84552.2	84552.2
884.61	602	85128.6	85128.6
885.11	601.5	85228.6	85228.6
885.61	601	86200.7	86200.7
886.11	600.5	86601.1	86601.1
886.61	600	86574.3	86574.3
887.11	599.5	86928.1	86928.1
887.61	599	87375	87375
888.11	598.5	87898.5	87898.5
888.61	598	88815.4	88815.4
889.11	597.5	88659.9	88659.9
889.61	597	88668.6	88668.6
890.11	596.5	90540.6	90540.6
890.61	596	90849.6	90849.6
891.11	595.5	91057.7	91057.7
891.61	595	91213	91213
892.11	594.5	91598.6	91598.6
892.61	594	91227	91227
893.11	593.5	92094.8	92094.8
893.61	593	92040.8	92040.8
894.11	592.5	92767.9	92767.9
894.61	592	92919.1	92919.1
895.11	591.5	92205.9	92205.9
895.61	591	92304.4	92304.4
896.11	590.5	91852	91852
896.61	590	92698.6	92698.6
897.11	589.5	93232	93232
897.61	589	93474.5	93474.5
898.11	588.5	92721.2	92721.2
898.61	588	91146.8	91146.8
899.11	587.5	89233.9	89233.9
899.61	587	87177.3	87177.3
900.11	586.5	88247.1	88247.1
900.61	586	87461.8	87461.8
901.11	585.5	86763.3	86763.3
901.61	585	86220.2	86220.2
902.11	584.5	85880.2	85880.2
902.61	584	85610.3	85610.3
903.11	583.5	86049.4	86049.4
903.61	583	86338.3	86338.3
904.11	582.5	86638.3	86638.3
904.61	582	86232.3	86232.3
905.11	581.5	87290.7	87290.7
905.61	581	88081.9	88081.9
906.11	580.5	89175.4	89175.4
906.61	580	90467	90467
907.11	579.5	91513.5	91513.5
907.61	579	91794.6	91794.6
908.11	578.5	93577.2	93577.2
908.61	578	94169.9	94169.9
909.11	577.5	96076.7	96076.7
909.61	577	97988	97988
910.11	576.5	98849.7	98849.7
910.61	576	99936.1	99936.1
911.11	575.5	101393	101393
911.61	575	104602	104602
912.11	574.5	107605	107605
912.61	574	111368	111368
913.11	573.5	116465	116465
913.61	573	121900	121900
914.11	572.5	125890	125890
914.61	572	127691	127691
915.11	571.5	129368	129368
915.61	571	131528	131528
916.11	570.5	133757	133757
916.61	570	139865	139865
917.11	569.5	150742	150742
917.61	569	168343	168343
918.11	568.5	189961	189961
918.61	568	201977	201977
919.11	567.5	193802	193802
919.61	567	170814	170814
920.11	566.5	139913	139913
920.61	566	117730	117730
921.11	565.5	105016	105016
921.61	565	95207.8	95207.8
922.11	564.5	85089.3	85089.3
922.61	564	74085.9	74085.9
923.11	563.5	63726.1	63726.1
923.61	563	57891.3	57891.3
924.11	562.5	55247.3	55247.3
924.61	562	53907.3	53907.3
925.11	561.5	52773	52773
925.61	561	51557.3	51557.3
926.11	560.5	51337.7	51337.7
926.61	560	50639.2	50639.2
927.11	559.5	49226.8	49226.8
927.61	559	48105.1	48105.1
928.11	558.5	47209.2	47209.2
928.61	558	46107.4	46107.4
929.11	557.5	45349	45349
929.61	557	44291.4	44291.4
930.11	556.5	43092.6	43092.6
930.61	556	42128.9	42128.9
931.11	555.5	41820.3	41820.3
931.61	555	41296	41296
932.11	554.5	41964.8	41964.8
932.61	554	42560.3	42560.3
933.11	553.5	43204.7	43204.7
933.61	553	44304.2	44304.2
934.11	552.5	45867.1	45867.1
934.61	552	45766.1	45766.1
935.11	551.5	45578.9	45578.9
935.61	551	43699.4	43699.4
936.11	550.5	41812.4	41812.4
936.61	550	41698.3	41698.3
937.11	549.5	42075.3	42075.3
937.61	549	45124.3	45124.3
938.11	548.5	48067.5	48067.5
938.61	548	49129.2	49129.2
939.11	547.5	47932.7	47932.7
939.61	547	43246	43246
940.11	546.5	38525.2	38525.2
940.61	546	34044.2	34044.2
941.11	545.5	30839.1	30839.1
941.61	545	28507.2	28507.2
942.11	544.5	26875.6	26875.6
942.61	544	25081	25081
943.11	543.5	23814.1	23814.1
943.61	543	22608.2	22608.2
944.11	542.5	22378.8	22378.8
944.61	542	21877	21877
945.11	541.5	21277.8	21277.8
945.61	541	21226.6	21226.6
946.11	540.5	21233.6	21233.6
946.61	540	20874.8	20874.8
947.11	539.5	20458.9	20458.9
947.61	539	19738.7	19738.7
948.11	538.5	19462.8	19462.8
948.61	538	19239.6	19239.6
949.11	537.5	19209.8	19209.8
949.61	537	19211.7	19211.7
950.11	536.5	18840.3	18840.3
950.61	536	19010.9	19010.9
951.11	535.5	18737.6	18737.6
951.61	535	18871.5	18871.5
952.11	534.5	18710.6	18710.6
952.61	534	18519.4	18519.4
953.11	533.5	18863.4	18863.4
953.61	533	20098	20098
954.11	532.5	21975.5	21975.5
954.61	532	23786.6	23786.6
955.11	531.5	25494	25494
955.61	531	25888.3	25888.3
956.11	530.5	23630.4	23630.4
956.61	530	20341.3	20341.3
957.11	529.5	18382.8	18382.8
957.61	529	17583	17583
958.11	528.5	17234.3	17234.3
958.61	528	17345.9	17345.9
959.11	527.5	17241.3	17241.3
959.61	527	16853.2	16853.2
960.11	526.5	17202.3	17202.3
960.61	526	16686.9	16686.9
961.11	525.5	16537.3	16537.3
961.61	525	16727.5	16727.5
962.11	524.5	16543.4	16543.4
962.61	524	17008.8	17008.8
963.11	523.5	16824.5	16824.5
963.61	523	16623.2	16623.2
964.11	522.5	16728	16728
964.61	522	17049.9	17049.9
965.11	521.5	16995	16995
965.61	521	16546.8	16546.8
966.11	520.5	16587.4	16587.4
966.61	520	16728.4	16728.4
967.11	519.5	17020.3	17020.3
967.61	519	16873.5	16873.5
968.11	518.5	16510.4	16510.4
968.61	518	16529.1	16529.1
969.11	517.5	16342	16342
969.61	517	16704.5	16704.5
970.11	516.5	16626.3	16626.3
970.61	516	16384.6	16384.6
971.11	515.5	16625.2	16625.2
971.61	515	16521	16521
972.11	514.5	16415.5	16415.5
972.61	514	16249.2	16249.2
973.11	513.5	16400.1	16400.1
973.61	513	16590.1	16590.1
974.11	512.5	16346.6	16346.6
974.61	512	16437.6	16437.6
975.11	511.5	16687.8	16687.8
975.61	511	16318.6	16318.6
976.11	510.5	16479	16479
976.61	510	16601.4	16601.4
977.11	509.5	16468.7	16468.7
977.61	509	16373	16373
978.11	508.5	16641.2	16641.2
978.61	508	16512.4	16512.4
979.11	507.5	16747.8	16747.8
979.61	507	16581.5	16581.5
980.11	506.5	16866.9	16866.9
980.61	506	16809.8	16809.8
981.11	505.5	16403.6	16403.6
981.61	505	16530.8	16530.8
982.11	504.5	16709.5	16709.5
982.61	504	16571.8	16571.8
983.11	503.5	16322	16322
983.61	503	16569.7	16569.7
984.11	502.5	16408.8	16408.8
984.61	502	16571	16571
985.11	501.5	16694.3	16694.3
985.61	501	16362.7	16362.7
986.11	500.5	16393.1	16393.1
986.61	500	16357.3	16357.3
987.11	499.5	16299	16299
987.61	499	16568.1	16568.1
988.11	498.5	16306.7	16306.7
988.61	498	16658.8	16658.8
989.11	497.5	16729.3	16729.3
989.61	497	16646.6	16646.6
990.11	496.5	16749.6	16749.6
990.61	496	16596.4	16596.4
991.11	495.5	16941.7	16941.7
991.61	495	16693	16693
992.11	494.5	16790.7	16790.7
992.61	494	16873	16873
993.11	493.5	16884.8	16884.8
993.61	493	16701.7	16701.7
994.11	492.5	16644.4	16644.4
994.61	492	16638.5	16638.5
995.11	491.5	16621.3	16621.3
995.61	491	16857.5	16857.5