C:\Users\Mark\ownCloud\Muelheim Group\Projects\Gas phase background\EX322_CEC356_Au_Ag_Cu in H2_1.vms.vms
Ag3d
	Characteristic Energy eV	1486.61	Acquisition Time s	0.9
KE_Ag3d	BE_Ag3d	CPS_Ag3d
1036.61	450	9893.01
1036.71	449.9	9838.76
1036.81	449.8	9879.86
1036.91	449.7	9880.86
1037.01	449.6	9869.1
1037.11	449.5	9901.48
1037.21	449.4	9879.27
1037.31	449.3	9840.54
1037.41	449.2	9902.87
1037.51	449.1	9967.82
1037.61	449	9980.61
1037.71	448.9	9839.57
1037.81	448.8	9815.07
1037.91	448.7	9893.14
1038.01	448.6	9915.7
1038.11	448.5	9844.36
1038.21	448.4	9863.08
1038.31	448.3	9862.5
1038.41	448.2	9870.43
1038.51	448.1	9832.2
1038.61	448	9800.15
1038.71	447.9	9910.57
1038.81	447.8	9922.26
1038.91	447.7	9926
1039.01	447.6	9863.55
1039.11	447.5	9865.45
1039.21	447.4	9865.43
1039.31	447.3	9841.52
1039.41	447.2	9887.77
1039.51	447.1	9852.47
1039.61	447	9836.46
1039.71	446.9	9898.42
1039.81	446.8	9891.43
1039.91	446.7	9840.73
1040.01	446.6	9807.25
1040.11	446.5	9816.27
1040.21	446.4	9866.87
1040.31	446.3	9899
1040.41	446.2	9906.27
1040.51	446.1	9892.73
1040.61	446	9845.59
1040.71	445.9	9864.52
1040.81	445.8	9919.12
1040.91	445.7	9889.17
1041.01	445.6	9902.03
1041.11	445.5	9917.27
1041.21	445.4	9936.74
1041.31	445.3	9900.36
1041.41	445.2	9830.43
1041.51	445.1	9885.01
1041.61	445	9873.81
1041.71	444.9	9917.84
1041.81	444.8	9846.34
1041.91	444.7	9826.18
1042.01	444.6	9817.54
1042.11	444.5	9894.37
1042.21	444.4	9907.64
1042.31	444.3	9911.5
1042.41	444.2	9882.21
1042.51	444.1	9857.41
1042.61	444	9790.59
1042.71	443.9	9840.14
1042.81	443.8	9884.87
1042.91	443.7	9909.05
1043.01	443.6	9884.4
1043.11	443.5	9845.37
1043.21	443.4	9926.08
1043.31	443.3	9840.12
1043.41	443.2	9899.33
1043.51	443.1	9952.08
1043.61	443	9974.77
1043.71	442.9	9904.5
1043.81	442.8	9902.79
1043.91	442.7	9885.14
1044.01	442.6	9828.37
1044.11	442.5	9834.59
1044.21	442.4	9895.42
1044.31	442.3	9946.22
1044.41	442.2	9904.64
1044.51	442.1	9903.75
1044.61	442	9944.25
1044.71	441.9	9926.89
1044.81	441.8	9938.75
1044.91	441.7	9908.35
1045.01	441.6	9912.98
1045.11	441.5	9966.9
1045.21	441.4	9856.4
1045.31	441.3	9903.29
1045.41	441.2	9865.53
1045.51	441.1	9940.78
1045.61	441	9933.63
1045.71	440.9	9887.54
1045.81	440.8	9865.28
1045.91	440.7	9729.57
1046.01	440.6	9843.61
1046.11	440.5	9975.57
1046.21	440.4	9972.61
1046.31	440.3	9840.52
1046.41	440.2	9880.96
1046.51	440.1	9946.06
1046.61	440	9893.21
1046.71	439.9	9893.92
1046.81	439.8	9878.18
1046.91	439.7	9903.09
1047.01	439.6	9926.63
1047.11	439.5	9895.02
1047.21	439.4	9826.28
1047.31	439.3	9862.17
1047.41	439.2	9869.23
1047.51	439.1	9830.89
1047.61	439	9874.25
1047.71	438.9	9941
1047.81	438.8	9948.48
1047.91	438.7	9966.81
1048.01	438.6	9911.42
1048.11	438.5	9917.02
1048.21	438.4	9870.11
1048.31	438.3	9897.21
1048.41	438.2	9915.87
1048.51	438.1	9855.75
1048.61	438	9934.22
1048.71	437.9	9912.21
1048.81	437.8	9946.41
1048.91	437.7	9889.87
1049.01	437.6	9935.17
1049.11	437.5	9898.28
1049.21	437.4	9903.96
1049.31	437.3	9939.33
1049.41	437.2	9943.66
1049.51	437.1	9981.95
1049.61	437	9886.76
1049.71	436.9	9904
1049.81	436.8	9945.57
1049.91	436.7	9828.9
1050.01	436.6	9904.44
1050.11	436.5	9866.74
1050.21	436.4	9871.49
1050.31	436.3	10010.3
1050.41	436.2	9932.5
1050.51	436.1	9945.77
1050.61	436	9995.48
1050.71	435.9	9901.77
1050.81	435.8	9913.83
1050.91	435.7	9851.26
1051.01	435.6	9959.82
1051.11	435.5	9979.51
1051.21	435.4	9944
1051.31	435.3	9933.68
1051.41	435.2	9884.28
1051.51	435.1	9865.67
1051.61	435	9882.04
1051.71	434.9	9863.63
1051.81	434.8	9890.63
1051.91	434.7	9895.71
1052.01	434.6	9964.08
1052.11	434.5	9872.43
1052.21	434.4	9939.44
1052.31	434.3	9880.59
1052.41	434.2	9928.97
1052.51	434.1	9934.18
1052.61	434	9924.91
1052.71	433.9	9845.44
1052.81	433.8	9913.43
1052.91	433.7	9844.11
1053.01	433.6	9899.92
1053.11	433.5	9932.3
1053.21	433.4	9966.66
1053.31	433.3	9974.11
1053.41	433.2	9923.36
1053.51	433.1	9907.98
1053.61	433	9976.93
1053.71	432.9	9965.61
1053.81	432.8	9906.63
1053.91	432.7	9978
1054.01	432.6	9910.03
1054.11	432.5	9944.21
1054.21	432.4	9937.24
1054.31	432.3	9978.25
1054.41	432.2	9943.46
1054.51	432.1	9970.29
1054.61	432	9923.61
1054.71	431.9	9923.23
1054.81	431.8	9972.11
1054.91	431.7	9972.9
1055.01	431.6	9953.99
1055.11	431.5	9925.87
1055.21	431.4	9935.58
1055.31	431.3	9974.8
1055.41	431.2	9990.19
1055.51	431.1	9980.96
1055.61	431	9940.3
1055.71	430.9	9965.05
1055.81	430.8	10005.2
1055.91	430.7	9975.48
1056.01	430.6	9968.3
1056.11	430.5	10003.9
1056.21	430.4	10020.3
1056.31	430.3	9949.41
1056.41	430.2	9905.04
1056.51	430.1	9926.61
1056.61	430	10030.4
1056.71	429.9	9904.38
1056.81	429.8	9964.18
1056.91	429.7	9970.72
1057.01	429.6	9947.96
1057.11	429.5	10020.1
1057.21	429.4	9953.72
1057.31	429.3	9932.03
1057.41	429.2	9919.15
1057.51	429.1	9997.36
1057.61	429	9983.05
1057.71	428.9	9964.73
1057.81	428.8	10003.1
1057.91	428.7	9964.61
1058.01	428.6	10031.1
1058.11	428.5	10017.5
1058.21	428.4	9984.27
1058.31	428.3	10074.2
1058.41	428.2	10013.2
1058.51	428.1	10007.5
1058.61	428	10080.3
1058.71	427.9	10039.7
1058.81	427.8	10065.3
1058.91	427.7	10045.2
1059.01	427.6	10010.7
1059.11	427.5	10062.1
1059.21	427.4	9953.54
1059.31	427.3	9949.87
1059.41	427.2	10000.3
1059.51	427.1	10068.1
1059.61	427	10047.4
1059.71	426.9	10022
1059.81	426.8	9985.03
1059.91	426.7	9992.27
1060.01	426.6	10015.2
1060.11	426.5	10060.8
1060.21	426.4	9952.17
1060.31	426.3	10017.7
1060.41	426.2	10047.4
1060.51	426.1	10022.2
1060.61	426	9994.08
1060.71	425.9	9991.59
1060.81	425.8	10056.3
1060.91	425.7	10080.5
1061.01	425.6	10149.4
1061.11	425.5	10175.3
1061.21	425.4	10084.8
1061.31	425.3	10098.1
1061.41	425.2	10067.2
1061.51	425.1	10067.1
1061.61	425	10029.1
1061.71	424.9	10089.8
1061.81	424.8	10116
1061.91	424.7	10108.3
1062.01	424.6	10070.9
1062.11	424.5	10163.4
1062.21	424.4	10111.5
1062.31	424.3	10132.5
1062.41	424.2	10099.4
1062.51	424.1	10109.8
1062.61	424	10119.9
1062.71	423.9	10168.3
1062.81	423.8	10156.9
1062.91	423.7	10118.5
1063.01	423.6	10128.1
1063.11	423.5	10142.2
1063.21	423.4	10146
1063.31	423.3	10170.7
1063.41	423.2	10112.2
1063.51	423.1	10117
1063.61	423	10114.9
1063.71	422.9	10029.7
1063.81	422.8	10132.9
1063.91	422.7	10175.8
1064.01	422.6	10135.1
1064.11	422.5	10114.7
1064.21	422.4	10098.5
1064.31	422.3	10126
1064.41	422.2	10070.1
1064.51	422.1	10128.1
1064.61	422	10132.6
1064.71	421.9	10168.6
1064.81	421.8	10123.4
1064.91	421.7	10119.1
1065.01	421.6	10125.7
1065.11	421.5	10156.4
1065.21	421.4	10152.8
1065.31	421.3	10098.8
1065.41	421.2	10064.1
1065.51	421.1	10082.3
1065.61	421	10120.9
1065.71	420.9	10136.3
1065.81	420.8	10082.5
1065.91	420.7	10051.8
1066.01	420.6	10070.6
1066.11	420.5	10070.8
1066.21	420.4	10057.8
1066.31	420.3	10003.4
1066.41	420.2	10078.7
1066.51	420.1	10076.4
1066.61	420	9993.85
1066.71	419.9	10076.3
1066.81	419.8	10069.2
1066.91	419.7	10075.8
1067.01	419.6	10114.9
1067.11	419.5	10129.4
1067.21	419.4	10028.8
1067.31	419.3	10012.2
1067.41	419.2	10072.1
1067.51	419.1	10020.9
1067.61	419	10103.2
1067.71	418.9	10123.9
1067.81	418.8	10096
1067.91	418.7	10082.6
1068.01	418.6	10028.5
1068.11	418.5	10041.8
1068.21	418.4	9984.87
1068.31	418.3	9986.01
1068.41	418.2	10068.7
1068.51	418.1	10081.5
1068.61	418	10173.6
1068.71	417.9	10045.1
1068.81	417.8	10054.1
1068.91	417.7	9968.06
1069.01	417.6	10031.5
1069.11	417.5	10082.9
1069.21	417.4	10072.9
1069.31	417.3	10094.4
1069.41	417.2	10029.1
1069.51	417.1	10021.2
1069.61	417	10099.9
1069.71	416.9	10146.5
1069.81	416.8	10187.7
1069.91	416.7	10141.7
1070.01	416.6	10081.5
1070.11	416.5	10052.7
1070.21	416.4	10108.4
1070.31	416.3	10184.7
1070.41	416.2	10167
1070.51	416.1	10077.7
1070.61	416	10047.4
1070.71	415.9	10064
1070.81	415.8	10018
1070.91	415.7	10059.8
1071.01	415.6	10105.6
1071.11	415.5	10135.2
1071.21	415.4	10233.4
1071.31	415.3	10125.7
1071.41	415.2	10123.6
1071.51	415.1	10147.1
1071.61	415	10133.3
1071.71	414.9	10198.3
1071.81	414.8	10256.4
1071.91	414.7	10126.1
1072.01	414.6	10108.5
1072.11	414.5	10136.4
1072.21	414.4	10171.3
1072.31	414.3	10059.3
1072.41	414.2	10136.1
1072.51	414.1	10117.7
1072.61	414	10146.6
1072.71	413.9	10163.2
1072.81	413.8	10157.8
1072.91	413.7	10158.4
1073.01	413.6	10209.6
1073.11	413.5	10179.1
1073.21	413.4	10144
1073.31	413.3	10206.7
1073.41	413.2	10220.2
1073.51	413.1	10242.7
1073.61	413	10293.3
1073.71	412.9	10217.1
1073.81	412.8	10189.6
1073.91	412.7	10202.6
1074.01	412.6	10226
1074.11	412.5	10275
1074.21	412.4	10275.5
1074.31	412.3	10262
1074.41	412.2	10161.9
1074.51	412.1	10197.6
1074.61	412	10301.2
1074.71	411.9	10250.5
1074.81	411.8	10219.9
1074.91	411.7	10273.2
1075.01	411.6	10265.8
1075.11	411.5	10196.7
1075.21	411.4	10214.2
1075.31	411.3	10270.4
1075.41	411.2	10250.1
1075.51	411.1	10234.9
1075.61	411	10303.8
1075.71	410.9	10261.9
1075.81	410.8	10298.7
1075.91	410.7	10302.1
1076.01	410.6	10382.3
1076.11	410.5	10337.3
1076.21	410.4	10359
1076.31	410.3	10284.3
1076.41	410.2	10276.7
1076.51	410.1	10321.8
1076.61	410	10389.5
1076.71	409.9	10349
1076.81	409.8	10379.7
1076.91	409.7	10426.2
1077.01	409.6	10418.7
1077.11	409.5	10420.2
1077.21	409.4	10372.9
1077.31	409.3	10407.2
1077.41	409.2	10376.4
1077.51	409.1	10421.8
1077.61	409	10493.7
1077.71	408.9	10493.5
1077.81	408.8	10438.9
1077.91	408.7	10484
1078.01	408.6	10414.3
1078.11	408.5	10472.3
1078.21	408.4	10388.9
1078.31	408.3	10442.7
1078.41	408.2	10475.3
1078.51	408.1	10534.1
1078.61	408	10491.3
1078.71	407.9	10524.7
1078.81	407.8	10484
1078.91	407.7	10498.4
1079.01	407.6	10514.9
1079.11	407.5	10506.1
1079.21	407.4	10529.8
1079.31	407.3	10534.1
1079.41	407.2	10508.3
1079.51	407.1	10549.4
1079.61	407	10605.9
1079.71	406.9	10498.8
1079.81	406.8	10563.4
1079.91	406.7	10540.6
1080.01	406.6	10608
1080.11	406.5	10613.1
1080.21	406.4	10646.9
1080.31	406.3	10566.1
1080.41	406.2	10531.6
1080.51	406.1	10673.8
1080.61	406	10647
1080.71	405.9	10640.5
1080.81	405.8	10718
1080.91	405.7	10702.3
1081.01	405.6	10582.1
1081.11	405.5	10593.8
1081.21	405.4	10706.6
1081.31	405.3	10703.2
1081.41	405.2	10726.1
1081.51	405.1	10731
1081.61	405	10677.9
1081.71	404.9	10665.1
1081.81	404.8	10695
1081.91	404.7	10677.9
1082.01	404.6	10799.2
1082.11	404.5	10673.3
1082.21	404.4	10699.6
1082.31	404.3	10688.4
1082.41	404.2	10787.9
1082.51	404.1	10773.4
1082.61	404	10845.6
1082.71	403.9	10806.1
1082.81	403.8	10801.7
1082.91	403.7	10836.2
1083.01	403.6	10787.8
1083.11	403.5	10740.5
1083.21	403.4	10831.4
1083.31	403.3	10894.1
1083.41	403.2	10877.3
1083.51	403.1	10848.8
1083.61	403	10861.5
1083.71	402.9	10881.3
1083.81	402.8	10930.3
1083.91	402.7	10973
1084.01	402.6	10991.3
1084.11	402.5	10905.3
1084.21	402.4	10972.2
1084.31	402.3	10956.1
1084.41	402.2	11014.3
1084.51	402.1	10979.9
1084.61	402	10994.8
1084.71	401.9	11147
1084.81	401.8	11046.9
1084.91	401.7	11111.4
1085.01	401.6	11116.2
1085.11	401.5	11130.8
1085.21	401.4	11145.2
1085.31	401.3	11169.2
1085.41	401.2	11149.5
1085.51	401.1	11152.7
1085.61	401	11271.9
1085.71	400.9	11319.3
1085.81	400.8	11274.1
1085.91	400.7	11288.1
1086.01	400.6	11293.1
1086.11	400.5	11361.2
1086.21	400.4	11383.2
1086.31	400.3	11408
1086.41	400.2	11442.6
1086.51	400.1	11423
1086.61	400	11359.3
1086.71	399.9	11376.3
1086.81	399.8	11369
1086.91	399.7	11501.9
1087.01	399.6	11428.2
1087.11	399.5	11478.7
1087.21	399.4	11417.2
1087.31	399.3	11542.1
1087.41	399.2	11524.2
1087.51	399.1	11493.4
1087.61	399	11492.9
1087.71	398.9	11435.6
1087.81	398.8	11536.2
1087.91	398.7	11536.8
1088.01	398.6	11448.3
1088.11	398.5	11531.6
1088.21	398.4	11485.2
1088.31	398.3	11459.1
1088.41	398.2	11502
1088.51	398.1	11463.2
1088.61	398	11465.7
1088.71	397.9	11487.3
1088.81	397.8	11421.2
1088.91	397.7	11432
1089.01	397.6	11365
1089.11	397.5	11397.5
1089.21	397.4	11303.1
1089.31	397.3	11311.2
1089.41	397.2	11475
1089.51	397.1	11440.3
1089.61	397	11331.2
1089.71	396.9	11409.8
1089.81	396.8	11364.9
1089.91	396.7	11393.7
1090.01	396.6	11432.4
1090.11	396.5	11330.6
1090.21	396.4	11382.9
1090.31	396.3	11359.1
1090.41	396.2	11363
1090.51	396.1	11358.8
1090.61	396	11433.1
1090.71	395.9	11494.3
1090.81	395.8	11432.6
1090.91	395.7	11525.2
1091.01	395.6	11491.7
1091.11	395.5	11522.9
1091.21	395.4	11559
1091.31	395.3	11666.2
1091.41	395.2	11725.3
1091.51	395.1	11695.5
1091.61	395	11744.4
1091.71	394.9	11724.7
1091.81	394.8	11733
1091.91	394.7	11777.1
1092.01	394.6	11856.8
1092.11	394.5	11964.2
1092.21	394.4	11971.5
1092.31	394.3	11942.3
1092.41	394.2	11983.7
1092.51	394.1	12017.4
1092.61	394	12073.4
1092.71	393.9	12033.1
1092.81	393.8	11972.5
1092.91	393.7	11946.8
1093.01	393.6	11952
1093.11	393.5	12022.7
1093.21	393.4	12063.2
1093.31	393.3	11998
1093.41	393.2	12114.7
1093.51	393.1	12099.1
1093.61	393	12069.5
1093.71	392.9	11993.4
1093.81	392.8	12037.4
1093.91	392.7	12102.7
1094.01	392.6	12008.5
1094.11	392.5	11933.3
1094.21	392.4	12009.8
1094.31	392.3	11965.9
1094.41	392.2	11965.7
1094.51	392.1	11956
1094.61	392	11879.6
1094.71	391.9	11941
1094.81	391.8	11978.9
1094.91	391.7	11979.6
1095.01	391.6	11943
1095.11	391.5	11942.2
1095.21	391.4	11909.4
1095.31	391.3	11928.7
1095.41	391.2	11819.6
1095.51	391.1	11900
1095.61	391	11872.7
1095.71	390.9	11825.8
1095.81	390.8	11728.5
1095.91	390.7	11754.1
1096.01	390.6	11760.6
1096.11	390.5	11705
1096.21	390.4	11722.8
1096.31	390.3	11731
1096.41	390.2	11735.3
1096.51	390.1	11666.5
1096.61	390	11642.6
1096.71	389.9	11693.6
1096.81	389.8	11640.7
1096.91	389.7	11539.1
1097.01	389.6	11495.1
1097.11	389.5	11630.6
1097.21	389.4	11596.3
1097.31	389.3	11533.9
1097.41	389.2	11517.8
1097.51	389.1	11552.4
1097.61	389	11523
1097.71	388.9	11557.9
1097.81	388.8	11485
1097.91	388.7	11472.1
1098.01	388.6	11469.7
1098.11	388.5	11573.1
1098.21	388.4	11513.4
1098.31	388.3	11442.7
1098.41	388.2	11555.5
1098.51	388.1	11623.9
1098.61	388	11675.2
1098.71	387.9	11618.3
1098.81	387.8	11645.9
1098.91	387.7	11700.1
1099.01	387.6	11648.8
1099.11	387.5	11674.9
1099.21	387.4	11723
1099.31	387.3	11645.7
1099.41	387.2	11650.9
1099.51	387.1	11717.6
1099.61	387	11676.4
1099.71	386.9	11779.6
1099.81	386.8	11764.7
1099.91	386.7	11748.6
1100.01	386.6	11790.4
1100.11	386.5	11672.5
1100.21	386.4	11638.8
1100.31	386.3	11680.9
1100.41	386.2	11645.7
1100.51	386.1	11633.4
1100.61	386	11555.1
1100.71	385.9	11540.3
1100.81	385.8	11559.3
1100.91	385.7	11483.3
1101.01	385.6	11448.1
1101.11	385.5	11483.3
1101.21	385.4	11481.1
1101.31	385.3	11448.3
1101.41	385.2	11365.3
1101.51	385.1	11470.6
1101.61	385	11443.1
1101.71	384.9	11364.7
1101.81	384.8	11396.9
1101.91	384.7	11407.1
1102.01	384.6	11334.1
1102.11	384.5	11407.6
1102.21	384.4	11450.9
1102.31	384.3	11430.1
1102.41	384.2	11356.4
1102.51	384.1	11420.1
1102.61	384	11428.5
1102.71	383.9	11467.4
1102.81	383.8	11504.1
1102.91	383.7	11508.4
1103.01	383.6	11625.2
1103.11	383.5	11616.6
1103.21	383.4	11541.6
1103.31	383.3	11565.6
1103.41	383.2	11639.3
1103.51	383.1	11672.7
1103.61	383	11680.1
1103.71	382.9	11747.9
1103.81	382.8	11768.7
1103.91	382.7	11835.1
1104.01	382.6	11832.2
1104.11	382.5	11829.8
1104.21	382.4	11835.3
1104.31	382.3	11821.6
1104.41	382.2	11910.1
1104.51	382.1	11819
1104.61	382	11802.6
1104.71	381.9	11818.7
1104.81	381.8	11820.1
1104.91	381.7	11801.9
1105.01	381.6	11745
1105.11	381.5	11771
1105.21	381.4	11703.1
1105.31	381.3	11682.8
1105.41	381.2	11613.9
1105.51	381.1	11537.2
1105.61	381	11510.6
1105.71	380.9	11525.7
1105.81	380.8	11490.5
1105.91	380.7	11378.5
1106.01	380.6	11371.8
1106.11	380.5	11292.2
1106.21	380.4	11209.6
1106.31	380.3	11259.4
1106.41	380.2	11167.5
1106.51	380.1	11115
1106.61	380	11111
1106.71	379.9	11071.5
1106.81	379.8	11111.7
1106.91	379.7	11090.3
1107.01	379.6	11055.2
1107.11	379.5	11087.4
1107.21	379.4	11127
1107.31	379.3	11167.4
1107.41	379.2	11167.1
1107.51	379.1	11248.8
1107.61	379	11283.9
1107.71	378.9	11443.7
1107.81	378.8	11572.2
1107.91	378.7	11750.4
1108.01	378.6	11942.9
1108.11	378.5	12182.4
1108.21	378.4	12499.3
1108.31	378.3	12928.3
1108.41	378.2	13206.5
1108.51	378.1	13457.5
1108.61	378	13625.1
1108.71	377.9	13526.6
1108.81	377.8	13252.5
1108.91	377.7	12933.3
1109.01	377.6	12511.5
1109.11	377.5	12093.5
1109.21	377.4	11739.9
1109.31	377.3	11469.1
1109.41	377.2	11379
1109.51	377.1	11397.7
1109.61	377	11401.4
1109.71	376.9	11519.9
1109.81	376.8	11688.7
1109.91	376.7	11842.1
1110.01	376.6	11972.7
1110.11	376.5	12181.6
1110.21	376.4	12426.7
1110.31	376.3	12633.8
1110.41	376.2	12879.4
1110.51	376.1	13160
1110.61	376	13572.2
1110.71	375.9	13922.7
1110.81	375.8	14495.1
1110.91	375.7	14876.1
1111.01	375.6	15647.8
1111.11	375.5	16390.4
1111.21	375.4	17364.6
1111.31	375.3	18642.1
1111.41	375.2	20429.1
1111.51	375.1	23314
1111.61	375	27309.8
1111.71	374.9	33447.7
1111.81	374.8	42469.3
1111.91	374.7	55295.8
1112.01	374.6	72065
1112.11	374.5	91576.7
1112.21	374.4	110961
1112.31	374.3	125324
1112.41	374.2	129501
1112.51	374.1	121274
1112.61	374	104103
1112.71	373.9	81611.7
1112.81	373.8	59149.3
1112.91	373.7	41482.3
1113.01	373.6	29448.9
1113.11	373.5	22249.9
1113.21	373.4	17808.4
1113.31	373.3	14962.5
1113.41	373.2	13216.2
1113.51	373.1	12067
1113.61	373	11268.3
1113.71	372.9	10852
1113.81	372.8	10604.8
1113.91	372.7	10412.2
1114.01	372.6	10468.1
1114.11	372.5	10652.9
1114.21	372.4	10810.3
1114.31	372.3	11183.6
1114.41	372.2	11626.7
1114.51	372.1	11767.5
1114.61	372	11865
1114.71	371.9	11638.2
1114.81	371.8	11087.4
1114.91	371.7	10400.7
1115.01	371.6	9662.75
1115.11	371.5	8926.87
1115.21	371.4	8305.52
1115.31	371.3	7934.58
1115.41	371.2	7571.05
1115.51	371.1	7425.99
1115.61	371	7382.11
1115.71	370.9	7462.73
1115.81	370.8	7473.7
1115.91	370.7	7604.18
1116.01	370.6	7752.64
1116.11	370.5	7991.57
1116.21	370.4	8234.45
1116.31	370.3	8593.58
1116.41	370.2	8985.05
1116.51	370.1	9386.57
1116.61	370	9910.34
1116.71	369.9	10484.5
1116.81	369.8	11145.3
1116.91	369.7	11931.5
1117.01	369.6	13057.7
1117.11	369.5	14140.6
1117.21	369.4	15807.6
1117.31	369.3	17904.3
1117.41	369.2	20737
1117.51	369.1	24859.1
1117.61	369	31027.9
1117.71	368.9	39819.5
1117.81	368.8	52858.2
1117.91	368.7	71523.9
1118.01	368.6	95757.1
1118.11	368.5	123615
1118.21	368.4	151016
1118.31	368.3	171391
1118.41	368.2	177014
1118.51	368.1	166355
1118.61	368	141888
1118.71	367.9	109936
1118.81	367.8	77993
1118.91	367.7	52291
1119.01	367.6	35028.1
1119.11	367.5	24146.3
1119.21	367.4	17420.5
1119.31	367.3	13207.1
1119.41	367.2	10478.2
1119.51	367.1	8583.86
1119.61	367	7336.17
1119.71	366.9	6396.7
1119.81	366.8	5650.94
1119.91	366.7	5111.04
1120.01	366.6	4742.25
1120.11	366.5	4386.91
1120.21	366.4	4075.92
1120.31	366.3	3785.5
1120.41	366.2	3557.28
1120.51	366.1	3403.17
1120.61	366	3192.57
1120.71	365.9	3078.31
1120.81	365.8	2977.73
1120.91	365.7	2913.66
1121.01	365.6	2777.09
1121.11	365.5	2668.76
1121.21	365.4	2574.98
1121.31	365.3	2520.73
1121.41	365.2	2447.31
1121.51	365.1	2384.12
1121.61	365	2363.74
1121.71	364.9	2314.82
1121.81	364.8	2260.09
1121.91	364.7	2148.29
1122.01	364.6	2139.32
1122.11	364.5	2088.63
1122.21	364.4	2092.95
1122.31	364.3	2062.52
1122.41	364.2	2032.35
1122.51	364.1	1990.65
1122.61	364	1954.37
1122.71	363.9	1960.03
1122.81	363.8	1913.42
1122.91	363.7	1866.39
1123.01	363.6	1912.14
1123.11	363.5	1867.9
1123.21	363.4	1799.92
1123.31	363.3	1834.73
1123.41	363.2	1803
1123.51	363.1	1780.85
1123.61	363	1728.33
1123.71	362.9	1758.51
1123.81	362.8	1768.19
1123.91	362.7	1708.02
1124.01	362.6	1724.04
1124.11	362.5	1735.08
1124.21	362.4	1724.34
1124.31	362.3	1716.6
1124.41	362.2	1696.43
1124.51	362.1	1684.47
1124.61	362	1666.56
1124.71	361.9	1669.35
1124.81	361.8	1656.37
1124.91	361.7	1637.4
1125.01	361.6	1619.92
1125.11	361.5	1630.33
1125.21	361.4	1607.46
1125.31	361.3	1602.63
1125.41	361.2	1608.85
1125.51	361.1	1589.92
1125.61	361	1613.42
1125.71	360.9	1608.92
1125.81	360.8	1588.52
1125.91	360.7	1570.97
1126.01	360.6	1563.5
1126.11	360.5	1564.6
1126.21	360.4	1551.55
1126.31	360.3	1551.96
1126.41	360.2	1573.31
1126.51	360.1	1575.28
1126.61	360	1549.29
1126.71	359.9	1547.55
1126.81	359.8	1554.69
1126.91	359.7	1539.06
1127.01	359.6	1535.37
1127.11	359.5	1574.26
1127.21	359.4	1547.19
1127.31	359.3	1539.23
1127.41	359.2	1520.69
1127.51	359.1	1522.41
1127.61	359	1522.14
1127.71	358.9	1527.03
1127.81	358.8	1539.63
1127.91	358.7	1549.56
1128.01	358.6	1506.26
1128.11	358.5	1515.33
1128.21	358.4	1529.43
1128.31	358.3	1558.27
1128.41	358.2	1540.03
1128.51	358.1	1516.99
1128.61	358	1511.98
1128.71	357.9	1494.28
1128.81	357.8	1489.45
1128.91	357.7	1509.25
1129.01	357.6	1511.72
1129.11	357.5	1537.34
1129.21	357.4	1514.08
1129.31	357.3	1496.46
1129.41	357.2	1518.71
1129.51	357.1	1499.13
1129.61	357	1505.24
1129.71	356.9	1513.64
1129.81	356.8	1521.1
1129.91	356.7	1491.09
1130.01	356.6	1520.26
1130.11	356.5	1500.3
1130.21	356.4	1489.94
1130.31	356.3	1491.16
1130.41	356.2	1487.03
1130.51	356.1	1499.26
1130.61	356	1454.21
1130.71	355.9	1481.37
1130.81	355.8	1502.09
1130.91	355.7	1503.42
1131.01	355.6	1510.62
1131.11	355.5	1505.98
1131.21	355.4	1504.5
1131.31	355.3	1498.55
1131.41	355.2	1503.87
1131.51	355.1	1465.48
1131.61	355	1510.82
1131.71	354.9	1493.1
1131.81	354.8	1480.11
1131.91	354.7	1492.81
1132.01	354.6	1489.56
1132.11	354.5	1476.64
1132.21	354.4	1463.54
1132.31	354.3	1475.67
1132.41	354.2	1507.48
1132.51	354.1	1498.64
1132.61	354	1502.58
1132.71	353.9	1476.7
1132.81	353.8	1461.9
1132.91	353.7	1479.24
1133.01	353.6	1473.09
1133.11	353.5	1472.51
1133.21	353.4	1440.33
1133.31	353.3	1468.03
1133.41	353.2	1486.54
1133.51	353.1	1494.97
1133.61	353	1465.87
1133.71	352.9	1462.47
1133.81	352.8	1476.86
1133.91	352.7	1479.73
1134.01	352.6	1498.67
1134.11	352.5	1474.92
1134.21	352.4	1476.11
1134.31	352.3	1465.56
1134.41	352.2	1473.73
1134.51	352.1	1486.2
1134.61	352	1490.22
1134.71	351.9	1471.37
1134.81	351.8	1489.87
1134.91	351.7	1457.27
1135.01	351.6	1473.27
1135.11	351.5	1458.45
1135.21	351.4	1462.33
1135.31	351.3	1456.94
1135.41	351.2	1481.12
1135.51	351.1	1467.03
1135.61	351	1459.89
1135.71	350.9	1463.2
1135.81	350.8	1468.63
1135.91	350.7	1482.01
1136.01	350.6	1457.93
1136.11	350.5	1454.79
1136.21	350.4	1457.22
1136.31	350.3	1492.7
1136.41	350.2	1473.59
1136.51	350.1	1478.3
1136.61	350	1483.98