C:\Users\Mark\ownCloud\Muelheim Group\Projects\Gas phase background\EX322_CEC356_Au_Ag_Cu in H2_1.vms.vms
Ag3d
	Characteristic Energy eV	1486.61	Acquisition Time s	0.9
KE_Ag3d	BE_Ag3d	CPS_Ag3d
1036.61	450	8509.75
1036.71	449.9	8449.64
1036.81	449.8	8503.97
1036.91	449.7	8496.85
1037.01	449.6	8550.77
1037.11	449.5	8503.1
1037.21	449.4	8524.06
1037.31	449.3	8516.81
1037.41	449.2	8479.71
1037.51	449.1	8564.91
1037.61	449	8519.87
1037.71	448.9	8455.19
1037.81	448.8	8445.16
1037.91	448.7	8534.66
1038.01	448.6	8507.29
1038.11	448.5	8520.35
1038.21	448.4	8528.19
1038.31	448.3	8500.97
1038.41	448.2	8540.19
1038.51	448.1	8510.5
1038.61	448	8529.62
1038.71	447.9	8500.55
1038.81	447.8	8459.58
1038.91	447.7	8547.31
1039.01	447.6	8539.32
1039.11	447.5	8536.3
1039.21	447.4	8510.95
1039.31	447.3	8516.64
1039.41	447.2	8509.16
1039.51	447.1	8501.5
1039.61	447	8473.39
1039.71	446.9	8466.8
1039.81	446.8	8480.32
1039.91	446.7	8504.08
1040.01	446.6	8575.7
1040.11	446.5	8496.33
1040.21	446.4	8593.11
1040.31	446.3	8505.06
1040.41	446.2	8542.72
1040.51	446.1	8485.27
1040.61	446	8561.07
1040.71	445.9	8579.53
1040.81	445.8	8507
1040.91	445.7	8557.27
1041.01	445.6	8525.79
1041.11	445.5	8515.71
1041.21	445.4	8553.53
1041.31	445.3	8514.79
1041.41	445.2	8504.84
1041.51	445.1	8482.29
1041.61	445	8542.31
1041.71	444.9	8518.55
1041.81	444.8	8571.62
1041.91	444.7	8488.35
1042.01	444.6	8530
1042.11	444.5	8526.96
1042.21	444.4	8526.13
1042.31	444.3	8482.81
1042.41	444.2	8514.97
1042.51	444.1	8497.42
1042.61	444	8550.82
1042.71	443.9	8540.86
1042.81	443.8	8585.74
1042.91	443.7	8604.66
1043.01	443.6	8593.52
1043.11	443.5	8530.98
1043.21	443.4	8564.71
1043.31	443.3	8509.26
1043.41	443.2	8542.63
1043.51	443.1	8587.6
1043.61	443	8604.99
1043.71	442.9	8530.46
1043.81	442.8	8607.25
1043.91	442.7	8587.37
1044.01	442.6	8563.31
1044.11	442.5	8568.79
1044.21	442.4	8517
1044.31	442.3	8545.33
1044.41	442.2	8582.64
1044.51	442.1	8600.73
1044.61	442	8552.46
1044.71	441.9	8538.92
1044.81	441.8	8528.2
1044.91	441.7	8624.57
1045.01	441.6	8504.29
1045.11	441.5	8520
1045.21	441.4	8557.97
1045.31	441.3	8532.06
1045.41	441.2	8558.06
1045.51	441.1	8586.37
1045.61	441	8529.87
1045.71	440.9	8511.99
1045.81	440.8	8466.26
1045.91	440.7	8488.61
1046.01	440.6	8489.05
1046.11	440.5	8549.72
1046.21	440.4	8574.82
1046.31	440.3	8560.12
1046.41	440.2	8504.6
1046.51	440.1	8525.8
1046.61	440	8526.11
1046.71	439.9	8575.96
1046.81	439.8	8458.96
1046.91	439.7	8517.67
1047.01	439.6	8539.22
1047.11	439.5	8463.51
1047.21	439.4	8449.14
1047.31	439.3	8533.93
1047.41	439.2	8510.4
1047.51	439.1	8469.74
1047.61	439	8497.74
1047.71	438.9	8521.54
1047.81	438.8	8426.92
1047.91	438.7	8405.2
1048.01	438.6	8409.6
1048.11	438.5	8398.53
1048.21	438.4	8438.82
1048.31	438.3	8460.67
1048.41	438.2	8453.5
1048.51	438.1	8466.33
1048.61	438	8414.33
1048.71	437.9	8445.17
1048.81	437.8	8420.68
1048.91	437.7	8471.53
1049.01	437.6	8470.84
1049.11	437.5	8429.96
1049.21	437.4	8505.03
1049.31	437.3	8429.24
1049.41	437.2	8420.29
1049.51	437.1	8452.24
1049.61	437	8439.75
1049.71	436.9	8455.95
1049.81	436.8	8446.09
1049.91	436.7	8410.46
1050.01	436.6	8500.53
1050.11	436.5	8473.23
1050.21	436.4	8458.02
1050.31	436.3	8438.59
1050.41	436.2	8401.52
1050.51	436.1	8455.85
1050.61	436	8491.65
1050.71	435.9	8399.98
1050.81	435.8	8478.92
1050.91	435.7	8456.91
1051.01	435.6	8437.65
1051.11	435.5	8489.08
1051.21	435.4	8490.18
1051.31	435.3	8506.71
1051.41	435.2	8467.92
1051.51	435.1	8441.6
1051.61	435	8393.62
1051.71	434.9	8532.32
1051.81	434.8	8520.83
1051.91	434.7	8508.51
1052.01	434.6	8517.22
1052.11	434.5	8457.47
1052.21	434.4	8604.06
1052.31	434.3	8548.88
1052.41	434.2	8491.44
1052.51	434.1	8471.39
1052.61	434	8463.08
1052.71	433.9	8548.09
1052.81	433.8	8561.44
1052.91	433.7	8558.95
1053.01	433.6	8541.28
1053.11	433.5	8500.09
1053.21	433.4	8486.73
1053.31	433.3	8505.04
1053.41	433.2	8571.55
1053.51	433.1	8521.92
1053.61	433	8488.89
1053.71	432.9	8526.2
1053.81	432.8	8564.01
1053.91	432.7	8610.48
1054.01	432.6	8660.36
1054.11	432.5	8591.1
1054.21	432.4	8580.01
1054.31	432.3	8626.65
1054.41	432.2	8526.36
1054.51	432.1	8519.1
1054.61	432	8509.59
1054.71	431.9	8526.46
1054.81	431.8	8568.46
1054.91	431.7	8563.34
1055.01	431.6	8520.38
1055.11	431.5	8606.5
1055.21	431.4	8503.74
1055.31	431.3	8525.45
1055.41	431.2	8588.18
1055.51	431.1	8621.24
1055.61	431	8621.42
1055.71	430.9	8612.66
1055.81	430.8	8547.32
1055.91	430.7	8607.18
1056.01	430.6	8657.88
1056.11	430.5	8643.28
1056.21	430.4	8605.53
1056.31	430.3	8581.04
1056.41	430.2	8652.8
1056.51	430.1	8675.66
1056.61	430	8652.9
1056.71	429.9	8662.93
1056.81	429.8	8713.55
1056.91	429.7	8672.06
1057.01	429.6	8713.1
1057.11	429.5	8719.03
1057.21	429.4	8683.17
1057.31	429.3	8719.17
1057.41	429.2	8808.75
1057.51	429.1	8768.5
1057.61	429	8773.82
1057.71	428.9	8654.47
1057.81	428.8	8718.94
1057.91	428.7	8741.28
1058.01	428.6	8741.85
1058.11	428.5	8819.65
1058.21	428.4	8762.15
1058.31	428.3	8799.74
1058.41	428.2	8735.73
1058.51	428.1	8746.08
1058.61	428	8699.19
1058.71	427.9	8711.77
1058.81	427.8	8695.69
1058.91	427.7	8747.48
1059.01	427.6	8750.71
1059.11	427.5	8723.49
1059.21	427.4	8704.51
1059.31	427.3	8821.59
1059.41	427.2	8761.28
1059.51	427.1	8785.32
1059.61	427	8785.1
1059.71	426.9	8765.31
1059.81	426.8	8848.09
1059.91	426.7	8841.54
1060.01	426.6	8816.9
1060.11	426.5	8742.5
1060.21	426.4	8794.81
1060.31	426.3	8815.1
1060.41	426.2	8772.2
1060.51	426.1	8868.93
1060.61	426	8846.6
1060.71	425.9	8760.77
1060.81	425.8	8765.3
1060.91	425.7	8780.6
1061.01	425.6	8813.7
1061.11	425.5	8774.81
1061.21	425.4	8842.73
1061.31	425.3	8861.35
1061.41	425.2	8900.36
1061.51	425.1	8878
1061.61	425	8849.4
1061.71	424.9	8835.49
1061.81	424.8	8823.64
1061.91	424.7	8881.49
1062.01	424.6	8838.48
1062.11	424.5	8853.14
1062.21	424.4	8878.84
1062.31	424.3	8847.94
1062.41	424.2	8829.81
1062.51	424.1	8838.91
1062.61	424	8878.98
1062.71	423.9	8820.41
1062.81	423.8	8906.46
1062.91	423.7	8916.4
1063.01	423.6	8883.37
1063.11	423.5	8839.74
1063.21	423.4	8880.72
1063.31	423.3	8916.86
1063.41	423.2	8906.66
1063.51	423.1	8906.19
1063.61	423	8915.39
1063.71	422.9	8974.42
1063.81	422.8	8886.14
1063.91	422.7	8945.26
1064.01	422.6	8915.08
1064.11	422.5	8887.57
1064.21	422.4	8917.02
1064.31	422.3	8933.17
1064.41	422.2	8924.33
1064.51	422.1	8830.26
1064.61	422	8854.05
1064.71	421.9	8890.63
1064.81	421.8	8923.51
1064.91	421.7	8928.97
1065.01	421.6	8951.29
1065.11	421.5	8992.87
1065.21	421.4	8945.68
1065.31	421.3	8887.8
1065.41	421.2	8854.48
1065.51	421.1	8943.63
1065.61	421	8983.6
1065.71	420.9	8952.05
1065.81	420.8	8984.18
1065.91	420.7	8928.27
1066.01	420.6	8945.63
1066.11	420.5	8948.85
1066.21	420.4	8892.16
1066.31	420.3	8914.64
1066.41	420.2	8975.62
1066.51	420.1	8997.39
1066.61	420	8915.38
1066.71	419.9	8840.12
1066.81	419.8	8954.99
1066.91	419.7	8908.56
1067.01	419.6	9064.09
1067.11	419.5	8995.99
1067.21	419.4	8928.19
1067.31	419.3	8977.07
1067.41	419.2	8916.18
1067.51	419.1	8950.61
1067.61	419	8893.34
1067.71	418.9	8840.05
1067.81	418.8	8974.74
1067.91	418.7	8981.64
1068.01	418.6	8948.79
1068.11	418.5	8992.44
1068.21	418.4	9015.35
1068.31	418.3	8938.3
1068.41	418.2	8912.47
1068.51	418.1	8929.51
1068.61	418	8987.58
1068.71	417.9	8954.83
1068.81	417.8	8975.36
1068.91	417.7	8969.92
1069.01	417.6	8955.69
1069.11	417.5	8959.02
1069.21	417.4	8961.06
1069.31	417.3	8934.15
1069.41	417.2	8901.78
1069.51	417.1	8965.05
1069.61	417	9058.93
1069.71	416.9	8971.52
1069.81	416.8	8976.67
1069.91	416.7	9002.6
1070.01	416.6	9031.9
1070.11	416.5	9039.95
1070.21	416.4	9071.02
1070.31	416.3	9105.94
1070.41	416.2	9038.31
1070.51	416.1	8923.88
1070.61	416	9037.14
1070.71	415.9	9003.25
1070.81	415.8	8960.78
1070.91	415.7	8983.3
1071.01	415.6	9087.44
1071.11	415.5	9114.13
1071.21	415.4	9103.54
1071.31	415.3	9090.87
1071.41	415.2	9072.74
1071.51	415.1	9021.7
1071.61	415	9016.66
1071.71	414.9	9089.35
1071.81	414.8	9040.47
1071.91	414.7	9155.42
1072.01	414.6	9122.04
1072.11	414.5	9135.12
1072.21	414.4	9139.29
1072.31	414.3	9107.71
1072.41	414.2	9074.58
1072.51	414.1	9124.6
1072.61	414	9202.82
1072.71	413.9	9228.37
1072.81	413.8	9081.06
1072.91	413.7	9136.14
1073.01	413.6	9074.79
1073.11	413.5	9114.14
1073.21	413.4	9162.16
1073.31	413.3	9129.62
1073.41	413.2	9228.39
1073.51	413.1	9173.01
1073.61	413	9225.94
1073.71	412.9	9198.34
1073.81	412.8	9093.53
1073.91	412.7	9113.51
1074.01	412.6	9160.8
1074.11	412.5	9303.83
1074.21	412.4	9208.32
1074.31	412.3	9222.79
1074.41	412.2	9227.79
1074.51	412.1	9201.38
1074.61	412	9246.61
1074.71	411.9	9194.36
1074.81	411.8	9238.98
1074.91	411.7	9216.61
1075.01	411.6	9163.12
1075.11	411.5	9331.39
1075.21	411.4	9288.36
1075.31	411.3	9277.75
1075.41	411.2	9241.22
1075.51	411.1	9281.69
1075.61	411	9245.77
1075.71	410.9	9223.2
1075.81	410.8	9264.64
1075.91	410.7	9186.88
1076.01	410.6	9338.05
1076.11	410.5	9332.57
1076.21	410.4	9272.34
1076.31	410.3	9301.44
1076.41	410.2	9282.52
1076.51	410.1	9229.95
1076.61	410	9319.08
1076.71	409.9	9266.73
1076.81	409.8	9300.07
1076.91	409.7	9308.67
1077.01	409.6	9373.31
1077.11	409.5	9369.92
1077.21	409.4	9304.05
1077.31	409.3	9374.53
1077.41	409.2	9382.39
1077.51	409.1	9349.39
1077.61	409	9349.14
1077.71	408.9	9394.01
1077.81	408.8	9390.64
1077.91	408.7	9439.33
1078.01	408.6	9372.91
1078.11	408.5	9309.97
1078.21	408.4	9317.58
1078.31	408.3	9402.54
1078.41	408.2	9491.14
1078.51	408.1	9476.73
1078.61	408	9455.55
1078.71	407.9	9483.03
1078.81	407.8	9493.85
1078.91	407.7	9499.35
1079.01	407.6	9460.77
1079.11	407.5	9513.99
1079.21	407.4	9530.81
1079.31	407.3	9495.52
1079.41	407.2	9524.37
1079.51	407.1	9523.35
1079.61	407	9562.99
1079.71	406.9	9616.05
1079.81	406.8	9562.6
1079.91	406.7	9596.55
1080.01	406.6	9539.05
1080.11	406.5	9569.11
1080.21	406.4	9641.19
1080.31	406.3	9619.36
1080.41	406.2	9594.6
1080.51	406.1	9637.37
1080.61	406	9682.05
1080.71	405.9	9603.53
1080.81	405.8	9575.6
1080.91	405.7	9575.99
1081.01	405.6	9591.73
1081.11	405.5	9632.33
1081.21	405.4	9608.8
1081.31	405.3	9611.88
1081.41	405.2	9632.89
1081.51	405.1	9622.56
1081.61	405	9623.73
1081.71	404.9	9705.12
1081.81	404.8	9690.35
1081.91	404.7	9683.78
1082.01	404.6	9742.71
1082.11	404.5	9716.98
1082.21	404.4	9677.56
1082.31	404.3	9686.21
1082.41	404.2	9775.65
1082.51	404.1	9714.11
1082.61	404	9679.49
1082.71	403.9	9766.82
1082.81	403.8	9766.53
1082.91	403.7	9746.18
1083.01	403.6	9806.04
1083.11	403.5	9720.86
1083.21	403.4	9788.49
1083.31	403.3	9816.27
1083.41	403.2	9820.08
1083.51	403.1	9809.39
1083.61	403	9898.79
1083.71	402.9	9815.4
1083.81	402.8	9826.07
1083.91	402.7	9911.99
1084.01	402.6	9970.95
1084.11	402.5	9878.36
1084.21	402.4	9914.62
1084.31	402.3	9952.85
1084.41	402.2	9964.48
1084.51	402.1	9982.97
1084.61	402	9891.28
1084.71	401.9	9947.45
1084.81	401.8	9976.49
1084.91	401.7	9968.42
1085.01	401.6	9984.44
1085.11	401.5	9966.47
1085.21	401.4	10058.4
1085.31	401.3	10042.4
1085.41	401.2	10128.2
1085.51	401.1	10090.2
1085.61	401	10149.1
1085.71	400.9	10181.7
1085.81	400.8	10225
1085.91	400.7	10176.4
1086.01	400.6	10218.2
1086.11	400.5	10153.5
1086.21	400.4	10201.2
1086.31	400.3	10310.7
1086.41	400.2	10208.9
1086.51	400.1	10259.3
1086.61	400	10271.8
1086.71	399.9	10249.7
1086.81	399.8	10254.1
1086.91	399.7	10415.2
1087.01	399.6	10422.7
1087.11	399.5	10369.2
1087.21	399.4	10380
1087.31	399.3	10413
1087.41	399.2	10319
1087.51	399.1	10299.8
1087.61	399	10344.1
1087.71	398.9	10374.3
1087.81	398.8	10297.1
1087.91	398.7	10277
1088.01	398.6	10306.9
1088.11	398.5	10317.1
1088.21	398.4	10312.8
1088.31	398.3	10361.4
1088.41	398.2	10269.5
1088.51	398.1	10284.8
1088.61	398	10263.9
1088.71	397.9	10243.2
1088.81	397.8	10248.6
1088.91	397.7	10269.8
1089.01	397.6	10162.2
1089.11	397.5	10224.8
1089.21	397.4	10229.7
1089.31	397.3	10225.5
1089.41	397.2	10245.9
1089.51	397.1	10291.4
1089.61	397	10278.3
1089.71	396.9	10250
1089.81	396.8	10243
1089.91	396.7	10194.7
1090.01	396.6	10241.7
1090.11	396.5	10216.5
1090.21	396.4	10197.9
1090.31	396.3	10283.6
1090.41	396.2	10326.7
1090.51	396.1	10315.1
1090.61	396	10287.7
1090.71	395.9	10308.1
1090.81	395.8	10382.2
1090.91	395.7	10311.6
1091.01	395.6	10359.7
1091.11	395.5	10358.7
1091.21	395.4	10473.1
1091.31	395.3	10451.7
1091.41	395.2	10526.6
1091.51	395.1	10644
1091.61	395	10611.7
1091.71	394.9	10610.1
1091.81	394.8	10733.2
1091.91	394.7	10668.7
1092.01	394.6	10714.8
1092.11	394.5	10798.6
1092.21	394.4	10829.5
1092.31	394.3	10893.7
1092.41	394.2	10860.7
1092.51	394.1	10862.9
1092.61	394	10948.9
1092.71	393.9	11049.4
1092.81	393.8	10993.3
1092.91	393.7	10955.1
1093.01	393.6	11023.2
1093.11	393.5	10973.4
1093.21	393.4	10985.8
1093.31	393.3	11039.5
1093.41	393.2	11070
1093.51	393.1	11045.6
1093.61	393	10958.5
1093.71	392.9	11033.9
1093.81	392.8	11000.5
1093.91	392.7	10891.5
1094.01	392.6	10957.4
1094.11	392.5	11005.9
1094.21	392.4	10929.4
1094.31	392.3	11001
1094.41	392.2	11020
1094.51	392.1	10907.4
1094.61	392	10917.7
1094.71	391.9	10996.8
1094.81	391.8	11016
1094.91	391.7	10982.4
1095.01	391.6	10915.6
1095.11	391.5	10952.5
1095.21	391.4	10987.1
1095.31	391.3	10943.2
1095.41	391.2	10939.6
1095.51	391.1	11002.5
1095.61	391	10961.2
1095.71	390.9	11020.2
1095.81	390.8	11080.7
1095.91	390.7	11057.3
1096.01	390.6	11110.2
1096.11	390.5	11143.6
1096.21	390.4	11114.8
1096.31	390.3	11028.3
1096.41	390.2	11054.7
1096.51	390.1	11093.1
1096.61	390	11102.8
1096.71	389.9	11161.7
1096.81	389.8	11208.7
1096.91	389.7	11147.7
1097.01	389.6	11126.3
1097.11	389.5	11167.5
1097.21	389.4	11185.9
1097.31	389.3	11247.9
1097.41	389.2	11292.2
1097.51	389.1	11349.8
1097.61	389	11327
1097.71	388.9	11299.9
1097.81	388.8	11304.8
1097.91	388.7	11318
1098.01	388.6	11381.7
1098.11	388.5	11513.4
1098.21	388.4	11521.1
1098.31	388.3	11518.6
1098.41	388.2	11570.9
1098.51	388.1	11777.4
1098.61	388	11892.2
1098.71	387.9	12028.6
1098.81	387.8	12160.4
1098.91	387.7	12429.6
1099.01	387.6	12706.7
1099.11	387.5	12985.9
1099.21	387.4	13253.9
1099.31	387.3	13417.2
1099.41	387.2	13779.1
1099.51	387.1	14027.2
1099.61	387	14087.1
1099.71	386.9	14141.9
1099.81	386.8	14156
1099.91	386.7	14085.2
1100.01	386.6	13907.7
1100.11	386.5	13699.4
1100.21	386.4	13239.2
1100.31	386.3	12937.8
1100.41	386.2	12583.9
1100.51	386.1	12200.9
1100.61	386	11917.7
1100.71	385.9	11586.2
1100.81	385.8	11266.6
1100.91	385.7	11128.4
1101.01	385.6	10847.6
1101.11	385.5	10676.4
1101.21	385.4	10438.4
1101.31	385.3	10291.5
1101.41	385.2	10287.5
1101.51	385.1	10228.3
1101.61	385	10255.1
1101.71	384.9	10239
1101.81	384.8	10176.7
1101.91	384.7	10212.3
1102.01	384.6	10203.8
1102.11	384.5	10208.6
1102.21	384.4	10203.7
1102.31	384.3	10151
1102.41	384.2	10299.5
1102.51	384.1	10274.8
1102.61	384	10265.4
1102.71	383.9	10324.9
1102.81	383.8	10290.3
1102.91	383.7	10338.8
1103.01	383.6	10416.2
1103.11	383.5	10418.6
1103.21	383.4	10467.4
1103.31	383.3	10503.6
1103.41	383.2	10448.6
1103.51	383.1	10571.1
1103.61	383	10625.8
1103.71	382.9	10685.7
1103.81	382.8	10756.6
1103.91	382.7	10719.6
1104.01	382.6	10790.9
1104.11	382.5	10854.7
1104.21	382.4	10972
1104.31	382.3	10962.6
1104.41	382.2	11046.6
1104.51	382.1	11127.5
1104.61	382	11289.8
1104.71	381.9	11563.4
1104.81	381.8	11742.9
1104.91	381.7	12033.9
1105.01	381.6	12320.5
1105.11	381.5	12658.1
1105.21	381.4	12986.1
1105.31	381.3	13333
1105.41	381.2	13627.4
1105.51	381.1	13881.6
1105.61	381	14050.5
1105.71	380.9	14085
1105.81	380.8	14062.5
1105.91	380.7	13851.1
1106.01	380.6	13535.4
1106.11	380.5	13145.8
1106.21	380.4	12629.6
1106.31	380.3	12111.7
1106.41	380.2	11533
1106.51	380.1	10952.8
1106.61	380	10514.1
1106.71	379.9	10143.5
1106.81	379.8	9680.74
1106.91	379.7	9271.17
1107.01	379.6	8966.75
1107.11	379.5	8614.37
1107.21	379.4	8448.78
1107.31	379.3	8267.93
1107.41	379.2	8198.84
1107.51	379.1	8041.75
1107.61	379	7882.02
1107.71	378.9	7927.06
1107.81	378.8	8044.24
1107.91	378.7	8081.44
1108.01	378.6	8192.86
1108.11	378.5	8371.2
1108.21	378.4	8611.33
1108.31	378.3	8877.52
1108.41	378.2	9026.05
1108.51	378.1	9177.64
1108.61	378	9311.17
1108.71	377.9	9179.09
1108.81	377.8	9098.58
1108.91	377.7	8766.36
1109.01	377.6	8499.43
1109.11	377.5	8146.11
1109.21	377.4	7986.37
1109.31	377.3	7890.66
1109.41	377.2	7764.33
1109.51	377.1	7762.04
1109.61	377	7839.49
1109.71	376.9	7882.25
1109.81	376.8	7952.65
1109.91	376.7	8076.88
1110.01	376.6	8104.64
1110.11	376.5	8279.8
1110.21	376.4	8437.44
1110.31	376.3	8563.68
1110.41	376.2	8765.44
1110.51	376.1	8950.52
1110.61	376	9227.07
1110.71	375.9	9442.67
1110.81	375.8	9695.55
1110.91	375.7	10035.5
1111.01	375.6	10430.5
1111.11	375.5	11039.5
1111.21	375.4	11750.1
1111.31	375.3	12552.2
1111.41	375.2	13801.5
1111.51	375.1	15622.7
1111.61	375	18295.7
1111.71	374.9	22315.5
1111.81	374.8	28351.8
1111.91	374.7	36664
1112.01	374.6	47787.5
1112.11	374.5	60786.5
1112.21	374.4	73195
1112.31	374.3	82475.3
1112.41	374.2	84657.1
1112.51	374.1	78865.2
1112.61	374	67378.5
1112.71	373.9	52726.1
1112.81	373.8	38048.7
1112.91	373.7	26651.2
1113.01	373.6	19200.5
1113.11	373.5	14470.8
1113.21	373.4	11642.4
1113.31	373.3	9884
1113.41	373.2	8815.17
1113.51	373.1	8099.12
1113.61	373	7657.85
1113.71	372.9	7371.37
1113.81	372.8	7219.16
1113.91	372.7	7154.2
1114.01	372.6	7136.12
1114.11	372.5	7279.08
1114.21	372.4	7528.19
1114.31	372.3	7648.23
1114.41	372.2	7868.64
1114.51	372.1	8024.37
1114.61	372	8039.4
1114.71	371.9	7891.06
1114.81	371.8	7576.35
1114.91	371.7	7115.93
1115.01	371.6	6584.27
1115.11	371.5	6164.69
1115.21	371.4	5752.16
1115.31	371.3	5411.19
1115.41	371.2	5265.89
1115.51	371.1	5162.71
1115.61	371	5131.53
1115.71	370.9	5125.91
1115.81	370.8	5196.81
1115.91	370.7	5250.76
1116.01	370.6	5381.6
1116.11	370.5	5554.51
1116.21	370.4	5712.6
1116.31	370.3	5926.94
1116.41	370.2	6165.35
1116.51	370.1	6487.24
1116.61	370	6816.56
1116.71	369.9	7173.09
1116.81	369.8	7698.09
1116.91	369.7	8222.09
1117.01	369.6	8886.33
1117.11	369.5	9677.35
1117.21	369.4	10714.4
1117.31	369.3	12121.4
1117.41	369.2	13988.7
1117.51	369.1	16710.4
1117.61	369	20711.6
1117.71	368.9	26585.7
1117.81	368.8	35240.2
1117.91	368.7	47658.7
1118.01	368.6	63429.9
1118.11	368.5	81463
1118.21	368.4	99849.7
1118.31	368.3	112529
1118.41	368.2	116231
1118.51	368.1	108554
1118.61	368	91978.4
1118.71	367.9	70913.1
1118.81	367.8	50189.5
1118.91	367.7	33720.9
1119.01	367.6	22697.8
1119.11	367.5	15752.9
1119.21	367.4	11421.2
1119.31	367.3	8738.49
1119.41	367.2	6997.42
1119.51	367.1	5874.93
1119.61	367	5017
1119.71	366.9	4448.52
1119.81	366.8	4037.28
1119.91	366.7	3643.15
1120.01	366.6	3409.87
1120.11	366.5	3167.81
1120.21	366.4	2962.08
1120.31	366.3	2808.33
1120.41	366.2	2674.04
1120.51	366.1	2545.26
1120.61	366	2423.46
1120.71	365.9	2343.79
1120.81	365.8	2315.1
1120.91	365.7	2246.26
1121.01	365.6	2131.97
1121.11	365.5	2054.27
1121.21	365.4	2051.77
1121.31	365.3	1952.12
1121.41	365.2	1940.37
1121.51	365.1	1910.74
1121.61	365	1870.84
1121.71	364.9	1828.3
1121.81	364.8	1807.81
1121.91	364.7	1755.03
1122.01	364.6	1725.41
1122.11	364.5	1722.92
1122.21	364.4	1722.68
1122.31	364.3	1678.39
1122.41	364.2	1651.01
1122.51	364.1	1612.22
1122.61	364	1624.86
1122.71	363.9	1605.32
1122.81	363.8	1570.45
1122.91	363.7	1559.44
1123.01	363.6	1548.64
1123.11	363.5	1547.58
1123.21	363.4	1542.87
1123.31	363.3	1520.2
1123.41	363.2	1517.95
1123.51	363.1	1525.42
1123.61	363	1521.16
1123.71	362.9	1474.94
1123.81	362.8	1486.25
1123.91	362.7	1451.27
1124.01	362.6	1469.5
1124.11	362.5	1465.73
1124.21	362.4	1474.89
1124.31	362.3	1447.27
1124.41	362.2	1422.06
1124.51	362.1	1433.58
1124.61	362	1448.59
1124.71	361.9	1423.84
1124.81	361.8	1426.82
1124.91	361.7	1405.98
1125.01	361.6	1400.67
1125.11	361.5	1367.82
1125.21	361.4	1388.21
1125.31	361.3	1376.73
1125.41	361.2	1375.61
1125.51	361.1	1377.81
1125.61	361	1373.99
1125.71	360.9	1375.52
1125.81	360.8	1360.39
1125.91	360.7	1347.58
1126.01	360.6	1358.93
1126.11	360.5	1353.22
1126.21	360.4	1343.56
1126.31	360.3	1343.91
1126.41	360.2	1351.1
1126.51	360.1	1341.52
1126.61	360	1357.19
1126.71	359.9	1362.31
1126.81	359.8	1312.48
1126.91	359.7	1324.37
1127.01	359.6	1323.33
1127.11	359.5	1345.81
1127.21	359.4	1343.05
1127.31	359.3	1354.89
1127.41	359.2	1352.54
1127.51	359.1	1336.3
1127.61	359	1337.92
1127.71	358.9	1331.72
1127.81	358.8	1318.05
1127.91	358.7	1326.1
1128.01	358.6	1347.31
1128.11	358.5	1348.26
1128.21	358.4	1327.7
1128.31	358.3	1309.2
1128.41	358.2	1334.23
1128.51	358.1	1338.11
1128.61	358	1306.02
1128.71	357.9	1304.52
1128.81	357.8	1338.27
1128.91	357.7	1300.96
1129.01	357.6	1291.9
1129.11	357.5	1281.57
1129.21	357.4	1317.7
1129.31	357.3	1307.23
1129.41	357.2	1306.84
1129.51	357.1	1303.39
1129.61	357	1312.32
1129.71	356.9	1320.97
1129.81	356.8	1314.03
1129.91	356.7	1283.17
1130.01	356.6	1302.64
1130.11	356.5	1305.32
1130.21	356.4	1305.87
1130.31	356.3	1309.85
1130.41	356.2	1291.61
1130.51	356.1	1293.65
1130.61	356	1252.34
1130.71	355.9	1258.34
1130.81	355.8	1307.07
1130.91	355.7	1317.84
1131.01	355.6	1305.88
1131.11	355.5	1300.21
1131.21	355.4	1300.5
1131.31	355.3	1302.21
1131.41	355.2	1279.65
1131.51	355.1	1298.24
1131.61	355	1301.34
1131.71	354.9	1316.89
1131.81	354.8	1303.06
1131.91	354.7	1283.99
1132.01	354.6	1282.66
1132.11	354.5	1288.15
1132.21	354.4	1287.11
1132.31	354.3	1273.43
1132.41	354.2	1310.38
1132.51	354.1	1293.14
1132.61	354	1292.4
1132.71	353.9	1296.02
1132.81	353.8	1299.78
1132.91	353.7	1290.41
1133.01	353.6	1304.56
1133.11	353.5	1310.69
1133.21	353.4	1284.39
1133.31	353.3	1281.62
1133.41	353.2	1314.48
1133.51	353.1	1295.25
1133.61	353	1269.27
1133.71	352.9	1292.86
1133.81	352.8	1316.24
1133.91	352.7	1330.57
1134.01	352.6	1313.36
1134.11	352.5	1313.92
1134.21	352.4	1302.32
1134.31	352.3	1283.94
1134.41	352.2	1285.08
1134.51	352.1	1274.71
1134.61	352	1303.22
1134.71	351.9	1277.82
1134.81	351.8	1284.94
1134.91	351.7	1300.43
1135.01	351.6	1279.94
1135.11	351.5	1289.29
1135.21	351.4	1299.78
1135.31	351.3	1294.84
1135.41	351.2	1324.08
1135.51	351.1	1301.03
1135.61	351	1293.98
1135.71	350.9	1259.69
1135.81	350.8	1288.2
1135.91	350.7	1288.38
1136.01	350.6	1288.1
1136.11	350.5	1288.4
1136.21	350.4	1312.79
1136.31	350.3	1289.88
1136.41	350.2	1293.49
1136.51	350.1	1289.68
1136.61	350	1298.75