EX322_CEC356_Au_Ag_Cu in H2_1.vms_vb_regions.vms
Survey
	Characteristic Energy eV	1486.61	Acquisition Time s	0.1
KE_Survey	BE_Survey	CPS_Survey	Background_Survey
799.61	687	55886	55886
800.11	686.5	56165.7	56165.7
800.61	686	55897.7	55897.7
801.11	685.5	56292.7	56292.7
801.61	685	56306.8	56306.8
802.11	684.5	56369.9	56369.9
802.61	684	55866.8	55866.8
803.11	683.5	55867.4	55867.4
803.61	683	56449.5	56449.5
804.11	682.5	56625	56625
804.61	682	56823.3	56823.3
805.11	681.5	56761.8	56761.8
805.61	681	56956.9	56956.9
806.11	680.5	56751.3	56751.3
806.61	680	56822.6	56822.6
807.11	679.5	56668.4	56668.4
807.61	679	57093.9	57093.9
808.11	678.5	56937.9	56937.9
808.61	678	57214.9	57214.9
809.11	677.5	57243.4	57243.4
809.61	677	57441.3	57441.3
810.11	676.5	57110.2	57110.2
810.61	676	57386.1	57386.1
811.11	675.5	57344.5	57344.5
811.61	675	57377	57377
812.11	674.5	57653.2	57653.2
812.61	674	57644.2	57644.2
813.11	673.5	57934.6	57934.6
813.61	673	57617	57617
814.11	672.5	57907.6	57907.6
814.61	672	57933.8	57933.8
815.11	671.5	58005.6	58005.6
815.61	671	58078.7	58078.7
816.11	670.5	58095.9	58095.9
816.61	670	58240.5	58240.5
817.11	669.5	58610.3	58610.3
817.61	669	58511	58511
818.11	668.5	58669.6	58669.6
818.61	668	58824.8	58824.8
819.11	667.5	58766.1	58766.1
819.61	667	58759.3	58759.3
820.11	666.5	58600.9	58600.9
820.61	666	58390	58390
821.11	665.5	58818.6	58818.6
821.61	665	59087.5	59087.5
822.11	664.5	59122.4	59122.4
822.61	664	59038.4	59038.4
823.11	663.5	59318.5	59318.5
823.61	663	59309.7	59309.7
824.11	662.5	59285.2	59285.2
824.61	662	59488	59488
825.11	661.5	59299.3	59299.3
825.61	661	59441	59441
826.11	660.5	60108.8	60108.8
826.61	660	60192.6	60192.6
827.11	659.5	60278.3	60278.3
827.61	659	59786	59786
828.11	658.5	59864.5	59864.5
828.61	658	60149.2	60149.2
829.11	657.5	60094.3	60094.3
829.61	657	60308.4	60308.4
830.11	656.5	60273.8	60273.8
830.61	656	60486.5	60486.5
831.11	655.5	60588.2	60588.2
831.61	655	60681.5	60681.5
832.11	654.5	61006	61006
832.61	654	60800.2	60800.2
833.11	653.5	61040.3	61040.3
833.61	653	60992.8	60992.8
834.11	652.5	61258.1	61258.1
834.61	652	60999.2	60999.2
835.11	651.5	61062.8	61062.8
835.61	651	61447.7	61447.7
836.11	650.5	61361.7	61361.7
836.61	650	61499.8	61499.8
837.11	649.5	61669.9	61669.9
837.61	649	61570.1	61570.1
838.11	648.5	61377.9	61377.9
838.61	648	61428.2	61428.2
839.11	647.5	61643.5	61643.5
839.61	647	62032.1	62032.1
840.11	646.5	61940.6	61940.6
840.61	646	62215.1	62215.1
841.11	645.5	61941.8	61941.8
841.61	645	62126.3	62126.3
842.11	644.5	62190.1	62190.1
842.61	644	62552.9	62552.9
843.11	643.5	62420.7	62420.7
843.61	643	62789.2	62789.2
844.11	642.5	63071.6	63071.6
844.61	642	62811.2	62811.2
845.11	641.5	62975	62975
845.61	641	63199.3	63199.3
846.11	640.5	63267.5	63267.5
846.61	640	63662	63662
847.11	639.5	63719.5	63719.5
847.61	639	63835.2	63835.2
848.11	638.5	63684.1	63684.1
848.61	638	63704.6	63704.6
849.11	637.5	64007.2	64007.2
849.61	637	63873.5	63873.5
850.11	636.5	64060.8	64060.8
850.61	636	64380.1	64380.1
851.11	635.5	64366.9	64366.9
851.61	635	64413	64413
852.11	634.5	64454.5	64454.5
852.61	634	64775.6	64775.6
853.11	633.5	64829.5	64829.5
853.61	633	64924.5	64924.5
854.11	632.5	65067.5	65067.5
854.61	632	65336.6	65336.6
855.11	631.5	65505.1	65505.1
855.61	631	65669.1	65669.1
856.11	630.5	65812.4	65812.4
856.61	630	66023.7	66023.7
857.11	629.5	65869.4	65869.4
857.61	629	66109.4	66109.4
858.11	628.5	66037.4	66037.4
858.61	628	66234	66234
859.11	627.5	66513.9	66513.9
859.61	627	66751	66751
860.11	626.5	66973.7	66973.7
860.61	626	66813	66813
861.11	625.5	66940.8	66940.8
861.61	625	67099.2	67099.2
862.11	624.5	67318.9	67318.9
862.61	624	67391.8	67391.8
863.11	623.5	67584	67584
863.61	623	68205.3	68205.3
864.11	622.5	68101.9	68101.9
864.61	622	68149.2	68149.2
865.11	621.5	68529.4	68529.4
865.61	621	68732.7	68732.7
866.11	620.5	69310.2	69310.2
866.61	620	69341.4	69341.4
867.11	619.5	69589.6	69589.6
867.61	619	70265.5	70265.5
868.11	618.5	70576.8	70576.8
868.61	618	70803.9	70803.9
869.11	617.5	70901.6	70901.6
869.61	617	71097.3	71097.3
870.11	616.5	71327.5	71327.5
870.61	616	70896.1	70896.1
871.11	615.5	70251.3	70251.3
871.61	615	69183.7	69183.7
872.11	614.5	68821.6	68821.6
872.61	614	68276.2	68276.2
873.11	613.5	67995.1	67995.1
873.61	613	68528.2	68528.2
874.11	612.5	68055.1	68055.1
874.61	612	67931.9	67931.9
875.11	611.5	68240.5	68240.5
875.61	611	68585.9	68585.9
876.11	610.5	68865.8	68865.8
876.61	610	69113.4	69113.4
877.11	609.5	69844.8	69844.8
877.61	609	70682.6	70682.6
878.11	608.5	71468.8	71468.8
878.61	608	72370.1	72370.1
879.11	607.5	73583.1	73583.1
879.61	607	75846.4	75846.4
880.11	606.5	78603.5	78603.5
880.61	606	82823.3	82823.3
881.11	605.5	88242	88242
881.61	605	94374.5	94374.5
882.11	604.5	99353.7	99353.7
882.61	604	101892	101892
883.11	603.5	99788	99788
883.61	603	94876.6	94876.6
884.11	602.5	88094.1	88094.1
884.61	602	82167.4	82167.4
885.11	601.5	77330.5	77330.5
885.61	601	73416.7	73416.7
886.11	600.5	71006	71006
886.61	600	69799.7	69799.7
887.11	599.5	68401.8	68401.8
887.61	599	67883.1	67883.1
888.11	598.5	67521.6	67521.6
888.61	598	66809.9	66809.9
889.11	597.5	66107.4	66107.4
889.61	597	65765	65765
890.11	596.5	65096.6	65096.6
890.61	596	65801.6	65801.6
891.11	595.5	65662.6	65662.6
891.61	595	65379.3	65379.3
892.11	594.5	65676.8	65676.8
892.61	594	65820.7	65820.7
893.11	593.5	65598.8	65598.8
893.61	593	66102.9	66102.9
894.11	592.5	66125.1	66125.1
894.61	592	66695.2	66695.2
895.11	591.5	66913.8	66913.8
895.61	591	67035.1	67035.1
896.11	590.5	67859.7	67859.7
896.61	590	67821.4	67821.4
897.11	589.5	68142.2	68142.2
897.61	589	68464.6	68464.6
898.11	588.5	69412.9	69412.9
898.61	588	69643.4	69643.4
899.11	587.5	70241	70241
899.61	587	70444.2	70444.2
900.11	586.5	71309	71309
900.61	586	70947.3	70947.3
901.11	585.5	70294.7	70294.7
901.61	585	69402.9	69402.9
902.11	584.5	67559.9	67559.9
902.61	584	66017	66017
903.11	583.5	64937.5	64937.5
903.61	583	63928.9	63928.9
904.11	582.5	63387.6	63387.6
904.61	582	63002.5	63002.5
905.11	581.5	62808.8	62808.8
905.61	581	62514.6	62514.6
906.11	580.5	63197.4	63197.4
906.61	580	63420.5	63420.5
907.11	579.5	63937.6	63937.6
907.61	579	64263.8	64263.8
908.11	578.5	65143.4	65143.4
908.61	578	67145.6	67145.6
909.11	577.5	68949.9	68949.9
909.61	577	71339.2	71339.2
910.11	576.5	74631.4	74631.4
910.61	576	79474.5	79474.5
911.11	575.5	85997.8	85997.8
911.61	575	94615.8	94615.8
912.11	574.5	106364	106364
912.61	574	117073	117073
913.11	573.5	125654	125654
913.61	573	126743	126743
914.11	572.5	121450	121450
914.61	572	109566	109566
915.11	571.5	95924.1	95924.1
915.61	571	82989.2	82989.2
916.11	570.5	73604.6	73604.6
916.61	570	66485	66485
917.11	569.5	62147.3	62147.3
917.61	569	58763.5	58763.5
918.11	568.5	56202.1	56202.1
918.61	568	54309.6	54309.6
919.11	567.5	52617.7	52617.7
919.61	567	51390	51390
920.11	566.5	50544.3	50544.3
920.61	566	50015.4	50015.4
921.11	565.5	49329.5	49329.5
921.61	565	48814.1	48814.1
922.11	564.5	48667.4	48667.4
922.61	564	48459.2	48459.2
923.11	563.5	48237.8	48237.8
923.61	563	47778.5	47778.5
924.11	562.5	47431.3	47431.3
924.61	562	47331.7	47331.7
925.11	561.5	47404	47404
925.61	561	47024.4	47024.4
926.11	560.5	46762.6	46762.6
926.61	560	46784.3	46784.3
927.11	559.5	46850	46850
927.61	559	47062.8	47062.8
928.11	558.5	46909.6	46909.6
928.61	558	46879.6	46879.6
929.11	557.5	46776.9	46776.9
929.61	557	46903.9	46903.9
930.11	556.5	46890.9	46890.9
930.61	556	46657.7	46657.7
931.11	555.5	46772.2	46772.2
931.61	555	46912.2	46912.2
932.11	554.5	46737.4	46737.4
932.61	554	46909.5	46909.5
933.11	553.5	46874.1	46874.1
933.61	553	46698.5	46698.5
934.11	552.5	46808	46808
934.61	552	47129	47129
935.11	551.5	47033.3	47033.3
935.61	551	46550	46550
936.11	550.5	47023.4	47023.4
936.61	550	47042	47042
937.11	549.5	47216.1	47216.1
937.61	549	47393.1	47393.1
938.11	548.5	47055.8	47055.8
938.61	548	47278.1	47278.1
939.11	547.5	47180.7	47180.7
939.61	547	47343.9	47343.9
940.11	546.5	47278.2	47278.2
940.61	546	47173.3	47173.3
941.11	545.5	47442.1	47442.1
941.61	545	47246.4	47246.4
942.11	544.5	47234.6	47234.6
942.61	544	47676.6	47676.6
943.11	543.5	47662.5	47662.5
943.61	543	47743.8	47743.8
944.11	542.5	47699.7	47699.7
944.61	542	47513.6	47513.6
945.11	541.5	47420.5	47420.5
945.61	541	47570.6	47570.6
946.11	540.5	47702.3	47702.3