EX322_CEC356_Au_Ag_Cu in H2_1.vms_vb_regions.vms
Survey
	Characteristic Energy eV	1486.61	Acquisition Time s	0.1
KE_Survey	BE_Survey	CPS_Survey	Background_Survey
799.61	687	67488.9	67488.9
800.11	686.5	67704.2	67704.2
800.61	686	67645.7	67645.7
801.11	685.5	67779.2	67779.2
801.61	685	67555.5	67555.5
802.11	684.5	67310.5	67310.5
802.61	684	67484.8	67484.8
803.11	683.5	67908.5	67908.5
803.61	683	67934	67934
804.11	682.5	68365.5	68365.5
804.61	682	68704.9	68704.9
805.11	681.5	68144.8	68144.8
805.61	681	68065.3	68065.3
806.11	680.5	68043.5	68043.5
806.61	680	67789.4	67789.4
807.11	679.5	68183.9	68183.9
807.61	679	68062.3	68062.3
808.11	678.5	68469.5	68469.5
808.61	678	68793.3	68793.3
809.11	677.5	68695.8	68695.8
809.61	677	68618.2	68618.2
810.11	676.5	68856	68856
810.61	676	68866.3	68866.3
811.11	675.5	68654.9	68654.9
811.61	675	69090.3	69090.3
812.11	674.5	69143.7	69143.7
812.61	674	69260.4	69260.4
813.11	673.5	69311	69311
813.61	673	69513.6	69513.6
814.11	672.5	69375	69375
814.61	672	69342.3	69342.3
815.11	671.5	69308.5	69308.5
815.61	671	69591.6	69591.6
816.11	670.5	69654.2	69654.2
816.61	670	69795.2	69795.2
817.11	669.5	69657.5	69657.5
817.61	669	69640.7	69640.7
818.11	668.5	69717.5	69717.5
818.61	668	69686.9	69686.9
819.11	667.5	70155.1	70155.1
819.61	667	69903.5	69903.5
820.11	666.5	70029	70029
820.61	666	70311.5	70311.5
821.11	665.5	70349	70349
821.61	665	70422	70422
822.11	664.5	70453.1	70453.1
822.61	664	70280.1	70280.1
823.11	663.5	70487	70487
823.61	663	70897	70897
824.11	662.5	71121.9	71121.9
824.61	662	70906.1	70906.1
825.11	661.5	70831.3	70831.3
825.61	661	70935.5	70935.5
826.11	660.5	70947.2	70947.2
826.61	660	71307.6	71307.6
827.11	659.5	71293.4	71293.4
827.61	659	71593.2	71593.2
828.11	658.5	71419.6	71419.6
828.61	658	71766.3	71766.3
829.11	657.5	71695.2	71695.2
829.61	657	71681.5	71681.5
830.11	656.5	71893.1	71893.1
830.61	656	71890.1	71890.1
831.11	655.5	72118	72118
831.61	655	72144.3	72144.3
832.11	654.5	72195.3	72195.3
832.61	654	72453.3	72453.3
833.11	653.5	72357.9	72357.9
833.61	653	72331.6	72331.6
834.11	652.5	72488.6	72488.6
834.61	652	72628.9	72628.9
835.11	651.5	72395.9	72395.9
835.61	651	72753.6	72753.6
836.11	650.5	72624.6	72624.6
836.61	650	72822.8	72822.8
837.11	649.5	72817.9	72817.9
837.61	649	73006.8	73006.8
838.11	648.5	73126.2	73126.2
838.61	648	73278.6	73278.6
839.11	647.5	73264.4	73264.4
839.61	647	73554.1	73554.1
840.11	646.5	73330.4	73330.4
840.61	646	73361.6	73361.6
841.11	645.5	73540.8	73540.8
841.61	645	73623.3	73623.3
842.11	644.5	74062	74062
842.61	644	73886.4	73886.4
843.11	643.5	73946.1	73946.1
843.61	643	73774.6	73774.6
844.11	642.5	73869	73869
844.61	642	73887.3	73887.3
845.11	641.5	74579.4	74579.4
845.61	641	74455.2	74455.2
846.11	640.5	74902.6	74902.6
846.61	640	74716.6	74716.6
847.11	639.5	74672.3	74672.3
847.61	639	74842.9	74842.9
848.11	638.5	75066.6	75066.6
848.61	638	75042.5	75042.5
849.11	637.5	75256.6	75256.6
849.61	637	74531.9	74531.9
850.11	636.5	75527.2	75527.2
850.61	636	75111	75111
851.11	635.5	75462.6	75462.6
851.61	635	75909	75909
852.11	634.5	75755.6	75755.6
852.61	634	75944.3	75944.3
853.11	633.5	76417.2	76417.2
853.61	633	76134.6	76134.6
854.11	632.5	76158.8	76158.8
854.61	632	76549.9	76549.9
855.11	631.5	77003.5	77003.5
855.61	631	76903.1	76903.1
856.11	630.5	77153	77153
856.61	630	77516.6	77516.6
857.11	629.5	77538.2	77538.2
857.61	629	77538.4	77538.4
858.11	628.5	77877	77877
858.61	628	78133.3	78133.3
859.11	627.5	77976.2	77976.2
859.61	627	78305.4	78305.4
860.11	626.5	78226.3	78226.3
860.61	626	78160.1	78160.1
861.11	625.5	78024.5	78024.5
861.61	625	78099.2	78099.2
862.11	624.5	78179.5	78179.5
862.61	624	78071.1	78071.1
863.11	623.5	78264.3	78264.3
863.61	623	78434.8	78434.8
864.11	622.5	78655.8	78655.8
864.61	622	78969.3	78969.3
865.11	621.5	78896.2	78896.2
865.61	621	79013.2	79013.2
866.11	620.5	78702.8	78702.8
866.61	620	78972.9	78972.9
867.11	619.5	79445.3	79445.3
867.61	619	79293.8	79293.8
868.11	618.5	79703.5	79703.5
868.61	618	79700.3	79700.3
869.11	617.5	80024.1	80024.1
869.61	617	79915.5	79915.5
870.11	616.5	79921.6	79921.6
870.61	616	80074.2	80074.2
871.11	615.5	80592.4	80592.4
871.61	615	80281.8	80281.8
872.11	614.5	80495.3	80495.3
872.61	614	80763.1	80763.1
873.11	613.5	81478.4	81478.4
873.61	613	81831.3	81831.3
874.11	612.5	82165.4	82165.4
874.61	612	82438.2	82438.2
875.11	611.5	83000.8	83000.8
875.61	611	83474.3	83474.3
876.11	610.5	83672	83672
876.61	610	84876.8	84876.8
877.11	609.5	85716.8	85716.8
877.61	609	86971.3	86971.3
878.11	608.5	88077.9	88077.9
878.61	608	90321.7	90321.7
879.11	607.5	92906.9	92906.9
879.61	607	96243.4	96243.4
880.11	606.5	100561	100561
880.61	606	107032	107032
881.11	605.5	116566	116566
881.61	605	126190	126190
882.11	604.5	135007	135007
882.61	604	138696	138696
883.11	603.5	136279	136279
883.61	603	127693	127693
884.11	602.5	116394	116394
884.61	602	105406	105406
885.11	601.5	96939.6	96939.6
885.61	601	91437.6	91437.6
886.11	600.5	87380.4	87380.4
886.61	600	84546.2	84546.2
887.11	599.5	82237.1	82237.1
887.61	599	80653.4	80653.4
888.11	598.5	79653.2	79653.2
888.61	598	78671.2	78671.2
889.11	597.5	78218.4	78218.4
889.61	597	77897.4	77897.4
890.11	596.5	77754	77754
890.61	596	77243.5	77243.5
891.11	595.5	76862.2	76862.2
891.61	595	76287.3	76287.3
892.11	594.5	76060.9	76060.9
892.61	594	76221	76221
893.11	593.5	75945	75945
893.61	593	76083.7	76083.7
894.11	592.5	76145.6	76145.6
894.61	592	75879.2	75879.2
895.11	591.5	76194.5	76194.5
895.61	591	76499.9	76499.9
896.11	590.5	76159.1	76159.1
896.61	590	76202.7	76202.7
897.11	589.5	76006.2	76006.2
897.61	589	76401.1	76401.1
898.11	588.5	75882.3	75882.3
898.61	588	76300.2	76300.2
899.11	587.5	76213.4	76213.4
899.61	587	76294	76294
900.11	586.5	76437.1	76437.1
900.61	586	76361.3	76361.3
901.11	585.5	76915.6	76915.6
901.61	585	76640.9	76640.9
902.11	584.5	76797.5	76797.5
902.61	584	76819.7	76819.7
903.11	583.5	76684.2	76684.2
903.61	583	77799.4	77799.4
904.11	582.5	78393.5	78393.5
904.61	582	78900.4	78900.4
905.11	581.5	79968.9	79968.9
905.61	581	80424.2	80424.2
906.11	580.5	80706.1	80706.1
906.61	580	81929.4	81929.4
907.11	579.5	83360	83360
907.61	579	84355.9	84355.9
908.11	578.5	86375.7	86375.7
908.61	578	88557	88557
909.11	577.5	91241.2	91241.2
909.61	577	95744.5	95744.5
910.11	576.5	101641	101641
910.61	576	109149	109149
911.11	575.5	119593	119593
911.61	575	134650	134650
912.11	574.5	153817	153817
912.61	574	172115	172115
913.11	573.5	185061	185061
913.61	573	187283	187283
914.11	572.5	178385	178385
914.61	572	159319	159319
915.11	571.5	136716	136716
915.61	571	115572	115572
916.11	570.5	99706.2	99706.2
916.61	570	88867.3	88867.3
917.11	569.5	80826.9	80826.9
917.61	569	75042.7	75042.7
918.11	568.5	70955.4	70955.4
918.61	568	67641.1	67641.1
919.11	567.5	65226.3	65226.3
919.61	567	63581.9	63581.9
920.11	566.5	61819	61819
920.61	566	60466.2	60466.2
921.11	565.5	59738.8	59738.8
921.61	565	59143.9	59143.9
922.11	564.5	58086.1	58086.1
922.61	564	57789.5	57789.5
923.11	563.5	57244.3	57244.3
923.61	563	56882.4	56882.4
924.11	562.5	56376.1	56376.1
924.61	562	56070.1	56070.1
925.11	561.5	55797.7	55797.7
925.61	561	55693.2	55693.2
926.11	560.5	55396.9	55396.9
926.61	560	55607.4	55607.4
927.11	559.5	55754.7	55754.7
927.61	559	55371.4	55371.4
928.11	558.5	55119.2	55119.2
928.61	558	54996	54996
929.11	557.5	55072.7	55072.7
929.61	557	54983.3	54983.3
930.11	556.5	54962	54962
930.61	556	54729.1	54729.1
931.11	555.5	54998.4	54998.4
931.61	555	55268.2	55268.2
932.11	554.5	54857.5	54857.5
932.61	554	54951.8	54951.8
933.11	553.5	55149.7	55149.7
933.61	553	54980.3	54980.3
934.11	552.5	54898	54898
934.61	552	55126.2	55126.2
935.11	551.5	55050.9	55050.9
935.61	551	54853.7	54853.7
936.11	550.5	54992.7	54992.7
936.61	550	54943.7	54943.7
937.11	549.5	55031.8	55031.8
937.61	549	55117.2	55117.2
938.11	548.5	55274.7	55274.7
938.61	548	55042.1	55042.1
939.11	547.5	55177.3	55177.3
939.61	547	55250.8	55250.8
940.11	546.5	55287.5	55287.5
940.61	546	55579	55579
941.11	545.5	55199.5	55199.5
941.61	545	55296.2	55296.2
942.11	544.5	55219.2	55219.2
942.61	544	55112.7	55112.7
943.11	543.5	55089.4	55089.4
943.61	543	55075.2	55075.2
944.11	542.5	55565.7	55565.7
944.61	542	55760.4	55760.4
945.11	541.5	55521.5	55521.5
945.61	541	55708.7	55708.7
946.11	540.5	55836.9	55836.9