EX322_CEC356_Au_Ag_Cu in H2_1.vms_vb_regions.vms
Survey
	Characteristic Energy eV	1486.61	Acquisition Time s	0.1
KE_Survey	BE_Survey	CPS_Survey	Background_Survey
295.11	1191.5	14073.8	6333.21
295.61	1191	14101.5	6307.36
296.11	1190.5	13994.9	6281.51
296.61	1190	13746.3	6255.66
297.11	1189.5	13890	6229.81
297.61	1189	13882	6203.96
298.11	1188.5	13491.3	6178.11
298.61	1188	13524.8	6152.26
299.11	1187.5	13439.8	6126.41
299.61	1187	13488.3	6100.56
300.11	1186.5	13496.7	6074.71
300.61	1186	13325.1	6048.86
301.11	1185.5	12950.4	6023.01
301.61	1185	13072.9	5997.16
302.11	1184.5	13010.9	5971.31
302.61	1184	12760.3	5945.46
303.11	1183.5	12599.9	5919.61
303.61	1183	12298.8	5893.76
304.11	1182.5	12112.4	5867.91
304.61	1182	11976.9	5842.06
305.11	1181.5	11741.5	5816.21
305.61	1181	11680.5	5790.36
306.11	1180.5	11361.1	5764.51
306.61	1180	11188.2	5738.66
307.11	1179.5	10934.3	5712.82
307.61	1179	10599.3	5686.97
308.11	1178.5	10499.6	5661.12
308.61	1178	10416.8	5635.27
309.11	1177.5	10384.4	5609.42
309.61	1177	10195	5583.57
310.11	1176.5	10121.2	5557.72
310.61	1176	9906.08	5531.87
311.11	1175.5	10057.7	5506.02
311.61	1175	9741.19	5480.17
312.11	1174.5	9762.86	5454.32
312.61	1174	9662.54	5428.47
313.11	1173.5	9834.55	5402.62
313.61	1173	9695.19	5376.77
314.11	1172.5	9596.08	5350.92
314.61	1172	9478.14	5325.07
315.11	1171.5	9550.53	5299.22
315.61	1171	9611.51	5273.37
316.11	1170.5	9587.8	5247.52
316.61	1170	9569.76	5221.67
317.11	1169.5	9606.33	5195.82
317.61	1169	9764.82	5169.97
318.11	1168.5	9691.99	5144.12
318.61	1168	9909.67	5118.27
319.11	1167.5	9792.11	5092.42
319.61	1167	9730.12	5066.57
320.11	1166.5	9975.25	5040.72
320.61	1166	9849.96	5014.87
321.11	1165.5	10024.1	4989.02
321.61	1165	10052.9	4963.17
322.11	1164.5	9980.18	4937.32
322.61	1164	10275.5	4911.47
323.11	1163.5	10185.4	4885.62
323.61	1163	10169.3	4859.77
324.11	1162.5	10034.9	4833.92
324.61	1162	10406.5	4808.07
325.11	1161.5	10533.1	4782.22
325.61	1161	10641.4	4756.37
326.11	1160.5	10504.6	4730.52
326.61	1160	10382.4	4704.67
327.11	1159.5	10620	4678.82
327.61	1159	10797.1	4652.97
328.11	1158.5	10692.6	4627.12
328.61	1158	10907.3	4601.27
329.11	1157.5	10837.2	4575.42
329.61	1157	10618.4	4549.57
330.11	1156.5	10742	4523.72
330.61	1156	10784.8	4497.87
331.11	1155.5	11129.9	4472.02
331.61	1155	11053.7	4446.17
332.11	1154.5	11126	4420.32
332.61	1154	11302.5	4394.47
333.11	1153.5	11436.4	4368.62
333.61	1153	11514.1	4342.77
334.11	1152.5	11605.3	4316.92
334.61	1152	11797.7	4291.07
335.11	1151.5	11830.4	4265.22
335.61	1151	11949.2	4239.37
336.11	1150.5	12096.4	4213.52
336.61	1150	12105.9	4187.67
337.11	1149.5	12280.7	4161.82
337.61	1149	12606.1	4135.97
338.11	1148.5	12740.4	4110.12
338.61	1148	13041.2	4084.28
339.11	1147.5	13179.2	4058.43
339.61	1147	13022.6	4032.58
340.11	1146.5	13148	4006.73
340.61	1146	12890.3	3980.88
341.11	1145.5	12425	3955.03
341.61	1145	12203.9	3929.18
342.11	1144.5	11666.4	3903.33
342.61	1144	11416.9	3877.48
343.11	1143.5	11467.9	3851.63
343.61	1143	11378.7	3825.78
344.11	1142.5	11437.8	3799.93
344.61	1142	11078.4	3774.08
345.11	1141.5	11553.7	3748.23
345.61	1141	11611.6	3722.38
346.11	1140.5	11664.8	3696.53
346.61	1140	11285.5	3670.68
347.11	1139.5	11402.3	3644.83
347.61	1139	11644.6	3618.98
348.11	1138.5	11794.8	3593.13
348.61	1138	11952.5	3567.28
349.11	1137.5	12506.3	3541.43
349.61	1137	13050.4	3515.58
350.11	1136.5	13524.1	3489.73
350.61	1136	15161.7	3463.88
351.11	1135.5	17639.7	3438.03
351.61	1135	19573.6	3412.18
352.11	1134.5	20774	3386.33
352.61	1134	21161.1	3360.48
353.11	1133.5	20314.2	3334.63
353.61	1133	18835.8	3308.78
354.11	1132.5	16627.7	3282.93
354.61	1132	15145.8	3257.08
355.11	1131.5	13603	3231.23
355.61	1131	12507.7	3205.38
356.11	1130.5	12154.1	3179.53
356.61	1130	12613.9	3153.68
357.11	1129.5	13754.5	3127.83
357.61	1129	14693.8	3101.98
358.11	1128.5	14688.3	3076.13
358.61	1128	13728.1	3050.28
359.11	1127.5	11428.1	3024.43
359.61	1127	8633.55	2998.58
360.11	1126.5	6705.73	2972.73
360.61	1126	5496.21	2946.88
361.11	1125.5	4382.43	2921.03
361.61	1125	3866.97	2895.18
362.11	1124.5	3327.93	2869.33
362.61	1124	3170.21	2843.48
363.11	1123.5	2873.47	2817.63
363.61	1123	2598.06	2791.78
364.11	1122.5	2346.98	2765.93
364.61	1122	2021.61	2740.08
365.11	1121.5	1688.04	2714.23
365.61	1121	1512.26	2688.38
366.11	1120.5	1330.62	2662.53
366.61	1120	1128.54	2636.68
367.11	1119.5	1182.44	2610.83
367.61	1119	1035.73	2584.98
368.11	1118.5	876.003	2559.13
368.61	1118	946.774	2533.28
369.11	1117.5	940.048	2507.43
369.61	1117	706.713	2481.58
370.11	1116.5	864.947	2455.73
370.61	1116	683.098	2429.89
371.11	1115.5	543.775	2404.04
371.61	1115	500.513	2378.19
372.11	1114.5	535.22	2352.34
372.61	1114	472.518	2326.49
373.11	1113.5	484.89	2300.64
373.61	1113	445.882	2274.79
374.11	1112.5	427.838	2248.94
374.61	1112	313.59	2223.09
375.11	1111.5	325.145	2197.24
375.61	1111	498.085	2171.39
376.11	1110.5	363.677	2145.54
376.61	1110	281.741	2119.69
377.11	1109.5	309.238	2093.84
377.61	1109	314.378	2067.99
378.11	1108.5	381.171	2042.14
378.61	1108	364.042	2016.29
379.11	1107.5	420.801	1990.44
379.61	1107	145.001	1964.59
380.11	1106.5	295.67	1938.74
380.61	1106	299.909	1912.89
381.11	1105.5	118.159	1887.04
381.61	1105	180.806	1861.19
382.11	1104.5	-84.9967	1835.34
382.61	1104	161.894	1809.49
383.11	1103.5	106.439	1783.64
383.61	1103	40.0428	1757.79
384.11	1102.5	106.412	1731.94
384.61	1102	218.148	1706.09
385.11	1101.5	75.3112	1680.24
385.61	1101	121.987	1654.39
386.11	1100.5	60.5385	1628.54
386.61	1100	115.672	1602.69
387.11	1099.5	195.492	1576.84
387.61	1099	162.703	1550.99
388.11	1098.5	34.464	1525.14
388.61	1098	62.3783	1499.29
389.11	1097.5	108.464	1473.44
389.61	1097	46.9408	1447.59
390.11	1096.5	178.331	1421.74
390.61	1096	175.796	1395.89
391.11	1095.5	136.484	1370.04
391.61	1095	-65.1704	1344.19
392.11	1094.5	-55.9147	1318.34
392.61	1094	65.9602	1292.49
393.11	1093.5	135.032	1266.64
393.61	1093	200.767	1240.79
394.11	1092.5	13.9233	1214.94
394.61	1092	67.5127	1189.09
395.11	1091.5	75.1615	1163.24
395.61	1091	47.0636	1137.39
396.11	1090.5	166.358	1111.54
396.61	1090	210.874	1085.69
397.11	1089.5	96.9497	1059.84
397.61	1089	-15.5555	1033.99
398.11	1088.5	96.3493	1008.14
398.61	1088	190.034	982.294
399.11	1087.5	240.178	956.444
399.61	1087	-227.194	930.594
400.11	1086.5	-111.505	904.744
400.61	1086	2.30243	878.895
401.11	1085.5	136.869	853.045
401.61	1085	93.027	827.195
402.11	1084.5	60.8109	801.345
402.61	1084	96.6563	775.495
403.11	1083.5	272.175	749.645
403.61	1083	-3.43852	723.796
404.11	1082.5	76.4601	697.946
404.61	1082	-42.1499	672.096
405.11	1081.5	79.0953	646.246
405.61	1081	70.9969	620.396
406.11	1080.5	40.9235	594.546
406.61	1080	-8.0398	568.697
407.11	1079.5	-82.7361	542.847
407.61	1079	125.872	516.997
408.11	1078.5	35.6601	491.147
408.61	1078	-16.0697	465.297
409.11	1077.5	92.3937	439.447
409.61	1077	28.7535	413.597
410.11	1076.5	91.6541	387.748
410.61	1076	-35.7056	361.898
411.11	1075.5	102.9	336.048
411.61	1075	52.3025	310.198
412.11	1074.5	-30.3407	284.348
412.61	1074	-17.1263	258.498
413.11	1073.5	193.073	232.649
413.61	1073	-39.277	206.799
414.11	1072.5	-1.76775	180.949
414.61	1072	42.8619	155.099
415.11	1071.5	-22.1826	129.249
415.61	1071	-31.3247	103.399
416.11	1070.5	107.372	77.5495
416.61	1070	76.9923	51.6997
417.11	1069.5	41.1914	25.8498
417.61	1069	0	0