EX322_CEC356_Au_Ag_Cu in H2_1.vms_vb_regions.vms
Survey
	Characteristic Energy eV	1486.61	Acquisition Time s	0.1
KE_Survey	BE_Survey	CPS_Survey	Background_Survey
1299.11	187.5	12508.4	12508.4
1299.61	187	12578.6	12578.6
1300.11	186.5	12659.2	12659.2
1300.61	186	12733.8	12733.8
1301.11	185.5	12842.2	12842.2
1301.61	185	12842.7	12842.7
1302.11	184.5	12435.7	12435.7
1302.61	184	12763.7	12763.7
1303.11	183.5	12712.5	12712.5
1303.61	183	12667.2	12667.2
1304.11	182.5	12736.3	12736.3
1304.61	182	12798.7	12798.7
1305.11	181.5	12694.9	12694.9
1305.61	181	12729.8	12729.8
1306.11	180.5	12873	12873
1306.61	180	12896.2	12896.2
1307.11	179.5	12755.3	12755.3
1307.61	179	12725.7	12725.7
1308.11	178.5	12690.1	12690.1
1308.61	178	12661.5	12661.5
1309.11	177.5	12843.4	12843.4
1309.61	177	12942.8	12942.8
1310.11	176.5	12887.1	12887.1
1310.61	176	12792	12792
1311.11	175.5	13040.6	13040.6
1311.61	175	13178.8	13178.8
1312.11	174.5	12904.8	12904.8
1312.61	174	13028.3	13028.3
1313.11	173.5	13180.9	13180.9
1313.61	173	12973.3	12973.3
1314.11	172.5	13045.4	13045.4
1314.61	172	13124.2	13124.2
1315.11	171.5	13176.2	13176.2
1315.61	171	12957.9	12957.9
1316.11	170.5	13075.2	13075.2
1316.61	170	13240.7	13240.7
1317.11	169.5	13138.3	13138.3
1317.61	169	13196.9	13196.9
1318.11	168.5	13359.7	13359.7
1318.61	168	13307.6	13307.6
1319.11	167.5	13307.7	13307.7
1319.61	167	13213.7	13213.7
1320.11	166.5	13197.9	13197.9
1320.61	166	13307.1	13307.1
1321.11	165.5	13293.6	13293.6
1321.61	165	13112.4	13112.4
1322.11	164.5	13246.1	13246.1
1322.61	164	13430.8	13430.8
1323.11	163.5	13449.7	13449.7
1323.61	163	13456.4	13456.4
1324.11	162.5	13474.8	13474.8
1324.61	162	13446.2	13446.2
1325.11	161.5	13504.9	13504.9
1325.61	161	13433	13433
1326.11	160.5	13465.6	13465.6
1326.61	160	13503.9	13503.9
1327.11	159.5	13512.4	13512.4
1327.61	159	13556.5	13556.5
1328.11	158.5	13655.7	13655.7
1328.61	158	13598.5	13598.5
1329.11	157.5	13389	13389
1329.61	157	13530.8	13530.8
1330.11	156.5	13580	13580
1330.61	156	13653.1	13653.1
1331.11	155.5	13743.5	13743.5
1331.61	155	13697.6	13697.6
1332.11	154.5	13673.6	13673.6
1332.61	154	13683.5	13683.5
1333.11	153.5	13751.1	13751.1
1333.61	153	13859.2	13859.2
1334.11	152.5	13794.2	13794.2
1334.61	152	13638.2	13638.2
1335.11	151.5	13739.1	13739.1
1335.61	151	13910.9	13910.9
1336.11	150.5	13857.1	13857.1
1336.61	150	13793.1	13793.1
1337.11	149.5	13829.7	13829.7
1337.61	149	14009.9	14009.9
1338.11	148.5	14020.8	14020.8
1338.61	148	14177.4	14177.4
1339.11	147.5	13910.9	13910.9
1339.61	147	13983.6	13983.6
1340.11	146.5	13962.5	13962.5
1340.61	146	14102.9	14102.9
1341.11	145.5	14205.7	14205.7
1341.61	145	14095.5	14095.5
1342.11	144.5	14118.8	14118.8
1342.61	144	14116.4	14116.4
1343.11	143.5	14089.5	14089.5
1343.61	143	14059.9	14059.9
1344.11	142.5	14279.3	14279.3
1344.61	142	14300.7	14300.7
1345.11	141.5	14477.5	14477.5
1345.61	141	14316.2	14316.2
1346.11	140.5	14170.9	14170.9
1346.61	140	14261.2	14261.2
1347.11	139.5	14137.9	14137.9
1347.61	139	14169	14169
1348.11	138.5	14499.9	14499.9
1348.61	138	14434.7	14434.7
1349.11	137.5	14488.8	14488.8
1349.61	137	14388.1	14388.1
1350.11	136.5	14479.3	14479.3
1350.61	136	14567	14567
1351.11	135.5	14562	14562
1351.61	135	14409	14409
1352.11	134.5	14405.8	14405.8
1352.61	134	14538.1	14538.1
1353.11	133.5	14639.5	14639.5
1353.61	133	14691.7	14691.7
1354.11	132.5	14627.8	14627.8
1354.61	132	14737.6	14737.6
1355.11	131.5	14716.5	14716.5
1355.61	131	14791.3	14791.3
1356.11	130.5	14640.9	14640.9
1356.61	130	14854.4	14854.4
1357.11	129.5	14789.6	14789.6
1357.61	129	14810.3	14810.3
1358.11	128.5	14834.8	14834.8
1358.61	128	14698.1	14698.1
1359.11	127.5	14763.9	14763.9
1359.61	127	14924.7	14924.7
1360.11	126.5	14935.8	14935.8
1360.61	126	15048.3	15048.3
1361.11	125.5	15068.2	15068.2
1361.61	125	14989.6	14989.6
1362.11	124.5	14918	14918
1362.61	124	15028.6	15028.6
1363.11	123.5	15185.2	15185.2
1363.61	123	15047.1	15047.1
1364.11	122.5	15102.7	15102.7
1364.61	122	15189	15189
1365.11	121.5	15241.1	15241.1
1365.61	121	15201.4	15201.4
1366.11	120.5	15103.9	15103.9
1366.61	120	15324.5	15324.5
1367.11	119.5	15294.4	15294.4
1367.61	119	15273.6	15273.6
1368.11	118.5	15273.7	15273.7
1368.61	118	15515.5	15515.5
1369.11	117.5	15506	15506
1369.61	117	15733.6	15733.6
1370.11	116.5	15685.5	15685.5
1370.61	116	15476.9	15476.9
1371.11	115.5	15558.4	15558.4
1371.61	115	15960.9	15960.9
1372.11	114.5	15832.8	15832.8
1372.61	114	15754.5	15754.5
1373.11	113.5	15829.5	15829.5
1373.61	113	15998.6	15998.6
1374.11	112.5	15839.3	15839.3
1374.61	112	15686.9	15686.9
1375.11	111.5	16046.4	16046.4
1375.61	111	16060.1	16060.1
1376.11	110.5	16389.4	16389.4
1376.61	110	16080.5	16080.5
1377.11	109.5	16031.4	16031.4
1377.61	109	16071.2	16071.2
1378.11	108.5	15913.6	15913.6
1378.61	108	15902.6	15902.6
1379.11	107.5	15863.7	15863.7
1379.61	107	16049.5	16049.5
1380.11	106.5	16053.9	16053.9
1380.61	106	16048.2	16048.2
1381.11	105.5	16121.8	16121.8
1381.61	105	16113.3	16113.3
1382.11	104.5	16084	16084
1382.61	104	16219.6	16219.6
1383.11	103.5	16388.3	16388.3
1383.61	103	16441.5	16441.5
1384.11	102.5	16767.7	16767.7
1384.61	102	17060.9	17060.9
1385.11	101.5	17286.2	17286.2
1385.61	101	17660.6	17660.6
1386.11	100.5	17974	17974
1386.61	100	18391.6	18391.6
1387.11	99.5	18874.7	18874.7
1387.61	99	19582.8	19582.8
1388.11	98.5	20156	20156
1388.61	98	20556.6	20556.6
1389.11	97.5	21015.9	21015.9
1389.61	97	21125.1	21125.1
1390.11	96.5	20828.4	20828.4
1390.61	96	20225.5	20225.5
1391.11	95.5	19472.2	19472.2
1391.61	95	18657.4	18657.4
1392.11	94.5	17910.7	17910.7
1392.61	94	17368.9	17368.9
1393.11	93.5	16862.2	16862.2
1393.61	93	16550.5	16550.5
1394.11	92.5	16151.8	16151.8
1394.61	92	15869.9	15869.9
1395.11	91.5	15909.9	15909.9
1395.61	91	15702.3	15702.3
1396.11	90.5	15776.4	15776.4
1396.61	90	15498.9	15498.9
1397.11	89.5	15521.7	15521.7
1397.61	89	15543.1	15543.1
1398.11	88.5	15392.1	15392.1
1398.61	88	15593.3	15593.3
1399.11	87.5	15574.2	15574.2
1399.61	87	15542	15542
1400.11	86.5	15669.4	15669.4
1400.61	86	15756.2	15756.2
1401.11	85.5	15632.9	15632.9
1401.61	85	15709.1	15709.1
1402.11	84.5	15844.5	15844.5
1402.61	84	15852.8	15852.8
1403.11	83.5	15815.5	15815.5
1403.61	83	15788.9	15788.9
1404.11	82.5	15987.1	15987.1
1404.61	82	16054.1	16054.1
1405.11	81.5	16093.1	16093.1
1405.61	81	16097.2	16097.2
1406.11	80.5	16058.4	16058.4
1406.61	80	16186.5	16186.5
1407.11	79.5	16306.2	16306.2
1407.61	79	16392.4	16392.4
1408.11	78.5	16475.7	16475.7
1408.61	78	16556.3	16556.3
1409.11	77.5	16633.4	16633.4
1409.61	77	16628.7	16628.7
1410.11	76.5	16813.5	16813.5
1410.61	76	16979.9	16979.9
1411.11	75.5	16832.6	16832.6
1411.61	75	16790.4	16790.4
1412.11	74.5	16951.2	16951.2
1412.61	74	17010.9	17010.9
1413.11	73.5	17070.5	17070.5
1413.61	73	17156.4	17156.4
1414.11	72.5	17223.1	17223.1
1414.61	72	17317.3	17317.3
1415.11	71.5	17320.2	17320.2
1415.61	71	17410.2	17410.2
1416.11	70.5	17610.6	17610.6
1416.61	70	17649.1	17649.1
1417.11	69.5	17854.2	17854.2
1417.61	69	18116.5	18116.5
1418.11	68.5	18336.4	18336.4
1418.61	68	18602.7	18602.7
1419.11	67.5	18928.6	18928.6
1419.61	67	19390.1	19390.1
1420.11	66.5	20131.8	20131.8
1420.61	66	20421.4	20421.4
1421.11	65.5	20741.3	20741.3
1421.61	65	20953.2	20953.2
1422.11	64.5	21449	21449
1422.61	64	21774.4	21774.4
1423.11	63.5	21776.2	21776.2
1423.61	63	21944.9	21944.9
1424.11	62.5	22223.4	22223.4
1424.61	62	22406	22406
1425.11	61.5	22490.4	22490.4
1425.61	61	22790.2	22790.2
1426.11	60.5	22961.9	22961.9
1426.61	60	22968.1	22968.1
1427.11	59.5	23294.2	23294.2
1427.61	59	23383	23383
1428.11	58.5	23137.6	23137.6
1428.61	58	23083.8	23083.8
1429.11	57.5	22500.1	22500.1
1429.61	57	21844.6	21844.6
1430.11	56.5	20692.3	20692.3
1430.61	56	19809.9	19809.9
1431.11	55.5	18574.8	18574.8
1431.61	55	17371.4	17371.4
1432.11	54.5	16071.4	16071.4
1432.61	54	14740.6	14740.6
1433.11	53.5	13865.9	13865.9
1433.61	53	12770.1	12770.1
1434.11	52.5	12099.1	12099.1
1434.61	52	11279.1	11279.1
1435.11	51.5	10603.7	10603.7
1435.61	51	10207.9	10207.9
1436.11	50.5	9752.1	9752.1
1436.61	50	9234.92	9234.92
1437.11	49.5	8996.96	8996.96
1437.61	49	8804.97	8804.97
1438.11	48.5	8485.22	8485.22
1438.61	48	8343.84	8343.84
1439.11	47.5	8019.37	8019.37
1439.61	47	8025.25	8025.25
1440.11	46.5	7871.12	7871.12
1440.61	46	7670.12	7670.12
1441.11	45.5	7588.94	7588.94
1441.61	45	7506.95	7506.95
1442.11	44.5	7369.89	7369.89
1442.61	44	7493.04	7493.04
1443.11	43.5	7472.7	7472.7
1443.61	43	7432.59	7432.59
1444.11	42.5	7509.46	7509.46
1444.61	42	7506.47	7506.47
1445.11	41.5	7381.93	7381.93
1445.61	41	7436.35	7436.35
1446.11	40.5	7413.89	7413.89
1446.61	40	7390.82	7390.82
1447.11	39.5	7353.76	7353.76
1447.61	39	7461.06	7461.06
1448.11	38.5	7475.69	7475.69
1448.61	38	7445.89	7445.89
1449.11	37.5	7525.36	7525.36
1449.61	37	7405.43	7405.43
1450.11	36.5	7403.49	7403.49
1450.61	36	7485.91	7485.91
1451.11	35.5	7460.75	7460.75
1451.61	35	7614.12	7614.12
1452.11	34.5	7673.31	7673.31
1452.61	34	7806.36	7806.36
1453.11	33.5	7858.94	7858.94
1453.61	33	7897.39	7897.39
1454.11	32.5	8019.55	8019.55
1454.61	32	8035.34	8035.34
1455.11	31.5	8076.64	8076.64
1455.61	31	8131.45	8131.45
1456.11	30.5	8260.55	8260.55
1456.61	30	8225.15	8225.15
1457.11	29.5	8179.79	8179.79
1457.61	29	8059.42	8059.42
1458.11	28.5	8075.53	8075.53
1458.61	28	8045.73	8045.73
1459.11	27.5	7991.67	7991.67
1459.61	27	8042.9	8042.9
1460.11	26.5	8095.44	8095.44
1460.61	26	8231.66	8231.66
1461.11	25.5	8392.69	8392.69
1461.61	25	8523.19	8523.19
1462.11	24.5	8596.55	8596.55
1462.61	24	8587.93	8587.93
1463.11	23.5	8711.88	8711.88
1463.61	23	9041.14	9041.14
1464.11	22.5	9136.63	9136.63
1464.61	22	9140.41	9140.41
1465.11	21.5	9335.04	9335.04
1465.61	21	9765.15	9765.15
1466.11	20.5	9935.17	9935.17
1466.61	20	10221	10221
1467.11	19.5	10613.5	10613.5
1467.61	19	10796.2	10796.2
1468.11	18.5	10970.2	10970.2
1468.61	18	10786	10786
1469.11	17.5	10296.4	10296.4
1469.61	17	9873.74	9873.74
1470.11	16.5	8872.64	8872.64
1470.61	16	7964.96	7964.96
1471.11	15.5	7518.32	7518.32
1471.61	15	7266.71	7266.71
1472.11	14.5	7195.32	7195.32
1472.61	14	7168.39	7168.39
1473.11	13.5	7133.13	7133.13
1473.61	13	7136.96	7136.96
1474.11	12.5	7023.9	7023.9
1474.61	12	7030.32	7030.32
1475.11	11.5	7123.15	7123.15
1475.61	11	7330.91	7330.91
1476.11	10.5	7653.82	7653.82
1476.61	10	7779.26	7779.26
1477.11	9.5	8502.47	8502.47
1477.61	9	9843.89	9843.89
1478.11	8.5	12479.3	12479.3
1478.61	8	17332.5	17332.5
1479.11	7.5	24850.6	24850.6
1479.61	7	33174.4	33174.4
1480.11	6.5	40549.5	40549.5
1480.61	6	45290.2	45290.2
1481.11	5.5	47132.6	47132.6
1481.61	5	46429.6	46429.6
1482.11	4.5	41418.7	41418.7
1482.61	4	30983.4	30983.4
1483.11	3.5	19465	19465
1483.61	3	9889.82	9889.82
1484.11	2.5	4724.85	4724.85
1484.61	2	3201.3	3201.3
1485.11	1.5	2715.63	2715.63
1485.61	1	2377.44	2377.44
1486.11	0.5	1920.69	1920.69