C:\Users\Mark\ownCloud\Muelheim Group\Projects\Gas phase background\EX322_CEC356_Au_Ag_Cu in H2_1.vms.vms
Au4f
	Characteristic Energy eV	1486.61	Acquisition Time s	0.9
KE_Au4f	BE_Au4f	CPS_Au4f
1311.61	175	9284.28
1311.71	174.9	9237.06
1311.81	174.8	9249.69
1311.91	174.7	9203.24
1312.01	174.6	9245.62
1312.11	174.5	9246.34
1312.21	174.4	9217.41
1312.31	174.3	9309.92
1312.41	174.2	9250.14
1312.51	174.1	9318.04
1312.61	174	9246.9
1312.71	173.9	9262.2
1312.81	173.8	9220.28
1312.91	173.7	9356.65
1313.01	173.6	9278.74
1313.11	173.5	9341.76
1313.21	173.4	9259.37
1313.31	173.3	9234.71
1313.41	173.2	9260.66
1313.51	173.1	9294.64
1313.61	173	9307.92
1313.71	172.9	9294.59
1313.81	172.8	9327.6
1313.91	172.7	9379.63
1314.01	172.6	9343.16
1314.11	172.5	9376.55
1314.21	172.4	9334.28
1314.31	172.3	9362.33
1314.41	172.2	9357.62
1314.51	172.1	9360.49
1314.61	172	9368.48
1314.71	171.9	9300.32
1314.81	171.8	9308.82
1314.91	171.7	9336.5
1315.01	171.6	9328.5
1315.11	171.5	9285.37
1315.21	171.4	9298.88
1315.31	171.3	9364.1
1315.41	171.2	9289.24
1315.51	171.1	9306.01
1315.61	171	9349.55
1315.71	170.9	9373.7
1315.81	170.8	9368.85
1315.91	170.7	9283.01
1316.01	170.6	9322.01
1316.11	170.5	9347.76
1316.21	170.4	9293.57
1316.31	170.3	9275.79
1316.41	170.2	9334.79
1316.51	170.1	9352.87
1316.61	170	9362.97
1316.71	169.9	9369.74
1316.81	169.8	9410.16
1316.91	169.7	9323.59
1317.01	169.6	9364.69
1317.11	169.5	9307.12
1317.21	169.4	9312.04
1317.31	169.3	9348.36
1317.41	169.2	9338.94
1317.51	169.1	9313.83
1317.61	169	9401.06
1317.71	168.9	9425.23
1317.81	168.8	9388.59
1317.91	168.7	9438.76
1318.01	168.6	9432.1
1318.11	168.5	9367.33
1318.21	168.4	9418.74
1318.31	168.3	9422.65
1318.41	168.2	9481.49
1318.51	168.1	9367.73
1318.61	168	9312.78
1318.71	167.9	9351.42
1318.81	167.8	9379.52
1318.91	167.7	9438.83
1319.01	167.6	9425.72
1319.11	167.5	9373.41
1319.21	167.4	9398.31
1319.31	167.3	9388.23
1319.41	167.2	9371.85
1319.51	167.1	9442.9
1319.61	167	9375.55
1319.71	166.9	9343.07
1319.81	166.8	9371.42
1319.91	166.7	9369.95
1320.01	166.6	9403.63
1320.11	166.5	9437.9
1320.21	166.4	9434.42
1320.31	166.3	9503.78
1320.41	166.2	9415.72
1320.51	166.1	9426.45
1320.61	166	9430.92
1320.71	165.9	9395.04
1320.81	165.8	9359.73
1320.91	165.7	9443.11
1321.01	165.6	9399.31
1321.11	165.5	9427.59
1321.21	165.4	9437.44
1321.31	165.3	9509.03
1321.41	165.2	9413.84
1321.51	165.1	9495.77
1321.61	165	9438.05
1321.71	164.9	9381.71
1321.81	164.8	9375.18
1321.91	164.7	9460.67
1322.01	164.6	9503.69
1322.11	164.5	9547.95
1322.21	164.4	9488.23
1322.31	164.3	9521.36
1322.41	164.2	9451.04
1322.51	164.1	9410.7
1322.61	164	9531.38
1322.71	163.9	9526.44
1322.81	163.8	9529.58
1322.91	163.7	9596.34
1323.01	163.6	9505.22
1323.11	163.5	9494.84
1323.21	163.4	9538.23
1323.31	163.3	9560.57
1323.41	163.2	9467.14
1323.51	163.1	9562.99
1323.61	163	9483.31
1323.71	162.9	9512.98
1323.81	162.8	9577.91
1323.91	162.7	9509.01
1324.01	162.6	9653.77
1324.11	162.5	9606.19
1324.21	162.4	9611.06
1324.31	162.3	9575.91
1324.41	162.2	9561.45
1324.51	162.1	9526.42
1324.61	162	9492.17
1324.71	161.9	9470.49
1324.81	161.8	9550.63
1324.91	161.7	9612.67
1325.01	161.6	9546.71
1325.11	161.5	9548.93
1325.21	161.4	9508.79
1325.31	161.3	9565.47
1325.41	161.2	9519.67
1325.51	161.1	9643.74
1325.61	161	9597.36
1325.71	160.9	9565.76
1325.81	160.8	9581.13
1325.91	160.7	9630.66
1326.01	160.6	9605.69
1326.11	160.5	9642.15
1326.21	160.4	9615.47
1326.31	160.3	9655.35
1326.41	160.2	9592.59
1326.51	160.1	9572.55
1326.61	160	9661.67
1326.71	159.9	9597.3
1326.81	159.8	9616.27
1326.91	159.7	9636.4
1327.01	159.6	9613.97
1327.11	159.5	9671.65
1327.21	159.4	9663.99
1327.31	159.3	9612.55
1327.41	159.2	9702.68
1327.51	159.1	9589.54
1327.61	159	9598.49
1327.71	158.9	9623.64
1327.81	158.8	9689.92
1327.91	158.7	9667.07
1328.01	158.6	9657.43
1328.11	158.5	9638.17
1328.21	158.4	9679.11
1328.31	158.3	9665.85
1328.41	158.2	9747.4
1328.51	158.1	9678.23
1328.61	158	9700.69
1328.71	157.9	9737.11
1328.81	157.8	9741.2
1328.91	157.7	9798.09
1329.01	157.6	9669.02
1329.11	157.5	9718
1329.21	157.4	9704.17
1329.31	157.3	9679.75
1329.41	157.2	9692.51
1329.51	157.1	9687.9
1329.61	157	9687.97
1329.71	156.9	9806.72
1329.81	156.8	9753.99
1329.91	156.7	9722.73
1330.01	156.6	9741.05
1330.11	156.5	9785.76
1330.21	156.4	9832.95
1330.31	156.3	9806.42
1330.41	156.2	9752.55
1330.51	156.1	9788.29
1330.61	156	9745.54
1330.71	155.9	9729.31
1330.81	155.8	9807.51
1330.91	155.7	9821.32
1331.01	155.6	9814.46
1331.11	155.5	9760.9
1331.21	155.4	9797.04
1331.31	155.3	9820.49
1331.41	155.2	9812.31
1331.51	155.1	9890.07
1331.61	155	9847.98
1331.71	154.9	9855.36
1331.81	154.8	9897.36
1331.91	154.7	9877.51
1332.01	154.6	9879.28
1332.11	154.5	9822.54
1332.21	154.4	9780.5
1332.31	154.3	9788.02
1332.41	154.2	9789.62
1332.51	154.1	9862.54
1332.61	154	9904.67
1332.71	153.9	9939.85
1332.81	153.8	9846.35
1332.91	153.7	9838.19
1333.01	153.6	9824.79
1333.11	153.5	9925.96
1333.21	153.4	9901.73
1333.31	153.3	9833.21
1333.41	153.2	9941.29
1333.51	153.1	9866.83
1333.61	153	9882.77
1333.71	152.9	9866.65
1333.81	152.8	9869.02
1333.91	152.7	9932.65
1334.01	152.6	9954.04
1334.11	152.5	9907.81
1334.21	152.4	9895.48
1334.31	152.3	9988.77
1334.41	152.2	9929.1
1334.51	152.1	9962.04
1334.61	152	9986.98
1334.71	151.9	9978.08
1334.81	151.8	9898.96
1334.91	151.7	10023.7
1335.01	151.6	10009
1335.11	151.5	10002.5
1335.21	151.4	9927.25
1335.31	151.3	9972.15
1335.41	151.2	9981.28
1335.51	151.1	10061.2
1335.61	151	10033.4
1335.71	150.9	10023
1335.81	150.8	9984.17
1335.91	150.7	10025.7
1336.01	150.6	10076
1336.11	150.5	10078.5
1336.21	150.4	10058.5
1336.31	150.3	10050.7
1336.41	150.2	10010.8
1336.51	150.1	10041
1336.61	150	9995.5
1336.71	149.9	9993.65
1336.81	149.8	10005.3
1336.91	149.7	9913.31
1337.01	149.6	10080.3
1337.11	149.5	10101.7
1337.21	149.4	10000.6
1337.31	149.3	10059.9
1337.41	149.2	10044.3
1337.51	149.1	10120.6
1337.61	149	10021.2
1337.71	148.9	9995.44
1337.81	148.8	10059.8
1337.91	148.7	10117.3
1338.01	148.6	10119.6
1338.11	148.5	10124.3
1338.21	148.4	10095.2
1338.31	148.3	10069.8
1338.41	148.2	10045
1338.51	148.1	10046.4
1338.61	148	10094.7
1338.71	147.9	10103.5
1338.81	147.8	10114
1338.91	147.7	10085.5
1339.01	147.6	10046.9
1339.11	147.5	10139.6
1339.21	147.4	10113.8
1339.31	147.3	10149.6
1339.41	147.2	10074.6
1339.51	147.1	10110.8
1339.61	147	10075.3
1339.71	146.9	10145.7
1339.81	146.8	10112.3
1339.91	146.7	10144.3
1340.01	146.6	10146.8
1340.11	146.5	10146.3
1340.21	146.4	10117.7
1340.31	146.3	10130.8
1340.41	146.2	10145.8
1340.51	146.1	10097.3
1340.61	146	10099
1340.71	145.9	10142.5
1340.81	145.8	10242.4
1340.91	145.7	10132.4
1341.01	145.6	10153
1341.11	145.5	10228.1
1341.21	145.4	10151.3
1341.31	145.3	10132.9
1341.41	145.2	10072.1
1341.51	145.1	10219.8
1341.61	145	10147.1
1341.71	144.9	10074.6
1341.81	144.8	10175.8
1341.91	144.7	10131.4
1342.01	144.6	10134.2
1342.11	144.5	10218.9
1342.21	144.4	10187.6
1342.31	144.3	10151.4
1342.41	144.2	10160.8
1342.51	144.1	10197.7
1342.61	144	10083.7
1342.71	143.9	10142.8
1342.81	143.8	10160.3
1342.91	143.7	10140.7
1343.01	143.6	10179.4
1343.11	143.5	10096.8
1343.21	143.4	10113
1343.31	143.3	10171.2
1343.41	143.2	10175.1
1343.51	143.1	10191.9
1343.61	143	10150.8
1343.71	142.9	10219.5
1343.81	142.8	10204.6
1343.91	142.7	10184.1
1344.01	142.6	10208.3
1344.11	142.5	10122.8
1344.21	142.4	10337.7
1344.31	142.3	10250.9
1344.41	142.2	10266.1
1344.51	142.1	10235.5
1344.61	142	10226.1
1344.71	141.9	10218
1344.81	141.8	10164.5
1344.91	141.7	10213.4
1345.01	141.6	10244.5
1345.11	141.5	10230.7
1345.21	141.4	10243.7
1345.31	141.3	10260.7
1345.41	141.2	10293.8
1345.51	141.1	10268.5
1345.61	141	10228.6
1345.71	140.9	10178.3
1345.81	140.8	10287.7
1345.91	140.7	10328.3
1346.01	140.6	10212.9
1346.11	140.5	10190.2
1346.21	140.4	10290.1
1346.31	140.3	10300.9
1346.41	140.2	10271.6
1346.51	140.1	10304.8
1346.61	140	10235.5
1346.71	139.9	10255.2
1346.81	139.8	10259.1
1346.91	139.7	10224.3
1347.01	139.6	10306.3
1347.11	139.5	10241.3
1347.21	139.4	10258.1
1347.31	139.3	10301.6
1347.41	139.2	10325.2
1347.51	139.1	10310.3
1347.61	139	10308.1
1347.71	138.9	10314.9
1347.81	138.8	10292.7
1347.91	138.7	10363.4
1348.01	138.6	10365.5
1348.11	138.5	10320.9
1348.21	138.4	10315.2
1348.31	138.3	10323.9
1348.41	138.2	10306.6
1348.51	138.1	10443.3
1348.61	138	10272.1
1348.71	137.9	10337.9
1348.81	137.8	10394.1
1348.91	137.7	10360.4
1349.01	137.6	10418.5
1349.11	137.5	10364.6
1349.21	137.4	10430.6
1349.31	137.3	10416.5
1349.41	137.2	10485.6
1349.51	137.1	10456.8
1349.61	137	10422.1
1349.71	136.9	10428.1
1349.81	136.8	10454.9
1349.91	136.7	10462.5
1350.01	136.6	10448.6
1350.11	136.5	10448.4
1350.21	136.4	10441.8
1350.31	136.3	10442.3
1350.41	136.2	10453.2
1350.51	136.1	10525.2
1350.61	136	10437.9
1350.71	135.9	10496.1
1350.81	135.8	10600.3
1350.91	135.7	10517.5
1351.01	135.6	10570.1
1351.11	135.5	10464.1
1351.21	135.4	10487.9
1351.31	135.3	10541.8
1351.41	135.2	10475.4
1351.51	135.1	10458.2
1351.61	135	10535.6
1351.71	134.9	10547
1351.81	134.8	10515.9
1351.91	134.7	10484.2
1352.01	134.6	10548.3
1352.11	134.5	10496.4
1352.21	134.4	10576.3
1352.31	134.3	10571.5
1352.41	134.2	10430.2
1352.51	134.1	10507.6
1352.61	134	10519
1352.71	133.9	10616.1
1352.81	133.8	10533.4
1352.91	133.7	10555
1353.01	133.6	10614.5
1353.11	133.5	10625.9
1353.21	133.4	10557.8
1353.31	133.3	10529.7
1353.41	133.2	10605.4
1353.51	133.1	10625.7
1353.61	133	10653.4
1353.71	132.9	10649.9
1353.81	132.8	10625.5
1353.91	132.7	10632
1354.01	132.6	10623.1
1354.11	132.5	10610.1
1354.21	132.4	10658
1354.31	132.3	10603.8
1354.41	132.2	10651
1354.51	132.1	10645.5
1354.61	132	10607.1
1354.71	131.9	10681.5
1354.81	131.8	10665.5
1354.91	131.7	10608.3
1355.01	131.6	10601
1355.11	131.5	10652.6
1355.21	131.4	10714
1355.31	131.3	10727.2
1355.41	131.2	10664.4
1355.51	131.1	10741
1355.61	131	10659.6
1355.71	130.9	10702.3
1355.81	130.8	10769.5
1355.91	130.7	10696.8
1356.01	130.6	10725.6
1356.11	130.5	10774.9
1356.21	130.4	10783.4
1356.31	130.3	10811.5
1356.41	130.2	10751.4
1356.51	130.1	10818.7
1356.61	130	10743.3
1356.71	129.9	10744.3
1356.81	129.8	10807
1356.91	129.7	10845.4
1357.01	129.6	10834.2
1357.11	129.5	10763.7
1357.21	129.4	10807.9
1357.31	129.3	10791
1357.41	129.2	10808.3
1357.51	129.1	10811
1357.61	129	10842.6
1357.71	128.9	10934.6
1357.81	128.8	10895.5
1357.91	128.7	10902.8
1358.01	128.6	10844.8
1358.11	128.5	10862.9
1358.21	128.4	10986.9
1358.31	128.3	10880.9
1358.41	128.2	10895
1358.51	128.1	10953.1
1358.61	128	11005.5
1358.71	127.9	10988.9
1358.81	127.8	10875.3
1358.91	127.7	10897.6
1359.01	127.6	10948.6
1359.11	127.5	10934.7
1359.21	127.4	10961.6
1359.31	127.3	10969
1359.41	127.2	10991
1359.51	127.1	11030.8
1359.61	127	10963.1
1359.71	126.9	10922.5
1359.81	126.8	11024
1359.91	126.7	10997.8
1360.01	126.6	11059
1360.11	126.5	10961.3
1360.21	126.4	11055.1
1360.31	126.3	11011
1360.41	126.2	11051.6
1360.51	126.1	11076.6
1360.61	126	11119.9
1360.71	125.9	11102.4
1360.81	125.8	11085.8
1360.91	125.7	11153.9
1361.01	125.6	11116.9
1361.11	125.5	11143.4
1361.21	125.4	11177.9
1361.31	125.3	11098.2
1361.41	125.2	11170.5
1361.51	125.1	11185.3
1361.61	125	11237.8
1361.71	124.9	11177
1361.81	124.8	11124.1
1361.91	124.7	11185.1
1362.01	124.6	11251
1362.11	124.5	11208.7
1362.21	124.4	11194.8
1362.31	124.3	11224.8
1362.41	124.2	11226.6
1362.51	124.1	11297.8
1362.61	124	11260.5
1362.71	123.9	11213.5
1362.81	123.8	11262.6
1362.91	123.7	11353.7
1363.01	123.6	11409.1
1363.11	123.5	11396.3
1363.21	123.4	11320.1
1363.31	123.3	11343.5
1363.41	123.2	11345.4
1363.51	123.1	11406.1
1363.61	123	11451
1363.71	122.9	11472.4
1363.81	122.8	11478.4
1363.91	122.7	11463.4
1364.01	122.6	11533
1364.11	122.5	11472.1
1364.21	122.4	11465.4
1364.31	122.3	11478.9
1364.41	122.2	11530.8
1364.51	122.1	11448.3
1364.61	122	11481.1
1364.71	121.9	11595.1
1364.81	121.8	11626.1
1364.91	121.7	11604.6
1365.01	121.6	11629.4
1365.11	121.5	11589.2
1365.21	121.4	11584.4
1365.31	121.3	11633.1
1365.41	121.2	11583.2
1365.51	121.1	11593.6
1365.61	121	11731.6
1365.71	120.9	11709.3
1365.81	120.8	11696.6
1365.91	120.7	11718.9
1366.01	120.6	11723.7
1366.11	120.5	11724.4
1366.21	120.4	11684.3
1366.31	120.3	11780.4
1366.41	120.2	11764.8
1366.51	120.1	11767.4
1366.61	120	11726.7
1366.71	119.9	11738.1
1366.81	119.8	11845.3
1366.91	119.7	11742.7
1367.01	119.6	11694.7
1367.11	119.5	11816.4
1367.21	119.4	11882
1367.31	119.3	11798.3
1367.41	119.2	11776.8
1367.51	119.1	11926.4
1367.61	119	11870
1367.71	118.9	11915.5
1367.81	118.8	11928.4
1367.91	118.7	11868.2
1368.01	118.6	11954.2
1368.11	118.5	11896.5
1368.21	118.4	11921.6
1368.31	118.3	11867.9
1368.41	118.2	11886.4
1368.51	118.1	11936.5
1368.61	118	11878.2
1368.71	117.9	11860.1
1368.81	117.8	11918
1368.91	117.7	11904.7
1369.01	117.6	11934.7
1369.11	117.5	11946.5
1369.21	117.4	11918.3
1369.31	117.3	11971.6
1369.41	117.2	11928.9
1369.51	117.1	11912.7
1369.61	117	11916.5
1369.71	116.9	11951.7
1369.81	116.8	11979.3
1369.91	116.7	12066.1
1370.01	116.6	11928.5
1370.11	116.5	11948.7
1370.21	116.4	12001.9
1370.31	116.3	11921.3
1370.41	116.2	11950.4
1370.51	116.1	12005.8
1370.61	116	12113.1
1370.71	115.9	12046
1370.81	115.8	11970.7
1370.91	115.7	12067.7
1371.01	115.6	12117.4
1371.11	115.5	12021.5
1371.21	115.4	12004.4
1371.31	115.3	12039.8
1371.41	115.2	12063.6
1371.51	115.1	12071.1
1371.61	115	12116.5
1371.71	114.9	12115.6
1371.81	114.8	12033.9
1371.91	114.7	12064.8
1372.01	114.6	12125.5
1372.11	114.5	12102.1
1372.21	114.4	12163.9
1372.31	114.3	12176.5
1372.41	114.2	12163.9
1372.51	114.1	12215.2
1372.61	114	12251.4
1372.71	113.9	12279.9
1372.81	113.8	12284.2
1372.91	113.7	12262.5
1373.01	113.6	12177.8
1373.11	113.5	12278.8
1373.21	113.4	12282.1
1373.31	113.3	12117.6
1373.41	113.2	12245.6
1373.51	113.1	12296.1
1373.61	113	12318.2
1373.71	112.9	12355.4
1373.81	112.8	12367.6
1373.91	112.7	12364.8
1374.01	112.6	12399.5
1374.11	112.5	12366.6
1374.21	112.4	12398.4
1374.31	112.3	12404.8
1374.41	112.2	12422.1
1374.51	112.1	12501.4
1374.61	112	12466.2
1374.71	111.9	12477
1374.81	111.8	12501.7
1374.91	111.7	12542.4
1375.01	111.6	12444.1
1375.11	111.5	12485
1375.21	111.4	12443.5
1375.31	111.3	12506.1
1375.41	111.2	12509.2
1375.51	111.1	12463.7
1375.61	111	12544.6
1375.71	110.9	12507.9
1375.81	110.8	12573.3
1375.91	110.7	12544.6
1376.01	110.6	12509.8
1376.11	110.5	12517.8
1376.21	110.4	12489.2
1376.31	110.3	12461.4
1376.41	110.2	12394.7
1376.51	110.1	12432.3
1376.61	110	12437.2
1376.71	109.9	12455.5
1376.81	109.8	12410.4
1376.91	109.7	12437.7
1377.01	109.6	12426.4
1377.11	109.5	12379.8
1377.21	109.4	12375.6
1377.31	109.3	12318.8
1377.41	109.2	12302.6
1377.51	109.1	12297.1
1377.61	109	12249.6
1377.71	108.9	12278.5
1377.81	108.8	12232.3
1377.91	108.7	12266.2
1378.01	108.6	12302
1378.11	108.5	12272.9
1378.21	108.4	12136.7
1378.31	108.3	12071.6
1378.41	108.2	12161.1
1378.51	108.1	12129.3
1378.61	108	12105.4
1378.71	107.9	12059.1
1378.81	107.8	12025.5
1378.91	107.7	11975
1379.01	107.6	11999.4
1379.11	107.5	11936.3
1379.21	107.4	11832.3
1379.31	107.3	11879
1379.41	107.2	11863
1379.51	107.1	11894.1
1379.61	107	11800.7
1379.71	106.9	11785.7
1379.81	106.8	11775.3
1379.91	106.7	11682.5
1380.01	106.6	11604.9
1380.11	106.5	11634.3
1380.21	106.4	11625.6
1380.31	106.3	11550
1380.41	106.2	11575.4
1380.51	106.1	11527.6
1380.61	106	11476.8
1380.71	105.9	11489.6
1380.81	105.8	11430.4
1380.91	105.7	11445.1
1381.01	105.6	11450.6
1381.11	105.5	11419.6
1381.21	105.4	11294.8
1381.31	105.3	11460.4
1381.41	105.2	11483.9
1381.51	105.1	11407.7
1381.61	105	11335.2
1381.71	104.9	11425.1
1381.81	104.8	11363.1
1381.91	104.7	11384.5
1382.01	104.6	11420.2
1382.11	104.5	11382.4
1382.21	104.4	11368.4
1382.31	104.3	11406.5
1382.41	104.2	11410.3
1382.51	104.1	11300.9
1382.61	104	11366.1
1382.71	103.9	11382.3
1382.81	103.8	11379.3
1382.91	103.7	11325.7
1383.01	103.6	11369.9
1383.11	103.5	11438
1383.21	103.4	11309.4
1383.31	103.3	11347.7
1383.41	103.2	11381.9
1383.51	103.1	11401.4
1383.61	103	11408.9
1383.71	102.9	11384.2
1383.81	102.8	11395
1383.91	102.7	11360.7
1384.01	102.6	11436.9
1384.11	102.5	11510.4
1384.21	102.4	11452.6
1384.31	102.3	11435.5
1384.41	102.2	11461.6
1384.51	102.1	11548
1384.61	102	11495.4
1384.71	101.9	11530.7
1384.81	101.8	11505.6
1384.91	101.7	11521.5
1385.01	101.6	11502.4
1385.11	101.5	11659.7
1385.21	101.4	11601.9
1385.31	101.3	11576.9
1385.41	101.2	11630.2
1385.51	101.1	11675.4
1385.61	101	11724.7
1385.71	100.9	11653.5
1385.81	100.8	11759.8
1385.91	100.7	11747
1386.01	100.6	11741.3
1386.11	100.5	11706.5
1386.21	100.4	11699.4
1386.31	100.3	11809.7
1386.41	100.2	11711.7
1386.51	100.1	11811.2
1386.61	100	11831.1
1386.71	99.9	11813.7
1386.81	99.8	11885.2
1386.91	99.7	11856.1
1387.01	99.6	11909.9
1387.11	99.5	11798.7
1387.21	99.4	11866
1387.31	99.3	11844.2
1387.41	99.2	11883.5
1387.51	99.1	11933
1387.61	99	11973.6
1387.71	98.9	11955.2
1387.81	98.8	11914.1
1387.91	98.7	11989.2
1388.01	98.6	11950.6
1388.11	98.5	11945.5
1388.21	98.4	12012.4
1388.31	98.3	11943.5
1388.41	98.2	11991.2
1388.51	98.1	12087
1388.61	98	11993.1
1388.71	97.9	11956
1388.81	97.8	11956.7
1388.91	97.7	12095.7
1389.01	97.6	11919.5
1389.11	97.5	11866.5
1389.21	97.4	11899
1389.31	97.3	11876.2
1389.41	97.2	11801.7
1389.51	97.1	11782.7
1389.61	97	11697.2
1389.71	96.9	11698.6
1389.81	96.8	11697.5
1389.91	96.7	11649.2
1390.01	96.6	11603.7
1390.11	96.5	11555.2
1390.21	96.4	11547.9
1390.31	96.3	11528.7
1390.41	96.2	11470.7
1390.51	96.1	11500
1390.61	96	11406.3
1390.71	95.9	11400.8
1390.81	95.8	11440.7
1390.91	95.7	11456.7
1391.01	95.6	11426.5
1391.11	95.5	11473
1391.21	95.4	11555.9
1391.31	95.3	11614.3
1391.41	95.2	11621.4
1391.51	95.1	11629.9
1391.61	95	11638.5
1391.71	94.9	11736.2
1391.81	94.8	11697.9
1391.91	94.7	11709
1392.01	94.6	11766
1392.11	94.5	11890.5
1392.21	94.4	11831.1
1392.31	94.3	11766
1392.41	94.2	11874.8
1392.51	94.1	11899.9
1392.61	94	11913.4
1392.71	93.9	11816
1392.81	93.8	11923.7
1392.91	93.7	11884
1393.01	93.6	11913.5
1393.11	93.5	11915.5
1393.21	93.4	11913.4
1393.31	93.3	11817.7
1393.41	93.2	11767
1393.51	93.1	11695.4
1393.61	93	11579.9
1393.71	92.9	11587.7
1393.81	92.8	11523.8
1393.91	92.7	11449.3
1394.01	92.6	11339.1
1394.11	92.5	11283.2
1394.21	92.4	11297.9
1394.31	92.3	11299.9
1394.41	92.2	11380.5
1394.51	92.1	11333.2
1394.61	92	11404.1
1394.71	91.9	11423.5
1394.81	91.8	11534.6
1394.91	91.7	11562.3
1395.01	91.6	11607.9
1395.11	91.5	11724.3
1395.21	91.4	11896.7
1395.31	91.3	11858.2
1395.41	91.2	12013.2
1395.51	91.1	12208.3
1395.61	91	12317.6
1395.71	90.9	12494.2
1395.81	90.8	12551.8
1395.91	90.7	12665.3
1396.01	90.6	12810.1
1396.11	90.5	12855.7
1396.21	90.4	12996
1396.31	90.3	12972.4
1396.41	90.2	12943.4
1396.51	90.1	12946.5
1396.61	90	12955.2
1396.71	89.9	13005.7
1396.81	89.8	13066.8
1396.91	89.7	13154.6
1397.01	89.6	13275.2
1397.11	89.5	13542.1
1397.21	89.4	13908
1397.31	89.3	14409.2
1397.41	89.2	14943
1397.51	89.1	15544.4
1397.61	89	16329.7
1397.71	88.9	17518
1397.81	88.8	18911.1
1397.91	88.7	20762.8
1398.01	88.6	23623.3
1398.11	88.5	27563
1398.21	88.4	33260.2
1398.31	88.3	41353.1
1398.41	88.2	52590.2
1398.51	88.1	67816.6
1398.61	88	86349.5
1398.71	87.9	106066
1398.81	87.8	123890
1398.91	87.7	135261
1399.01	87.6	136793
1399.11	87.5	127679
1399.21	87.4	111188
1399.31	87.3	90873
1399.41	87.2	71116.3
1399.51	87.1	54137.3
1399.61	87	41607.9
1399.71	86.9	32389.6
1399.81	86.8	25741.2
1399.91	86.7	21239.1
1400.01	86.6	18318.5
1400.11	86.5	16327.7
1400.21	86.4	14942.9
1400.31	86.3	13869.7
1400.41	86.2	13034.8
1400.51	86.1	12617
1400.61	86	12347.6
1400.71	85.9	12177.9
1400.81	85.8	12120.4
1400.91	85.7	12355.6
1401.01	85.6	12656.6
1401.11	85.5	13161.5
1401.21	85.4	13997.5
1401.31	85.3	14984.3
1401.41	85.2	16319.5
1401.51	85.1	18146.6
1401.61	85	20637.4
1401.71	84.9	24263.9
1401.81	84.8	29567.9
1401.91	84.7	37243.1
1402.01	84.6	48557
1402.11	84.5	64094
1402.21	84.4	85238.9
1402.31	84.3	109597
1402.41	84.2	135865
1402.51	84.1	158412
1402.61	84	170465
1402.71	83.9	168773
1402.81	83.8	154383
1402.91	83.7	130657
1403.01	83.6	103077
1403.11	83.5	77385.9
1403.21	83.4	56557.4
1403.31	83.3	40932.3
1403.41	83.2	29780
1403.51	83.1	22050
1403.61	83	16759.2
1403.71	82.9	13311.7
1403.81	82.8	10958.9
1403.91	82.7	9333.6
1404.01	82.6	8206.77
1404.11	82.5	7343.44
1404.21	82.4	6701.95
1404.31	82.3	6157.16
1404.41	82.2	5707.1
1404.51	82.1	5321.57
1404.61	82	5068.23
1404.71	81.9	4794.5
1404.81	81.8	4545.62
1404.91	81.7	4336.7
1405.01	81.6	4185.99
1405.11	81.5	3992.88
1405.21	81.4	3878.44
1405.31	81.3	3735.77
1405.41	81.2	3649.94
1405.51	81.1	3564.16
1405.61	81	3473.94
1405.71	80.9	3380.94
1405.81	80.8	3331.26
1405.91	80.7	3273.24
1406.01	80.6	3198.39
1406.11	80.5	3152.64
1406.21	80.4	3088.39
1406.31	80.3	3026.72
1406.41	80.2	3019.57
1406.51	80.1	2942.38
1406.61	80	2903.28
1406.71	79.9	2862.57
1406.81	79.8	2845.76
1406.91	79.7	2797.37
1407.01	79.6	2773.16
1407.11	79.5	2745.76
1407.21	79.4	2711.83
1407.31	79.3	2713.55
1407.41	79.2	2683.23
1407.51	79.1	2699.14
1407.61	79	2701.14
1407.71	78.9	2663.51
1407.81	78.8	2682.81
1407.91	78.7	2642.8
1408.01	78.6	2650.09
1408.11	78.5	2627.21
1408.21	78.4	2633.28
1408.31	78.3	2629.42
1408.41	78.2	2690.73
1408.51	78.1	2687.07
1408.61	78	2626.38
1408.71	77.9	2634.62
1408.81	77.8	2623.56
1408.91	77.7	2597.17
1409.01	77.6	2609.12
1409.11	77.5	2613.38
1409.21	77.4	2603.17
1409.31	77.3	2595.54
1409.41	77.2	2598.22
1409.51	77.1	2623.06
1409.61	77	2665.43
1409.71	76.9	2683.2
1409.81	76.8	2697.63
1409.91	76.7	2638.48
1410.01	76.6	2646.2
1410.11	76.5	2707.56
1410.21	76.4	2733.48
1410.31	76.3	2756.75
1410.41	76.2	2742.39
1410.51	76.1	2739.97
1410.61	76	2769.89
1410.71	75.9	2744.82
1410.81	75.8	2822.38
1410.91	75.7	2828.36
1411.01	75.6	2824.43
1411.11	75.5	2852.49
1411.21	75.4	2887.39
1411.31	75.3	2950.18
1411.41	75.2	2895.97
1411.51	75.1	2940.87
1411.61	75	2990.33