C:\Users\Mark\ownCloud\Muelheim Group\Projects\Gas phase background\EX322_CEC356_Au_Ag_Cu in H2_1.vms.vms
Au4f
	Characteristic Energy eV	1486.61	Acquisition Time s	0.9
KE_Au4f	BE_Au4f	CPS_Au4f
1311.61	175	8189
1311.71	174.9	8299.23
1311.81	174.8	8275.35
1311.91	174.7	8235.21
1312.01	174.6	8218.93
1312.11	174.5	8210.84
1312.21	174.4	8230.35
1312.31	174.3	8250.75
1312.41	174.2	8251.44
1312.51	174.1	8305.73
1312.61	174	8295.28
1312.71	173.9	8332.77
1312.81	173.8	8267.68
1312.91	173.7	8275.1
1313.01	173.6	8272.6
1313.11	173.5	8200.83
1313.21	173.4	8286.38
1313.31	173.3	8274.47
1313.41	173.2	8242.86
1313.51	173.1	8267
1313.61	173	8291.37
1313.71	172.9	8276.14
1313.81	172.8	8263
1313.91	172.7	8270.34
1314.01	172.6	8253.87
1314.11	172.5	8226.97
1314.21	172.4	8295.61
1314.31	172.3	8343.04
1314.41	172.2	8255.24
1314.51	172.1	8294.11
1314.61	172	8287.13
1314.71	171.9	8300.44
1314.81	171.8	8316.07
1314.91	171.7	8309.86
1315.01	171.6	8233.54
1315.11	171.5	8271.78
1315.21	171.4	8321.53
1315.31	171.3	8266.67
1315.41	171.2	8291.35
1315.51	171.1	8271.47
1315.61	171	8268.45
1315.71	170.9	8353.68
1315.81	170.8	8349.01
1315.91	170.7	8343.04
1316.01	170.6	8367.19
1316.11	170.5	8321.42
1316.21	170.4	8343.57
1316.31	170.3	8365.06
1316.41	170.2	8411.7
1316.51	170.1	8331.51
1316.61	170	8312.14
1316.71	169.9	8378.45
1316.81	169.8	8327.99
1316.91	169.7	8328.46
1317.01	169.6	8380.7
1317.11	169.5	8367.2
1317.21	169.4	8389.95
1317.31	169.3	8443.26
1317.41	169.2	8408.47
1317.51	169.1	8407.12
1317.61	169	8388.27
1317.71	168.9	8390.99
1317.81	168.8	8388.05
1317.91	168.7	8425
1318.01	168.6	8414.02
1318.11	168.5	8414.26
1318.21	168.4	8437.48
1318.31	168.3	8411.37
1318.41	168.2	8422.83
1318.51	168.1	8434.34
1318.61	168	8411.02
1318.71	167.9	8422.11
1318.81	167.8	8366.27
1318.91	167.7	8418.1
1319.01	167.6	8455.51
1319.11	167.5	8364.86
1319.21	167.4	8343.98
1319.31	167.3	8392.87
1319.41	167.2	8425.96
1319.51	167.1	8412.07
1319.61	167	8437.13
1319.71	166.9	8457.61
1319.81	166.8	8382.82
1319.91	166.7	8414.38
1320.01	166.6	8376.19
1320.11	166.5	8439.99
1320.21	166.4	8380.44
1320.31	166.3	8338.3
1320.41	166.2	8483.38
1320.51	166.1	8499.57
1320.61	166	8452.15
1320.71	165.9	8389.28
1320.81	165.8	8469.31
1320.91	165.7	8464.57
1321.01	165.6	8441.36
1321.11	165.5	8422.6
1321.21	165.4	8432.48
1321.31	165.3	8426.81
1321.41	165.2	8493.57
1321.51	165.1	8459.12
1321.61	165	8462.4
1321.71	164.9	8412.4
1321.81	164.8	8529.84
1321.91	164.7	8512.79
1322.01	164.6	8531.76
1322.11	164.5	8480.82
1322.21	164.4	8482.99
1322.31	164.3	8480.07
1322.41	164.2	8514.43
1322.51	164.1	8503.54
1322.61	164	8488.39
1322.71	163.9	8466.07
1322.81	163.8	8487.81
1322.91	163.7	8558.34
1323.01	163.6	8486.84
1323.11	163.5	8459.59
1323.21	163.4	8533.63
1323.31	163.3	8505.5
1323.41	163.2	8548.85
1323.51	163.1	8510.34
1323.61	163	8523.28
1323.71	162.9	8544.58
1323.81	162.8	8522.28
1323.91	162.7	8573.15
1324.01	162.6	8536.28
1324.11	162.5	8502.41
1324.21	162.4	8578.96
1324.31	162.3	8596.86
1324.41	162.2	8582.51
1324.51	162.1	8543.8
1324.61	162	8649.41
1324.71	161.9	8599.36
1324.81	161.8	8581.31
1324.91	161.7	8559.79
1325.01	161.6	8632.83
1325.11	161.5	8609.03
1325.21	161.4	8615.83
1325.31	161.3	8551.38
1325.41	161.2	8586.95
1325.51	161.1	8571.25
1325.61	161	8612.16
1325.71	160.9	8637.19
1325.81	160.8	8652.23
1325.91	160.7	8623.03
1326.01	160.6	8549.99
1326.11	160.5	8493.75
1326.21	160.4	8542.43
1326.31	160.3	8563.57
1326.41	160.2	8597.88
1326.51	160.1	8649.79
1326.61	160	8584.03
1326.71	159.9	8623.95
1326.81	159.8	8642.13
1326.91	159.7	8693.88
1327.01	159.6	8624.99
1327.11	159.5	8649.22
1327.21	159.4	8645.76
1327.31	159.3	8662.8
1327.41	159.2	8620.01
1327.51	159.1	8626.53
1327.61	159	8727.72
1327.71	158.9	8669.83
1327.81	158.8	8673.41
1327.91	158.7	8624.33
1328.01	158.6	8633.3
1328.11	158.5	8668.56
1328.21	158.4	8690.47
1328.31	158.3	8714.9
1328.41	158.2	8797.15
1328.51	158.1	8672.6
1328.61	158	8624.01
1328.71	157.9	8617.39
1328.81	157.8	8711.13
1328.91	157.7	8712.52
1329.01	157.6	8723.4
1329.11	157.5	8708.52
1329.21	157.4	8635.61
1329.31	157.3	8714.87
1329.41	157.2	8662.13
1329.51	157.1	8697.02
1329.61	157	8677.48
1329.71	156.9	8664.4
1329.81	156.8	8727.62
1329.91	156.7	8632.45
1330.01	156.6	8657.69
1330.11	156.5	8770.52
1330.21	156.4	8704.18
1330.31	156.3	8769.84
1330.41	156.2	8740.46
1330.51	156.1	8728.31
1330.61	156	8805.08
1330.71	155.9	8776.28
1330.81	155.8	8736.24
1330.91	155.7	8775.58
1331.01	155.6	8739.34
1331.11	155.5	8714.05
1331.21	155.4	8719.48
1331.31	155.3	8723.81
1331.41	155.2	8726.12
1331.51	155.1	8730.62
1331.61	155	8779.81
1331.71	154.9	8830.42
1331.81	154.8	8739.71
1331.91	154.7	8782.64
1332.01	154.6	8831.39
1332.11	154.5	8803.24
1332.21	154.4	8831.38
1332.31	154.3	8795.7
1332.41	154.2	8798.39
1332.51	154.1	8809.5
1332.61	154	8850.53
1332.71	153.9	8898.3
1332.81	153.8	8854.46
1332.91	153.7	8896.82
1333.01	153.6	8824.53
1333.11	153.5	8820.52
1333.21	153.4	8838.17
1333.31	153.3	8850.24
1333.41	153.2	8919.79
1333.51	153.1	8928.16
1333.61	153	8872.79
1333.71	152.9	8933.78
1333.81	152.8	8830.4
1333.91	152.7	8819.63
1334.01	152.6	8849.88
1334.11	152.5	8859.78
1334.21	152.4	8916.59
1334.31	152.3	8919.33
1334.41	152.2	8954.21
1334.51	152.1	8961.05
1334.61	152	8862.49
1334.71	151.9	8944.62
1334.81	151.8	8958.7
1334.91	151.7	8890.34
1335.01	151.6	8941.81
1335.11	151.5	8937.57
1335.21	151.4	8990.34
1335.31	151.3	9025.35
1335.41	151.2	9067.85
1335.51	151.1	9057.59
1335.61	151	8990.11
1335.71	150.9	8980.25
1335.81	150.8	8901
1335.91	150.7	8907.66
1336.01	150.6	9009.24
1336.11	150.5	9021.03
1336.21	150.4	9029.34
1336.31	150.3	9010.9
1336.41	150.2	9026.27
1336.51	150.1	9065.05
1336.61	150	9028.98
1336.71	149.9	8973.73
1336.81	149.8	9034.98
1336.91	149.7	8996.02
1337.01	149.6	9029.68
1337.11	149.5	8960.4
1337.21	149.4	8974.66
1337.31	149.3	9026.17
1337.41	149.2	9045.31
1337.51	149.1	9060.76
1337.61	149	9053.89
1337.71	148.9	9032.48
1337.81	148.8	9025.36
1337.91	148.7	9065.97
1338.01	148.6	9068.36
1338.11	148.5	9090.32
1338.21	148.4	9071.11
1338.31	148.3	9037.23
1338.41	148.2	9061.1
1338.51	148.1	9046.09
1338.61	148	9019.73
1338.71	147.9	9005.2
1338.81	147.8	9065.74
1338.91	147.7	9117.31
1339.01	147.6	9095.94
1339.11	147.5	9109.75
1339.21	147.4	9105.49
1339.31	147.3	9037.22
1339.41	147.2	9090.01
1339.51	147.1	9102.63
1339.61	147	9109.23
1339.71	146.9	9060.53
1339.81	146.8	9098.72
1339.91	146.7	9097.98
1340.01	146.6	9127.82
1340.11	146.5	9142.12
1340.21	146.4	9097.77
1340.31	146.3	9129.13
1340.41	146.2	9168.1
1340.51	146.1	9198.77
1340.61	146	9078.54
1340.71	145.9	9118.14
1340.81	145.8	9094.49
1340.91	145.7	9066.35
1341.01	145.6	9083.13
1341.11	145.5	9112.75
1341.21	145.4	9128.29
1341.31	145.3	9139.98
1341.41	145.2	9115.57
1341.51	145.1	9057.64
1341.61	145	9035.74
1341.71	144.9	9150.81
1341.81	144.8	9110.83
1341.91	144.7	9057.24
1342.01	144.6	9127.02
1342.11	144.5	9122.1
1342.21	144.4	9180.55
1342.31	144.3	9084.26
1342.41	144.2	9099.41
1342.51	144.1	9129.63
1342.61	144	9122.26
1342.71	143.9	9160.05
1342.81	143.8	9122.33
1342.91	143.7	9160.19
1343.01	143.6	9222.96
1343.11	143.5	9209.88
1343.21	143.4	9205.25
1343.31	143.3	9144.98
1343.41	143.2	9216.58
1343.51	143.1	9169.39
1343.61	143	9060.33
1343.71	142.9	9090.88
1343.81	142.8	9107.64
1343.91	142.7	9109.85
1344.01	142.6	9159.19
1344.11	142.5	9285.56
1344.21	142.4	9236.44
1344.31	142.3	9194.49
1344.41	142.2	9240.05
1344.51	142.1	9272.97
1344.61	142	9276.3
1344.71	141.9	9191.99
1344.81	141.8	9120.91
1344.91	141.7	9125.29
1345.01	141.6	9223.27
1345.11	141.5	9188.84
1345.21	141.4	9260.36
1345.31	141.3	9349.38
1345.41	141.2	9342.98
1345.51	141.1	9240.56
1345.61	141	9246.35
1345.71	140.9	9353.91
1345.81	140.8	9276.67
1345.91	140.7	9256.87
1346.01	140.6	9271.44
1346.11	140.5	9249.44
1346.21	140.4	9307.86
1346.31	140.3	9357.7
1346.41	140.2	9323.08
1346.51	140.1	9317.62
1346.61	140	9314.28
1346.71	139.9	9242.33
1346.81	139.8	9327.96
1346.91	139.7	9371.54
1347.01	139.6	9287.86
1347.11	139.5	9283.65
1347.21	139.4	9293.55
1347.31	139.3	9236.88
1347.41	139.2	9308.99
1347.51	139.1	9327.73
1347.61	139	9300.27
1347.71	138.9	9350.38
1347.81	138.8	9297
1347.91	138.7	9398.64
1348.01	138.6	9357.24
1348.11	138.5	9392.17
1348.21	138.4	9480.94
1348.31	138.3	9424.72
1348.41	138.2	9326.9
1348.51	138.1	9379.4
1348.61	138	9466.96
1348.71	137.9	9420.32
1348.81	137.8	9415
1348.91	137.7	9381.09
1349.01	137.6	9502.22
1349.11	137.5	9519.1
1349.21	137.4	9420.5
1349.31	137.3	9398.23
1349.41	137.2	9383.25
1349.51	137.1	9416.59
1349.61	137	9397.98
1349.71	136.9	9453.22
1349.81	136.8	9565.3
1349.91	136.7	9513.14
1350.01	136.6	9479.45
1350.11	136.5	9452.65
1350.21	136.4	9558.18
1350.31	136.3	9527.86
1350.41	136.2	9503.87
1350.51	136.1	9466.78
1350.61	136	9439.77
1350.71	135.9	9547.24
1350.81	135.8	9510.57
1350.91	135.7	9574.03
1351.01	135.6	9463.67
1351.11	135.5	9520.32
1351.21	135.4	9550.85
1351.31	135.3	9554.5
1351.41	135.2	9585.57
1351.51	135.1	9552.81
1351.61	135	9618.02
1351.71	134.9	9499.27
1351.81	134.8	9529.53
1351.91	134.7	9614.24
1352.01	134.6	9573.95
1352.11	134.5	9489.39
1352.21	134.4	9545.54
1352.31	134.3	9503.91
1352.41	134.2	9556.46
1352.51	134.1	9633.34
1352.61	134	9653.23
1352.71	133.9	9554.81
1352.81	133.8	9625
1352.91	133.7	9659.53
1353.01	133.6	9646.22
1353.11	133.5	9616.56
1353.21	133.4	9615.97
1353.31	133.3	9617.76
1353.41	133.2	9667.76
1353.51	133.1	9655.4
1353.61	133	9564.79
1353.71	132.9	9625.61
1353.81	132.8	9643.42
1353.91	132.7	9728.55
1354.01	132.6	9624.44
1354.11	132.5	9638.05
1354.21	132.4	9656.19
1354.31	132.3	9603.81
1354.41	132.2	9666.15
1354.51	132.1	9694.37
1354.61	132	9648.14
1354.71	131.9	9696.79
1354.81	131.8	9654.43
1354.91	131.7	9750.85
1355.01	131.6	9767.51
1355.11	131.5	9749.21
1355.21	131.4	9771.34
1355.31	131.3	9770.05
1355.41	131.2	9791.28
1355.51	131.1	9748.74
1355.61	131	9762.84
1355.71	130.9	9750.2
1355.81	130.8	9688.87
1355.91	130.7	9722.89
1356.01	130.6	9727.39
1356.11	130.5	9790.37
1356.21	130.4	9778.2
1356.31	130.3	9793.9
1356.41	130.2	9822.96
1356.51	130.1	9796.75
1356.61	130	9750.64
1356.71	129.9	9778.09
1356.81	129.8	9819.53
1356.91	129.7	9851.04
1357.01	129.6	9823.69
1357.11	129.5	9840.47
1357.21	129.4	9857.75
1357.31	129.3	9847.6
1357.41	129.2	9891.57
1357.51	129.1	9882.92
1357.61	129	9827.9
1357.71	128.9	9813.53
1357.81	128.8	9849.19
1357.91	128.7	9869.79
1358.01	128.6	9842.45
1358.11	128.5	9866.31
1358.21	128.4	9950.34
1358.31	128.3	9931.23
1358.41	128.2	9941.5
1358.51	128.1	9981.25
1358.61	128	9928.4
1358.71	127.9	9998.6
1358.81	127.8	9981.3
1358.91	127.7	9990.31
1359.01	127.6	9864.93
1359.11	127.5	9917.56
1359.21	127.4	9912.37
1359.31	127.3	9923.5
1359.41	127.2	10008.4
1359.51	127.1	10048.9
1359.61	127	9941.63
1359.71	126.9	9985.02
1359.81	126.8	10070.4
1359.91	126.7	9955.69
1360.01	126.6	9989.58
1360.11	126.5	10013.8
1360.21	126.4	10027.1
1360.31	126.3	10035.8
1360.41	126.2	10056
1360.51	126.1	10024
1360.61	126	10033.4
1360.71	125.9	10025.9
1360.81	125.8	10007.9
1360.91	125.7	10106.5
1361.01	125.6	10123.4
1361.11	125.5	10146.9
1361.21	125.4	10211.7
1361.31	125.3	10141.2
1361.41	125.2	10184.7
1361.51	125.1	10185.1
1361.61	125	10126.5
1361.71	124.9	10123.1
1361.81	124.8	10150.7
1361.91	124.7	10170.3
1362.01	124.6	10142
1362.11	124.5	10235.9
1362.21	124.4	10194.9
1362.31	124.3	10245.6
1362.41	124.2	10288
1362.51	124.1	10166.3
1362.61	124	10310.5
1362.71	123.9	10335.5
1362.81	123.8	10290.7
1362.91	123.7	10256.4
1363.01	123.6	10345.8
1363.11	123.5	10345.2
1363.21	123.4	10331.2
1363.31	123.3	10333.1
1363.41	123.2	10385.3
1363.51	123.1	10356.8
1363.61	123	10331.9
1363.71	122.9	10338.1
1363.81	122.8	10406
1363.91	122.7	10419.6
1364.01	122.6	10445.4
1364.11	122.5	10394.3
1364.21	122.4	10397.8
1364.31	122.3	10417.3
1364.41	122.2	10470.5
1364.51	122.1	10444.7
1364.61	122	10440
1364.71	121.9	10433.3
1364.81	121.8	10470.6
1364.91	121.7	10492.6
1365.01	121.6	10537.7
1365.11	121.5	10530.6
1365.21	121.4	10559.7
1365.31	121.3	10580.5
1365.41	121.2	10556.9
1365.51	121.1	10549.8
1365.61	121	10609.5
1365.71	120.9	10493.7
1365.81	120.8	10552.6
1365.91	120.7	10580.6
1366.01	120.6	10515.7
1366.11	120.5	10541
1366.21	120.4	10522.7
1366.31	120.3	10579.5
1366.41	120.2	10596.7
1366.51	120.1	10642.7
1366.61	120	10641
1366.71	119.9	10573.6
1366.81	119.8	10649
1366.91	119.7	10680.6
1367.01	119.6	10618.5
1367.11	119.5	10571.9
1367.21	119.4	10582
1367.31	119.3	10588.5
1367.41	119.2	10702.7
1367.51	119.1	10631.8
1367.61	119	10674.8
1367.71	118.9	10697.7
1367.81	118.8	10727
1367.91	118.7	10706.6
1368.01	118.6	10727
1368.11	118.5	10754.1
1368.21	118.4	10677.8
1368.31	118.3	10743.1
1368.41	118.2	10741.2
1368.51	118.1	10744.2
1368.61	118	10729
1368.71	117.9	10684.9
1368.81	117.8	10654
1368.91	117.7	10685
1369.01	117.6	10809
1369.11	117.5	10698.6
1369.21	117.4	10723
1369.31	117.3	10642.7
1369.41	117.2	10748.8
1369.51	117.1	10755.8
1369.61	117	10693.4
1369.71	116.9	10697.8
1369.81	116.8	10802.9
1369.91	116.7	10874.4
1370.01	116.6	10853.2
1370.11	116.5	10850.8
1370.21	116.4	10796.7
1370.31	116.3	10843.8
1370.41	116.2	10836.4
1370.51	116.1	10817.6
1370.61	116	10825
1370.71	115.9	10884.7
1370.81	115.8	10936.4
1370.91	115.7	10934.7
1371.01	115.6	10914.6
1371.11	115.5	10883.7
1371.21	115.4	10975.2
1371.31	115.3	11015.6
1371.41	115.2	10927.9
1371.51	115.1	10950.4
1371.61	115	11003.4
1371.71	114.9	10965.1
1371.81	114.8	10972.1
1371.91	114.7	11026
1372.01	114.6	11080.4
1372.11	114.5	11159.9
1372.21	114.4	11126
1372.31	114.3	11103.5
1372.41	114.2	11104.2
1372.51	114.1	11134.4
1372.61	114	11125.7
1372.71	113.9	11176.1
1372.81	113.8	11188
1372.91	113.7	11155.8
1373.01	113.6	11195
1373.11	113.5	11216
1373.21	113.4	11190.9
1373.31	113.3	11161.8
1373.41	113.2	11224.1
1373.51	113.1	11310.5
1373.61	113	11359
1373.71	112.9	11281.5
1373.81	112.8	11322.7
1373.91	112.7	11406.6
1374.01	112.6	11293.3
1374.11	112.5	11335.4
1374.21	112.4	11312.9
1374.31	112.3	11423.6
1374.41	112.2	11368.7
1374.51	112.1	11426.7
1374.61	112	11399.4
1374.71	111.9	11456.7
1374.81	111.8	11374.8
1374.91	111.7	11418.3
1375.01	111.6	11353.6
1375.11	111.5	11327.2
1375.21	111.4	11415.2
1375.31	111.3	11475
1375.41	111.2	11433.1
1375.51	111.1	11422.7
1375.61	111	11441
1375.71	110.9	11332.1
1375.81	110.8	11371
1375.91	110.7	11384
1376.01	110.6	11329.1
1376.11	110.5	11392.6
1376.21	110.4	11336.7
1376.31	110.3	11425.3
1376.41	110.2	11304.1
1376.51	110.1	11395.7
1376.61	110	11360.3
1376.71	109.9	11434
1376.81	109.8	11428.6
1376.91	109.7	11436.6
1377.01	109.6	11404.7
1377.11	109.5	11500.6
1377.21	109.4	11476.9
1377.31	109.3	11478.5
1377.41	109.2	11300.3
1377.51	109.1	11379.8
1377.61	109	11404.9
1377.71	108.9	11366.4
1377.81	108.8	11393
1377.91	108.7	11339.2
1378.01	108.6	11326.8
1378.11	108.5	11362.5
1378.21	108.4	11274.2
1378.31	108.3	11301.1
1378.41	108.2	11301.4
1378.51	108.1	11202.7
1378.61	108	11245.9
1378.71	107.9	11216.4
1378.81	107.8	11204.6
1378.91	107.7	11173.4
1379.01	107.6	11229.3
1379.11	107.5	11112.3
1379.21	107.4	11079.9
1379.31	107.3	11129.1
1379.41	107.2	11146.2
1379.51	107.1	11076.9
1379.61	107	11030.2
1379.71	106.9	11120.3
1379.81	106.8	11160
1379.91	106.7	11069.4
1380.01	106.6	11075.9
1380.11	106.5	11046
1380.21	106.4	11071
1380.31	106.3	11087.9
1380.41	106.2	11136.2
1380.51	106.1	11047.9
1380.61	106	11104
1380.71	105.9	11120.4
1380.81	105.8	11081.9
1380.91	105.7	11120.7
1381.01	105.6	11067.8
1381.11	105.5	11050.1
1381.21	105.4	11102.7
1381.31	105.3	11101.5
1381.41	105.2	11207
1381.51	105.1	11169.1
1381.61	105	11213.2
1381.71	104.9	11245.7
1381.81	104.8	11153
1381.91	104.7	11243
1382.01	104.6	11344.7
1382.11	104.5	11316.2
1382.21	104.4	11343.2
1382.31	104.3	11349.3
1382.41	104.2	11414.9
1382.51	104.1	11443.9
1382.61	104	11436.5
1382.71	103.9	11504.4
1382.81	103.8	11522.7
1382.91	103.7	11602.4
1383.01	103.6	11680.6
1383.11	103.5	11681.3
1383.21	103.4	11705.6
1383.31	103.3	11635.9
1383.41	103.2	11732.2
1383.51	103.1	11761.6
1383.61	103	11824.1
1383.71	102.9	11834.8
1383.81	102.8	11925.9
1383.91	102.7	11937.3
1384.01	102.6	11984
1384.11	102.5	12075.9
1384.21	102.4	12065.8
1384.31	102.3	12130
1384.41	102.2	12161.5
1384.51	102.1	12226.2
1384.61	102	12309.7
1384.71	101.9	12287.1
1384.81	101.8	12273.9
1384.91	101.7	12443.4
1385.01	101.6	12545.2
1385.11	101.5	12674.2
1385.21	101.4	12770.8
1385.31	101.3	12867.3
1385.41	101.2	13106.6
1385.51	101.1	13368.2
1385.61	101	13642.4
1385.71	100.9	14021.8
1385.81	100.8	14276.5
1385.91	100.7	14471.9
1386.01	100.6	14842.7
1386.11	100.5	14938.1
1386.21	100.4	15103.2
1386.31	100.3	15301.1
1386.41	100.2	15284
1386.51	100.1	15207.6
1386.61	100	15020.9
1386.71	99.9	14806.7
1386.81	99.8	14570.6
1386.91	99.7	14236
1387.01	99.6	13862.7
1387.11	99.5	13578.6
1387.21	99.4	13368.3
1387.31	99.3	12953.8
1387.41	99.2	12727.3
1387.51	99.1	12518.3
1387.61	99	12322.7
1387.71	98.9	12043.7
1387.81	98.8	11914.1
1387.91	98.7	11744.1
1388.01	98.6	11640.1
1388.11	98.5	11701
1388.21	98.4	11537.1
1388.31	98.3	11573.3
1388.41	98.2	11545.2
1388.51	98.1	11560.7
1388.61	98	11627.9
1388.71	97.9	11753.8
1388.81	97.8	11775.9
1388.91	97.7	11851.8
1389.01	97.6	12103.1
1389.11	97.5	12354.8
1389.21	97.4	12547.5
1389.31	97.3	12879.7
1389.41	97.2	13163.3
1389.51	97.1	13477.1
1389.61	97	13823.5
1389.71	96.9	14047.2
1389.81	96.8	14259.1
1389.91	96.7	14352.4
1390.01	96.6	14351.9
1390.11	96.5	14268.1
1390.21	96.4	14035.8
1390.31	96.3	13850.2
1390.41	96.2	13410.5
1390.51	96.1	12938.1
1390.61	96	12542.4
1390.71	95.9	12016.3
1390.81	95.8	11603.9
1390.91	95.7	11208.5
1391.01	95.6	10762.8
1391.11	95.5	10391.2
1391.21	95.4	10111.8
1391.31	95.3	9697.54
1391.41	95.2	9563.98
1391.51	95.1	9331.47
1391.61	95	9153.95
1391.71	94.9	9058.58
1391.81	94.8	8968.2
1391.91	94.7	8868.46
1392.01	94.6	8786.45
1392.11	94.5	8748.98
1392.21	94.4	8795.07
1392.31	94.3	8864.38
1392.41	94.2	8901.67
1392.51	94.1	8791.24
1392.61	94	8753.53
1392.71	93.9	8698.57
1392.81	93.8	8771.73
1392.91	93.7	8755.91
1393.01	93.6	8734.78
1393.11	93.5	8680.36
1393.21	93.4	8619.95
1393.31	93.3	8609.64
1393.41	93.2	8592.26
1393.51	93.1	8559.75
1393.61	93	8461.38
1393.71	92.9	8426.92
1393.81	92.8	8392.29
1393.91	92.7	8357.38
1394.01	92.6	8338.61
1394.11	92.5	8355.94
1394.21	92.4	8372.34
1394.31	92.3	8286.53
1394.41	92.2	8338.2
1394.51	92.1	8359.67
1394.61	92	8302.2
1394.71	91.9	8354.8
1394.81	91.8	8431.7
1394.91	91.7	8560.3
1395.01	91.6	8488.43
1395.11	91.5	8566.86
1395.21	91.4	8647.66
1395.31	91.3	8637.13
1395.41	91.2	8800.87
1395.51	91.1	8896.86
1395.61	91	8950.72
1395.71	90.9	9142.19
1395.81	90.8	9203.44
1395.91	90.7	9252.89
1396.01	90.6	9278.6
1396.11	90.5	9361.17
1396.21	90.4	9488.64
1396.31	90.3	9515.73
1396.41	90.2	9453.8
1396.51	90.1	9388.9
1396.61	90	9454.73
1396.71	89.9	9455.23
1396.81	89.8	9410.53
1396.91	89.7	9575.07
1397.01	89.6	9628
1397.11	89.5	9684.83
1397.21	89.4	10052.4
1397.31	89.3	10288.5
1397.41	89.2	10749.2
1397.51	89.1	11252
1397.61	89	11821.3
1397.71	88.9	12578.4
1397.81	88.8	13527.7
1397.91	88.7	14865.5
1398.01	88.6	16874.5
1398.11	88.5	19599.6
1398.21	88.4	23555
1398.31	88.3	29305.1
1398.41	88.2	37182.5
1398.51	88.1	47656.9
1398.61	88	60358.9
1398.71	87.9	73914.5
1398.81	87.8	86167.5
1398.91	87.7	94078.7
1399.01	87.6	94414.2
1399.11	87.5	88061.9
1399.21	87.4	76662.9
1399.31	87.3	62715
1399.41	87.2	48844.2
1399.51	87.1	37396.2
1399.61	87	28647.8
1399.71	86.9	22436.6
1399.81	86.8	17935
1399.91	86.7	15070.6
1400.01	86.6	13012.1
1400.11	86.5	11668.5
1400.21	86.4	10700.7
1400.31	86.3	10055.6
1400.41	86.2	9486.59
1400.51	86.1	9158.55
1400.61	86	9010.56
1400.71	85.9	8827.68
1400.81	85.8	8883.12
1400.91	85.7	9052.78
1401.01	85.6	9214.08
1401.11	85.5	9610.25
1401.21	85.4	10104.3
1401.31	85.3	10787.2
1401.41	85.2	11765.6
1401.51	85.1	12997.9
1401.61	85	14770.4
1401.71	84.9	17354.6
1401.81	84.8	20916.4
1401.91	84.7	26386.7
1402.01	84.6	34255.5
1402.11	84.5	45313.4
1402.21	84.4	59733.3
1402.31	84.3	76830.7
1402.41	84.2	94756.2
1402.51	84.1	110153
1402.61	84	118131
1402.71	83.9	116598
1402.81	83.8	106349
1402.91	83.7	89583.1
1403.01	83.6	70637.5
1403.11	83.5	52920.4
1403.21	83.4	38811.8
1403.31	83.3	28083.2
1403.41	83.2	20578.4
1403.51	83.1	15382.4
1403.61	83	11775.4
1403.71	82.9	9567.12
1403.81	82.8	7905.29
1403.91	82.7	6796.9
1404.01	82.6	6073.66
1404.11	82.5	5422.49
1404.21	82.4	5013.51
1404.31	82.3	4610.26
1404.41	82.2	4346.82
1404.51	82.1	4105.85
1404.61	82	3922.06
1404.71	81.9	3747.38
1404.81	81.8	3583.95
1404.91	81.7	3406.69
1405.01	81.6	3273.24
1405.11	81.5	3216.95
1405.21	81.4	3109.41
1405.31	81.3	3056.03
1405.41	81.2	2978.21
1405.51	81.1	2899.72
1405.61	81	2812.57
1405.71	80.9	2777.91
1405.81	80.8	2689.42
1405.91	80.7	2636.97
1406.01	80.6	2638.5
1406.11	80.5	2585.81
1406.21	80.4	2534.62
1406.31	80.3	2499.96
1406.41	80.2	2466.13
1406.51	80.1	2415.7
1406.61	80	2433.42
1406.71	79.9	2436.91
1406.81	79.8	2410.79
1406.91	79.7	2393.21
1407.01	79.6	2358.13
1407.11	79.5	2332.74
1407.21	79.4	2298.58
1407.31	79.3	2311.13
1407.41	79.2	2278.53
1407.51	79.1	2271.63
1407.61	79	2281.39
1407.71	78.9	2281.3
1407.81	78.8	2234.59
1407.91	78.7	2233.72
1408.01	78.6	2274.51
1408.11	78.5	2239.68
1408.21	78.4	2245.3
1408.31	78.3	2246.37
1408.41	78.2	2293.21
1408.51	78.1	2250.49
1408.61	78	2257.66
1408.71	77.9	2221.25
1408.81	77.8	2218.57
1408.91	77.7	2267.69
1409.01	77.6	2299.54
1409.11	77.5	2274.44
1409.21	77.4	2259.1
1409.31	77.3	2278.58
1409.41	77.2	2266.75
1409.51	77.1	2280.37
1409.61	77	2259.89
1409.71	76.9	2262.21
1409.81	76.8	2260.21
1409.91	76.7	2297.19
1410.01	76.6	2322.83
1410.11	76.5	2326.86
1410.21	76.4	2299.75
1410.31	76.3	2270.02
1410.41	76.2	2298.77
1410.51	76.1	2383.48
1410.61	76	2349.38
1410.71	75.9	2386.34
1410.81	75.8	2397.62
1410.91	75.7	2411.84
1411.01	75.6	2387.39
1411.11	75.5	2481.37
1411.21	75.4	2481.95
1411.31	75.3	2458.13
1411.41	75.2	2516.41
1411.51	75.1	2499.24
1411.61	75	2486.56