EX322_CEC356_Au_Ag_Cu in H2_1.vms_vb_regions.vms
Pr:Survey
	Characteristic Energy eV	1486.61	Acquisition Time s	0.1
KE_Pr:Survey	BE_Pr:Survey	CPS_Pr:Survey
531.11	955.5	9283.83
531.61	955	9265.59
532.11	954.5	9181.82
532.61	954	8923.38
533.11	953.5	9164.64
533.61	953	9254.33
534.11	952.5	9286.21
534.61	952	9388.07
535.11	951.5	9676.54
535.61	951	9088.82
536.11	950.5	9237.98
536.61	950	9456.42
537.11	949.5	9222.79
537.61	949	8971.08
538.11	948.5	9422.84
538.61	948	9315.59
539.11	947.5	9277.49
539.61	947	9507.46
540.11	946.5	9740.79
540.61	946	9712.05
541.11	945.5	9755.53
541.61	945	9525.13
542.11	944.5	9204.24
542.61	944	9365.4
543.11	943.5	9580.53
543.61	943	9386.85
544.11	942.5	9130.85
544.61	942	9397.21
545.11	941.5	9693.63
545.61	941	9684.87
546.11	940.5	9973.79
546.61	940	9721.4
547.11	939.5	9503.45
547.61	939	9901.77
548.11	938.5	9684.7
548.61	938	9659.17
549.11	937.5	9918.65
549.61	937	9672
550.11	936.5	9669.19
550.61	936	9586.56
551.11	935.5	9851.83
551.61	935	9697.53
552.11	934.5	9874.06
552.61	934	10300.2
553.11	933.5	10219.5
553.61	933	9919.27
554.11	932.5	9949.86
554.61	932	9843.72
555.11	931.5	9520.56
555.61	931	9750.06
556.11	930.5	9949.43
556.61	930	9986.88
557.11	929.5	9874.56
557.61	929	9926.06
558.11	928.5	9965.63
558.61	928	10130.8
559.11	927.5	9798.23
559.61	927	10074.3
560.11	926.5	9964.84
560.61	926	10160
561.11	925.5	10146.9
561.61	925	9858.46
562.11	924.5	10159.7
562.61	924	9981.65
563.11	923.5	9937.95
563.61	923	9994.41
564.11	922.5	10108
564.61	922	10128.2
565.11	921.5	10013.5
565.61	921	9900.27
566.11	920.5	9919.6
566.61	920	10018.5
567.11	919.5	10017.9
567.61	919	9968.04
568.11	918.5	10059.4
568.61	918	10450
569.11	917.5	10135.9
569.61	917	10006.9
570.11	916.5	10193.7
570.61	916	10200.3
571.11	915.5	10328.7
571.61	915	10540
572.11	914.5	10420
572.61	914	10723
573.11	913.5	10473.6
573.61	913	10340.7
574.11	912.5	10344.2
574.61	912	10285.4
575.11	911.5	10575.6
575.61	911	10702.6
576.11	910.5	10280.8
576.61	910	10343.5
577.11	909.5	10566.6
577.61	909	10401.5
578.11	908.5	10431.2
578.61	908	10414.7
579.11	907.5	10345.1
579.61	907	10333.6
580.11	906.5	10209.7
580.61	906	10289.3
581.11	905.5	10367.6
581.61	905	10436
582.11	904.5	10175.1
582.61	904	10157.5
583.11	903.5	10541.6
583.61	903	10372.9
584.11	902.5	10083.5
584.61	902	10174.3
585.11	901.5	10207.4
585.61	901	10237.6
586.11	900.5	10363.7
586.61	900	10274.9
587.11	899.5	10213.4
587.61	899	10514
588.11	898.5	10418.2
588.61	898	10459.6
589.11	897.5	10622.7
589.61	897	10257.2
590.11	896.5	10364.2
590.61	896	10520.3
591.11	895.5	10654
591.61	895	10347.8
592.11	894.5	10455.3
592.61	894	10263
593.11	893.5	10444.1
593.61	893	10560.7
594.11	892.5	10561.4
594.61	892	10847.2
595.11	891.5	10563.9
595.61	891	10607.2
596.11	890.5	10453.9
596.61	890	10494
597.11	889.5	10451.4
597.61	889	10242.9
598.11	888.5	10587.3
598.61	888	10489.9
599.11	887.5	10871.8
599.61	887	10770.9
600.11	886.5	10627.1
600.61	886	10646.4
601.11	885.5	10720.1
601.61	885	10580.4
602.11	884.5	10906.5
602.61	884	10938.1
603.11	883.5	10681.5
603.61	883	10707.9
604.11	882.5	10967.9
604.61	882	11226.8
605.11	881.5	11106.5
605.61	881	11039.2
606.11	880.5	10869.9
606.61	880	10990.2
607.11	879.5	10778.7
607.61	879	10755
608.11	878.5	10897.7
608.61	878	10942.5
609.11	877.5	11135.3
609.61	877	11023.5
610.11	876.5	11117.6
610.61	876	11104.4
611.11	875.5	11394.2
611.61	875	11336.6
612.11	874.5	11319.3
612.61	874	11054.3
613.11	873.5	11129.3
613.61	873	11073
614.11	872.5	11236.4
614.61	872	11208.4
615.11	871.5	10897.5
615.61	871	10989.6
616.11	870.5	11138.8
616.61	870	11136.4
617.11	869.5	11253.4
617.61	869	10956
618.11	868.5	11188.5
618.61	868	11506.1
619.11	867.5	11480.7
619.61	867	11380.7
620.11	866.5	11582.1
620.61	866	11380.7
621.11	865.5	11336.3
621.61	865	11651.7
622.11	864.5	11456.2
622.61	864	11480.1
623.11	863.5	11565.8
623.61	863	11573.8
624.11	862.5	11287.2
624.61	862	11252
625.11	861.5	11335
625.61	861	11513.8
626.11	860.5	11551
626.61	860	11622.8
627.11	859.5	11316
627.61	859	11410.9
628.11	858.5	11712
628.61	858	11393.5
629.11	857.5	11643.4
629.61	857	11357.6
630.11	856.5	11863.3
630.61	856	11804.4
631.11	855.5	11546
631.61	855	11538.9
632.11	854.5	11678.8
632.61	854	11824.8
633.11	853.5	12008
633.61	853	12013
634.11	852.5	11744.1
634.61	852	11628.5
635.11	851.5	11653.5
635.61	851	12081
636.11	850.5	11850.2
636.61	850	12079.5
637.11	849.5	11979.1
637.61	849	11858.1
638.11	848.5	12029.8
638.61	848	12065.5
639.11	847.5	12009.9
639.61	847	12231.6
640.11	846.5	12026.8
640.61	846	12072
641.11	845.5	12251.1
641.61	845	11596.3
642.11	844.5	11901.3
642.61	844	12259.2
643.11	843.5	12065.2
643.61	843	12019.5
644.11	842.5	11832
644.61	842	12181.8
645.11	841.5	12009.1
645.61	841	12206.7
646.11	840.5	11799.9
646.61	840	12236.1
647.11	839.5	12434.2
647.61	839	12583.4
648.11	838.5	12289.1
648.61	838	11920.6
649.11	837.5	12259.4
649.61	837	12714.3
650.11	836.5	12661.1
650.61	836	12522
651.11	835.5	12349.4
651.61	835	12244.8
652.11	834.5	12523.8
652.61	834	12764.3
653.11	833.5	12381.8
653.61	833	12453.4
654.11	832.5	12424.7
654.61	832	12560
655.11	831.5	12595.6
655.61	831	12487.7
656.11	830.5	12324.9
656.61	830	12897.9
657.11	829.5	12537.4
657.61	829	12250.5
658.11	828.5	12548.6
658.61	828	12665.4
659.11	827.5	13151.1
659.61	827	12979.1
660.11	826.5	12697.3
660.61	826	12647.2
661.11	825.5	12720.1
661.61	825	12931
662.11	824.5	12834.4
662.61	824	12893.3
663.11	823.5	13106.7
663.61	823	13346.4
664.11	822.5	12948.5
664.61	822	12904.5
665.11	821.5	13139.2
665.61	821	12923.1
666.11	820.5	13144.8
666.61	820	13315.7
667.11	819.5	13218.4
667.61	819	13097.9
668.11	818.5	13187.6
668.61	818	12701.8
669.11	817.5	12915.6
669.61	817	13437.3
670.11	816.5	13000.4
670.61	816	13357.9
671.11	815.5	13442.9
671.61	815	13440.4
672.11	814.5	13300.5
672.61	814	13371.9
673.11	813.5	13391
673.61	813	13481
674.11	812.5	13169.8
674.61	812	13266.4
675.11	811.5	13359.7
675.61	811	13704.7
676.11	810.5	13394.6
676.61	810	13175.6
677.11	809.5	13619.5
677.61	809	13525.1
678.11	808.5	13724.3
678.61	808	13373.6
679.11	807.5	13410.3
679.61	807	13619.3
680.11	806.5	13655.5
680.61	806	13538.6
681.11	805.5	13415.3
681.61	805	13519.2
682.11	804.5	13755.7
682.61	804	13552.9
683.11	803.5	13741.4
683.61	803	13835
684.11	802.5	13763.3
684.61	802	13448.5
685.11	801.5	13832.7
685.61	801	13751
686.11	800.5	13882.4
686.61	800	14125.3
687.11	799.5	14081.8
687.61	799	14213.4
688.11	798.5	13863.1
688.61	798	14086
689.11	797.5	14171.7
689.61	797	14251.2
690.11	796.5	14252.5
690.61	796	14457.6
691.11	795.5	14504
691.61	795	14227.8
692.11	794.5	14306.6
692.61	794	14500.5
693.11	793.5	14685.5
693.61	793	14648.2
694.11	792.5	14525.1
694.61	792	14390.4
695.11	791.5	14680.5
695.61	791	14240.9
696.11	790.5	14279.9
696.61	790	14421.6
697.11	789.5	14614.4
697.61	789	14797.5
698.11	788.5	14730.9
698.61	788	14574.2
699.11	787.5	14747.5
699.61	787	14948.7
700.11	786.5	14997.4
700.61	786	14715.6
701.11	785.5	15051.8
701.61	785	14853.2
702.11	784.5	14648.7
702.61	784	14728.6
703.11	783.5	14715
703.61	783	14812.3
704.11	782.5	15088.6
704.61	782	15327.6
705.11	781.5	15143.8
705.61	781	14983.9
706.11	780.5	15051.5
706.61	780	15105.4
707.11	779.5	14995.7
707.61	779	15348.4
708.11	778.5	15041
708.61	778	15209.2
709.11	777.5	15371.3
709.61	777	15665.5
710.11	776.5	15699
710.61	776	15424.1
711.11	775.5	15742.8
711.61	775	15776
712.11	774.5	15784.7
712.61	774	15884.7
713.11	773.5	16059.5
713.61	773	16392.9
714.11	772.5	16074.4
714.61	772	16111.6
715.11	771.5	16334.9
715.61	771	16169
716.11	770.5	16635.5
716.61	770	16714.7
717.11	769.5	16943.1
717.61	769	17204.8
718.11	768.5	17566.1
718.61	768	17935.5
719.11	767.5	18173.9
719.61	767	18193.6
720.11	766.5	18964.4
720.61	766	19565.8
721.11	765.5	19996.3
721.61	765	20588.8
722.11	764.5	21194.7
722.61	764	21681.5
723.11	763.5	22379.5
723.61	763	22626.5
724.11	762.5	23427.6
724.61	762	23567.4
725.11	761.5	23328.3
725.61	761	23654.7
726.11	760.5	22677.9
726.61	760	22127.4
727.11	759.5	21472.4
727.61	759	20419.7
728.11	758.5	19538.5
728.61	758	19015.9
729.11	757.5	18097.2
729.61	757	17548
730.11	756.5	16935.6
730.61	756	16514.8
731.11	755.5	15853.1
731.61	755	15273
732.11	754.5	14999.5
732.61	754	14932.3
733.11	753.5	14567.7
733.61	753	14631.5
734.11	752.5	14110.5
734.61	752	14010.7
735.11	751.5	13809.7
735.61	751	13896.5
736.11	750.5	13363.4
736.61	750	13753.9
737.11	749.5	13564.3
737.61	749	12945.7
738.11	748.5	12838.4
738.61	748	13062.9
739.11	747.5	13157.2
739.61	747	12984.5
740.11	746.5	12838.8
740.61	746	12597.8
741.11	745.5	12563.4
741.61	745	12792.2
742.11	744.5	13084.4
742.61	744	12679.3
743.11	743.5	12639
743.61	743	12389.1
744.11	742.5	12214.7
744.61	742	12423.7
745.11	741.5	12450.2
745.61	741	12562.7
746.11	740.5	12374.1
746.61	740	12415.8
747.11	739.5	12605.2
747.61	739	12363
748.11	738.5	12362
748.61	738	12468
749.11	737.5	12360
749.61	737	12127.9
750.11	736.5	12380.7
750.61	736	12742.5
751.11	735.5	12623.4
751.61	735	12142.8
752.11	734.5	12482
752.61	734	12565.6
753.11	733.5	12437.8
753.61	733	12976.7
754.11	732.5	12738.9
754.61	732	12684.5
755.11	731.5	12242.1
755.61	731	12315.8
756.11	730.5	12176
756.61	730	12693
757.11	729.5	12612.9
757.61	729	12500.3
758.11	728.5	12489.8
758.61	728	12530.3
759.11	727.5	12498.9
759.61	727	12604.4
760.11	726.5	12774.2
760.61	726	12732
761.11	725.5	12562.7
761.61	725	12417.6
762.11	724.5	13089.1
762.61	724	12860.2
763.11	723.5	13166.5
763.61	723	12452.9
764.11	722.5	12716.1
764.61	722	12789.2
765.11	721.5	12973.3
765.61	721	13016.2
766.11	720.5	12877.7
766.61	720	12835.9
767.11	719.5	13067.8
767.61	719	13094.6
768.11	718.5	12902.4
768.61	718	12656.1
769.11	717.5	12734.2
769.61	717	12861
770.11	716.5	12973.7
770.61	716	13248.4
771.11	715.5	12911.7
771.61	715	13159.2
772.11	714.5	13352.7
772.61	714	13473.4
773.11	713.5	13149.7
773.61	713	12937.8
774.11	712.5	13045.2
774.61	712	13454.2
775.11	711.5	13530
775.61	711	13263.4
776.11	710.5	13345.8
776.61	710	13351.1
777.11	709.5	13362.8
777.61	709	13235.3
778.11	708.5	13820.8
778.61	708	13308.9
779.11	707.5	12992.9
779.61	707	13544.1
780.11	706.5	13718.7
780.61	706	13787.8
781.11	705.5	13446.8
781.61	705	13606
782.11	704.5	13305.6
782.61	704	13669.6
783.11	703.5	13948.9
783.61	703	13628
784.11	702.5	13584.7
784.61	702	13665.6
785.11	701.5	13963.2
785.61	701	13794.5
786.11	700.5	13969.3
786.61	700	13430.5
787.11	699.5	13927.6
787.61	699	13883
788.11	698.5	13710.2
788.61	698	14175.5
789.11	697.5	14027.1
789.61	697	14326.9
790.11	696.5	14308.1
790.61	696	13946.9
791.11	695.5	13901.9
791.61	695	14026.3
792.11	694.5	13582.9
792.61	694	14435.2
793.11	693.5	14354.8
793.61	693	14385.6
794.11	692.5	14319
794.61	692	14156.1
795.11	691.5	14431.8
795.61	691	14373.9
796.11	690.5	14358.7
796.61	690	15095.1
797.11	689.5	14637.7
797.61	689	14491
798.11	688.5	14718.4
798.61	688	14567
799.11	687.5	14639.7
799.61	687	15026.9
800.11	686.5	14806
800.61	686	14696.2
801.11	685.5	14691.3
801.61	685	15207.1
802.11	684.5	14746.6
802.61	684	14947.8
803.11	683.5	14926.3
803.61	683	14794.8
804.11	682.5	15129.9
804.61	682	15300
805.11	681.5	14841.6
805.61	681	14976.3
806.11	680.5	15082.4
806.61	680	15197.6
807.11	679.5	15117.3
807.61	679	15197.8
808.11	678.5	14927.6
808.61	678	15156.9
809.11	677.5	15631.1
809.61	677	15228.3
810.11	676.5	15370.2
810.61	676	15587.8
811.11	675.5	15782.8
811.61	675	15949.6
812.11	674.5	15362
812.61	674	15801.5
813.11	673.5	15766.3
813.61	673	15687.5
814.11	672.5	15955.3
814.61	672	16034.4
815.11	671.5	16126.8
815.61	671	16037.3
816.11	670.5	16211.5
816.61	670	16107.3
817.11	669.5	16042.8
817.61	669	15990.3
818.11	668.5	16086.7
818.61	668	15888.6
819.11	667.5	15641.1
819.61	667	16136.7
820.11	666.5	15895.5
820.61	666	16130.1
821.11	665.5	16389.4
821.61	665	16491.5
822.11	664.5	16107.5
822.61	664	16166.5
823.11	663.5	16584.3
823.61	663	15765.8
824.11	662.5	16022
824.61	662	16345.3
825.11	661.5	16803.8
825.61	661	16428
826.11	660.5	16752
826.61	660	16575.3
827.11	659.5	16792.9
827.61	659	16646.3
828.11	658.5	16704.9
828.61	658	17295.6
829.11	657.5	17086.4
829.61	657	17031.6
830.11	656.5	17088.7
830.61	656	17349.1
831.11	655.5	17517.2
831.61	655	17342.3
832.11	654.5	17492.2
832.61	654	17964.4
833.11	653.5	17997.1
833.61	653	17931
834.11	652.5	18085
834.61	652	18478.8
835.11	651.5	18314
835.61	651	18598.4
836.11	650.5	18684.2
836.61	650	19389.6
837.11	649.5	19699.5
837.61	649	20344.4
838.11	648.5	20598.8
838.61	648	21177.4
839.11	647.5	21786.8
839.61	647	22484
840.11	646.5	23415.6
840.61	646	24377
841.11	645.5	25407.5
841.61	645	26207.7
842.11	644.5	27518.7
842.61	644	28835.3
843.11	643.5	29121.5
843.61	643	29932.2
844.11	642.5	30360.9
844.61	642	29874.6
845.11	641.5	28856.2
845.61	641	27847.2
846.11	640.5	27006
846.61	640	25851.9
847.11	639.5	24074.6
847.61	639	22769.7
848.11	638.5	21295.8
848.61	638	20204.9
849.11	637.5	19543.4
849.61	637	19021.4
850.11	636.5	18260
850.61	636	17557.2
851.11	635.5	16239.7
851.61	635	16440.5
852.11	634.5	16130.2
852.61	634	15964.5
853.11	633.5	15329.7
853.61	633	14819.5
854.11	632.5	14552.5
854.61	632	14122.1
855.11	631.5	14080.5
855.61	631	14105.2
856.11	630.5	13948.5
856.61	630	13662.5
857.11	629.5	13737.3
857.61	629	14035.1
858.11	628.5	13395.5
858.61	628	13610.8
859.11	627.5	13607.4
859.61	627	13201
860.11	626.5	13565.5
860.61	626	13432.4
861.11	625.5	13410
861.61	625	13573.7
862.11	624.5	13541.9
862.61	624	13206.9
863.11	623.5	13150.9
863.61	623	13229.6
864.11	622.5	13156
864.61	622	13462.9
865.11	621.5	13267.5
865.61	621	13196.6
866.11	620.5	13449.3
866.61	620	13726.7
867.11	619.5	13276.9
867.61	619	13519.5
868.11	618.5	13551.4
868.61	618	13310.9
869.11	617.5	13521
869.61	617	13208.8
870.11	616.5	13482
870.61	616	13201
871.11	615.5	13256.5
871.61	615	13365
872.11	614.5	13337.4
872.61	614	13687.4
873.11	613.5	13495.2
873.61	613	13899.7
874.11	612.5	14292.3
874.61	612	14036.9
875.11	611.5	13378.7
875.61	611	13539.4
876.11	610.5	13629.2
876.61	610	13533.3
877.11	609.5	13862.2
877.61	609	13861.6
878.11	608.5	13540.6
878.61	608	13708.3
879.11	607.5	13472.5
879.61	607	13708
880.11	606.5	13878.5
880.61	606	14042.5
881.11	605.5	14277.3
881.61	605	14121.3
882.11	604.5	13790.5
882.61	604	14230.9
883.11	603.5	14281.5
883.61	603	13848.6
884.11	602.5	14028.8
884.61	602	14095.2
885.11	601.5	14397.2
885.61	601	14002.3
886.11	600.5	14052.4
886.61	600	14024.7
887.11	599.5	14155
887.61	599	14081.7
888.11	598.5	14166.2
888.61	598	14325.2
889.11	597.5	14449.7
889.61	597	14396.6
890.11	596.5	14465.3
890.61	596	14829.2
891.11	595.5	14786.5
891.61	595	14891.8
892.11	594.5	14032.3
892.61	594	14748.9
893.11	593.5	14891.7
893.61	593	15043.2
894.11	592.5	14839.1
894.61	592	15203
895.11	591.5	15422
895.61	591	15251.7
896.11	590.5	14949.3
896.61	590	15044.6
897.11	589.5	15198.4
897.61	589	15027.7
898.11	588.5	15554
898.61	588	15464.7
899.11	587.5	15524.3
899.61	587	15481.8
900.11	586.5	15344.2
900.61	586	15706.8
901.11	585.5	16226.8
901.61	585	15965.2
902.11	584.5	15818.8
902.61	584	15661
903.11	583.5	16285.8
903.61	583	16373.1
904.11	582.5	16718.9
904.61	582	16601.7
905.11	581.5	16840.3
905.61	581	17041.1
906.11	580.5	16816
906.61	580	16731.2
907.11	579.5	17223.9
907.61	579	16883.6
908.11	578.5	16826.5
908.61	578	16844
909.11	577.5	16454.1
909.61	577	16921.5
910.11	576.5	17029.2
910.61	576	17319.8
911.11	575.5	17367.3
911.61	575	17570.5
912.11	574.5	17663.4
912.61	574	17465.7
913.11	573.5	17306.6
913.61	573	17464.7
914.11	572.5	17596.6
914.61	572	17921
915.11	571.5	18002.9
915.61	571	17809.8
916.11	570.5	17933.4
916.61	570	17805.1
917.11	569.5	17692.1
917.61	569	17992.1
918.11	568.5	17336.6
918.61	568	17414.2
919.11	567.5	17474.9
919.61	567	17496.7
920.11	566.5	17556.4
920.61	566	17871.5
921.11	565.5	17791.1
921.61	565	18201.6
922.11	564.5	17265.7
922.61	564	17551.2
923.11	563.5	18410.5
923.61	563	18407.3
924.11	562.5	18722.3
924.61	562	18748.9
925.11	561.5	18955.9
925.61	561	19230.7
926.11	560.5	18981.3
926.61	560	19716.5
927.11	559.5	19665.8
927.61	559	20139.7
928.11	558.5	20170.4
928.61	558	20377.6
929.11	557.5	20649.5
929.61	557	21201.7
930.11	556.5	21304.5
930.61	556	21554.9
931.11	555.5	22128.9
931.61	555	22554.6
932.11	554.5	23497.6
932.61	554	24149.6
933.11	553.5	25387.7
933.61	553	26110.9
934.11	552.5	27579.4
934.61	552	29359.2
935.11	551.5	30929.6
935.61	551	33446.5
936.11	550.5	36448.9
936.61	550	39660.5
937.11	549.5	44352.1
937.61	549	50078.3
938.11	548.5	56309.8
938.61	548	62507.3
939.11	547.5	68616.3
939.61	547	73689.5
940.11	546.5	76309.2
940.61	546	75539.6
941.11	545.5	71323.7
941.61	545	64650.8
942.11	544.5	57411
942.61	544	49684.1
943.11	543.5	41957.9
943.61	543	35194.1
944.11	542.5	29592.1
944.61	542	24561.3
945.11	541.5	21069.5
945.61	541	18029.2
946.11	540.5	15798.3
946.61	540	13701.3
947.11	539.5	12188.4
947.61	539	10751.7
948.11	538.5	8997.38
948.61	538	8302.66
949.11	537.5	7607.48
949.61	537	6818.32
950.11	536.5	5461
950.61	536	5005.86
951.11	535.5	4717.8
951.61	535	4619.2
952.11	534.5	3858.15
952.61	534	3485.77
953.11	533.5	3593.58
953.61	533	3516.39
954.11	532.5	3173.41
954.61	532	3179.24
955.11	531.5	2423.43
955.61	531	2559.08
956.11	530.5	2266.62
956.61	530	1744.74
957.11	529.5	1612.42
957.61	529	1629.59
958.11	528.5	1356.43
958.61	528	1202.57
959.11	527.5	1282.42
959.61	527	1281.8
960.11	526.5	1128.56
960.61	526	676.377
961.11	525.5	948.942
961.61	525	1294
962.11	524.5	898.866
962.61	524	745.901
963.11	523.5	770.056
963.61	523	384.059
964.11	522.5	359.412
964.61	522	23.9509
965.11	521.5	783.943
965.61	521	765.968
966.11	520.5	754.709
966.61	520	463.066
967.11	519.5	420.028
967.61	519	59.2813
968.11	518.5	648.077
968.61	518	746.505
969.11	517.5	113.452
969.61	517	292.745
970.11	516.5	718.616
970.61	516	314.463
971.11	515.5	281.601
971.61	515	470.577
972.11	514.5	377.961
972.61	514	487.415
973.11	513.5	400.021
973.61	513	230.094
974.11	512.5	221.004
974.61	512	447.969
975.11	511.5	582.826
975.61	511	327.698
976.11	510.5	32.1219
976.61	510	441.554
977.11	509.5	304.952
977.61	509	353.298
978.11	508.5	664.54
978.61	508	374.712
979.11	507.5	375.152
979.61	507	559.25
980.11	506.5	177.604
980.61	506	129.476
981.11	505.5	652.855
981.61	505	773.082
982.11	504.5	385.724
982.61	504	322.214
983.11	503.5	266.065
983.61	503	281.97
984.11	502.5	42.0971
984.61	502	38.5046
985.11	501.5	101.709
985.61	501	177.919
986.11	500.5	346.457
986.61	500	314.416
987.11	499.5	444.384
987.61	499	467.672
988.11	498.5	602.285