EX322_CEC356_Au_Ag_Cu in H2_1.vms_vb_regions.vms
Pr:Survey
	Characteristic Energy eV	1486.61	Acquisition Time s	0.1
KE_Pr:Survey	BE_Pr:Survey	CPS_Pr:Survey
531.11	955.5	6883.21
531.61	955	6846.64
532.11	954.5	6807.33
532.61	954	7108.5
533.11	953.5	7016
533.61	953	6743.6
534.11	952.5	7324.99
534.61	952	7122.24
535.11	951.5	7235.13
535.61	951	7216.23
536.11	950.5	7105.7
536.61	950	7134.56
537.11	949.5	7137.01
537.61	949	7068.39
538.11	948.5	7133.58
538.61	948	7222.62
539.11	947.5	7171.58
539.61	947	7198.79
540.11	946.5	7354.87
540.61	946	7345.26
541.11	945.5	7313.71
541.61	945	7439.9
542.11	944.5	7158.47
542.61	944	7198.76
543.11	943.5	7284.62
543.61	943	7270.57
544.11	942.5	7539.15
544.61	942	7712.42
545.11	941.5	7573.51
545.61	941	7564.88
546.11	940.5	7458.24
546.61	940	7473.71
547.11	939.5	7322.53
547.61	939	7487.89
548.11	938.5	7613.57
548.61	938	7635.48
549.11	937.5	7513.6
549.61	937	7492.35
550.11	936.5	7607.5
550.61	936	7499.98
551.11	935.5	7660.11
551.61	935	7505.92
552.11	934.5	7504.66
552.61	934	7343.74
553.11	933.5	7537.85
553.61	933	7531.63
554.11	932.5	7893.1
554.61	932	7617.2
555.11	931.5	7642.19
555.61	931	7515.95
556.11	930.5	7525.21
556.61	930	7433.86
557.11	929.5	7605.06
557.61	929	8039.9
558.11	928.5	7893.96
558.61	928	7494.9
559.11	927.5	7794.08
559.61	927	7770.39
560.11	926.5	7743.58
560.61	926	7878.04
561.11	925.5	7612.55
561.61	925	7847.05
562.11	924.5	7833.52
562.61	924	7983.97
563.11	923.5	7906.36
563.61	923	7868.28
564.11	922.5	7903.77
564.61	922	7706.74
565.11	921.5	7905.38
565.61	921	7885.52
566.11	920.5	7711.26
566.61	920	7699.08
567.11	919.5	7941.96
567.61	919	7979.78
568.11	918.5	8140.27
568.61	918	7855.65
569.11	917.5	8130.76
569.61	917	8070.86
570.11	916.5	7720.4
570.61	916	7836.85
571.11	915.5	7975.1
571.61	915	7974.9
572.11	914.5	8083.14
572.61	914	7768.35
573.11	913.5	7956.83
573.61	913	7763.68
574.11	912.5	8155.61
574.61	912	8138.32
575.11	911.5	8222.71
575.61	911	8213.04
576.11	910.5	8275.22
576.61	910	8346.57
577.11	909.5	8379.09
577.61	909	8044.3
578.11	908.5	8220.53
578.61	908	8032.1
579.11	907.5	8068.55
579.61	907	8290.69
580.11	906.5	8623.17
580.61	906	8467.9
581.11	905.5	8111.63
581.61	905	8271.45
582.11	904.5	8108.29
582.61	904	8298.11
583.11	903.5	8249.98
583.61	903	8066.35
584.11	902.5	7935.74
584.61	902	8115.12
585.11	901.5	8157.6
585.61	901	8156.38
586.11	900.5	8269.22
586.61	900	8123.44
587.11	899.5	8058.62
587.61	899	8081.91
588.11	898.5	8385.53
588.61	898	8392.02
589.11	897.5	8546.38
589.61	897	8574.15
590.11	896.5	8225.56
590.61	896	8388.66
591.11	895.5	8447.81
591.61	895	8126.51
592.11	894.5	8321.47
592.61	894	8389.33
593.11	893.5	8563.7
593.61	893	8416.53
594.11	892.5	8293.28
594.61	892	8408.48
595.11	891.5	8454.6
595.61	891	8660.01
596.11	890.5	8481.66
596.61	890	8580.46
597.11	889.5	8519.18
597.61	889	8600.69
598.11	888.5	8606.47
598.61	888	8439.3
599.11	887.5	8446.55
599.61	887	8885.52
600.11	886.5	8623.16
600.61	886	8813.69
601.11	885.5	8341.39
601.61	885	8433.62
602.11	884.5	8415.82
602.61	884	8361.34
603.11	883.5	8768.75
603.61	883	8796.19
604.11	882.5	8764.37
604.61	882	8953.33
605.11	881.5	8646.99
605.61	881	8438.68
606.11	880.5	8470.92
606.61	880	9017.88
607.11	879.5	9013.61
607.61	879	8836.43
608.11	878.5	9141.18
608.61	878	8915.52
609.11	877.5	9220.37
609.61	877	9100.1
610.11	876.5	9077.99
610.61	876	9183.67
611.11	875.5	9304.88
611.61	875	9025.27
612.11	874.5	9047.75
612.61	874	8892.72
613.11	873.5	9027.45
613.61	873	9167.05
614.11	872.5	8976.07
614.61	872	9088.43
615.11	871.5	9258.24
615.61	871	9224.77
616.11	870.5	9146.42
616.61	870	9214.97
617.11	869.5	9069.72
617.61	869	9256.36
618.11	868.5	9223.88
618.61	868	9344.52
619.11	867.5	9419.36
619.61	867	9569.39
620.11	866.5	9360.9
620.61	866	9243.56
621.11	865.5	9170.69
621.61	865	9322.73
622.11	864.5	9052.31
622.61	864	9441.21
623.11	863.5	9225.01
623.61	863	9289.04
624.11	862.5	9402.14
624.61	862	9033.12
625.11	861.5	9166.48
625.61	861	9303.44
626.11	860.5	9233.46
626.61	860	9426.78
627.11	859.5	9687.49
627.61	859	9327.22
628.11	858.5	9426.91
628.61	858	9448.32
629.11	857.5	9632.05
629.61	857	9699.52
630.11	856.5	9461
630.61	856	9779.01
631.11	855.5	9626.23
631.61	855	9643.08
632.11	854.5	9428.91
632.61	854	9738.8
633.11	853.5	9820.63
633.61	853	9786.63
634.11	852.5	9797.1
634.61	852	9862.86
635.11	851.5	9905.36
635.61	851	9704.91
636.11	850.5	9855.51
636.61	850	10143.1
637.11	849.5	9904.11
637.61	849	10125.2
638.11	848.5	10142.8
638.61	848	10091.8
639.11	847.5	9856.16
639.61	847	9802.12
640.11	846.5	10024.3
640.61	846	9946.52
641.11	845.5	9623.73
641.61	845	9856
642.11	844.5	10111.3
642.61	844	10067.2
643.11	843.5	10253.5
643.61	843	10064.8
644.11	842.5	10065.7
644.61	842	10218
645.11	841.5	10204.2
645.61	841	10231.5
646.11	840.5	10087.9
646.61	840	10351.4
647.11	839.5	10408.6
647.61	839	10124.4
648.11	838.5	10068.2
648.61	838	10050.6
649.11	837.5	10266.2
649.61	837	10453.5
650.11	836.5	10423.9
650.61	836	10395.2
651.11	835.5	10494.7
651.61	835	10190.9
652.11	834.5	10106.8
652.61	834	10181.3
653.11	833.5	10197.3
653.61	833	10720.3
654.11	832.5	10691.1
654.61	832	10544.9
655.11	831.5	10440.7
655.61	831	10382.4
656.11	830.5	10569.2
656.61	830	10533.5
657.11	829.5	10520
657.61	829	10613.9
658.11	828.5	10717
658.61	828	10780.9
659.11	827.5	10638.2
659.61	827	10691.7
660.11	826.5	10550.3
660.61	826	10517.6
661.11	825.5	10675.8
661.61	825	10757.8
662.11	824.5	10859.7
662.61	824	10854.8
663.11	823.5	10529.8
663.61	823	10735.2
664.11	822.5	10875.8
664.61	822	11064.9
665.11	821.5	10624.7
665.61	821	10808.8
666.11	820.5	10979.2
666.61	820	10967.8
667.11	819.5	10809
667.61	819	10793.4
668.11	818.5	10801
668.61	818	10988.9
669.11	817.5	10774.1
669.61	817	11036.5
670.11	816.5	10885.9
670.61	816	11321.1
671.11	815.5	11305.3
671.61	815	11215.9
672.11	814.5	11041.8
672.61	814	11006.5
673.11	813.5	11065.9
673.61	813	10739.2
674.11	812.5	10874.9
674.61	812	11059.3
675.11	811.5	11020.3
675.61	811	11128.1
676.11	810.5	11414
676.61	810	11628.2
677.11	809.5	11707.7
677.61	809	11730.3
678.11	808.5	11549.1
678.61	808	11406.9
679.11	807.5	11425.6
679.61	807	11496.9
680.11	806.5	11356.1
680.61	806	11384.2
681.11	805.5	11495.4
681.61	805	11749.6
682.11	804.5	11103.6
682.61	804	11325.3
683.11	803.5	11599.2
683.61	803	11699.3
684.11	802.5	11651.5
684.61	802	11701.5
685.11	801.5	11719.7
685.61	801	11769.3
686.11	800.5	11781.2
686.61	800	11849.2
687.11	799.5	11697.8
687.61	799	11849.6
688.11	798.5	12106.1
688.61	798	12293.2
689.11	797.5	12161.2
689.61	797	11699.1
690.11	796.5	11986.2
690.61	796	11905.5
691.11	795.5	12051.9
691.61	795	11966.3
692.11	794.5	12022.2
692.61	794	12124.8
693.11	793.5	12243.8
693.61	793	12213.3
694.11	792.5	12124.2
694.61	792	12362.2
695.11	791.5	12164.1
695.61	791	11993
696.11	790.5	12127.5
696.61	790	12331.4
697.11	789.5	12510.9
697.61	789	12433.5
698.11	788.5	12465.8
698.61	788	12962.4
699.11	787.5	12566.9
699.61	787	12443.8
700.11	786.5	12763.5
700.61	786	12459.8
701.11	785.5	13001
701.61	785	12673
702.11	784.5	12637.2
702.61	784	12361.8
703.11	783.5	12559.7
703.61	783	12617.7
704.11	782.5	12697.9
704.61	782	12646.4
705.11	781.5	12728.4
705.61	781	12518.8
706.11	780.5	12923.8
706.61	780	12896.4
707.11	779.5	12980.5
707.61	779	13089.9
708.11	778.5	13101.6
708.61	778	13035.5
709.11	777.5	13252.8
709.61	777	13176.8
710.11	776.5	13298.5
710.61	776	13520.9
711.11	775.5	13204.3
711.61	775	13209.1
712.11	774.5	13522
712.61	774	13457.5
713.11	773.5	13420.2
713.61	773	13333.9
714.11	772.5	13256
714.61	772	13041.5
715.11	771.5	13277.3
715.61	771	13506.3
716.11	770.5	13200.1
716.61	770	12979.7
717.11	769.5	13298.8
717.61	769	13562.9
718.11	768.5	13462.6
718.61	768	13523.6
719.11	767.5	13694.8
719.61	767	13745.9
720.11	766.5	13996.5
720.61	766	14166
721.11	765.5	14152.8
721.61	765	15070.1
722.11	764.5	15210.5
722.61	764	15424.4
723.11	763.5	15567.2
723.61	763	15716.9
724.11	762.5	15928.2
724.61	762	16319.8
725.11	761.5	15938.8
725.61	761	16101.3
726.11	760.5	15925.6
726.61	760	15326.7
727.11	759.5	14834
727.61	759	14480.4
728.11	758.5	14054.5
728.61	758	13576.2
729.11	757.5	13517.2
729.61	757	13060.7
730.11	756.5	12653.3
730.61	756	12440.5
731.11	755.5	12497.2
731.61	755	12129.4
732.11	754.5	11915.1
732.61	754	11431.3
733.11	753.5	11059.3
733.61	753	11646.6
734.11	752.5	11729.3
734.61	752	11471.1
735.11	751.5	11369.8
735.61	751	10799.5
736.11	750.5	10791.9
736.61	750	10757.9
737.11	749.5	10841.5
737.61	749	10945.3
738.11	748.5	10770
738.61	748	10569
739.11	747.5	10808.2
739.61	747	10911.6
740.11	746.5	10616.7
740.61	746	10711.1
741.11	745.5	10503.9
741.61	745	10386.2
742.11	744.5	10775.6
742.61	744	10785.7
743.11	743.5	10425.1
743.61	743	10890.5
744.11	742.5	10686.2
744.61	742	10551.9
745.11	741.5	10441
745.61	741	10421.7
746.11	740.5	10606.4
746.61	740	10466.7
747.11	739.5	10529
747.61	739	10484.7
748.11	738.5	10504.9
748.61	738	10755.5
749.11	737.5	10648.3
749.61	737	10237.1
750.11	736.5	10176.4
750.61	736	10615.3
751.11	735.5	10563.7
751.61	735	10545.2
752.11	734.5	10598.7
752.61	734	10227.6
753.11	733.5	10865.8
753.61	733	10527.2
754.11	732.5	10635.3
754.61	732	10586.6
755.11	731.5	10610.8
755.61	731	10810.8
756.11	730.5	10876
756.61	730	10775.8
757.11	729.5	10820.5
757.61	729	11033.4
758.11	728.5	10752.1
758.61	728	10921.8
759.11	727.5	10901.1
759.61	727	11182.7
760.11	726.5	11173.4
760.61	726	11058.8
761.11	725.5	10741.5
761.61	725	10933.5
762.11	724.5	10611.1
762.61	724	10930.2
763.11	723.5	10891.5
763.61	723	10921.5
764.11	722.5	10915.5
764.61	722	11158.6
765.11	721.5	11107
765.61	721	11215.8
766.11	720.5	11033.7
766.61	720	11174.9
767.11	719.5	10824.6
767.61	719	10699.7
768.11	718.5	10995.1
768.61	718	11207
769.11	717.5	10975.4
769.61	717	10945.3
770.11	716.5	11186.4
770.61	716	11414.8
771.11	715.5	11512.2
771.61	715	11298.4
772.11	714.5	11419.1
772.61	714	11530.9
773.11	713.5	11610
773.61	713	11659.7
774.11	712.5	11224.5
774.61	712	11274.6
775.11	711.5	11508.1
775.61	711	11501.7
776.11	710.5	11517.5
776.61	710	11382
777.11	709.5	11344.2
777.61	709	11724.2
778.11	708.5	11362.2
778.61	708	11415.5
779.11	707.5	11542.5
779.61	707	11460.3
780.11	706.5	11676.3
780.61	706	11798.3
781.11	705.5	11743.7
781.61	705	11392.5
782.11	704.5	11769.8
782.61	704	11597.1
783.11	703.5	11805.2
783.61	703	11599.9
784.11	702.5	11539.5
784.61	702	11648.9
785.11	701.5	11797.4
785.61	701	12080.7
786.11	700.5	12254.4
786.61	700	12098.1
787.11	699.5	11984.3
787.61	699	11777.3
788.11	698.5	12075.6
788.61	698	12177.7
789.11	697.5	11986.4
789.61	697	12019.9
790.11	696.5	12096.6
790.61	696	12225
791.11	695.5	12296.5
791.61	695	12148.6
792.11	694.5	12379.2
792.61	694	12201.1
793.11	693.5	12651.6
793.61	693	12334.1
794.11	692.5	12442.1
794.61	692	12307.2
795.11	691.5	12430.9
795.61	691	12326.6
796.11	690.5	12682.9
796.61	690	12773.2
797.11	689.5	12272.1
797.61	689	12547.7
798.11	688.5	12810
798.61	688	12596.9
799.11	687.5	12660.5
799.61	687	12706.2
800.11	686.5	12702.9
800.61	686	12784
801.11	685.5	12820.2
801.61	685	12777.3
802.11	684.5	13268
802.61	684	13161.3
803.11	683.5	12779.1
803.61	683	12956.4
804.11	682.5	12713.3
804.61	682	12999.1
805.11	681.5	13135.2
805.61	681	13083.1
806.11	680.5	13440.5
806.61	680	13495.9
807.11	679.5	13107
807.61	679	13218.4
808.11	678.5	13284.7
808.61	678	13382.4
809.11	677.5	13396.2
809.61	677	13495.4
810.11	676.5	13487.6
810.61	676	13574.8
811.11	675.5	13245.4
811.61	675	13343.9
812.11	674.5	13458.7
812.61	674	13548.5
813.11	673.5	13411.4
813.61	673	13425.8
814.11	672.5	13414.5
814.61	672	13833
815.11	671.5	13999
815.61	671	13834.4
816.11	670.5	13845.5
816.61	670	14337.7
817.11	669.5	14558.8
817.61	669	13973.4
818.11	668.5	14046.4
818.61	668	14494.6
819.11	667.5	14097
819.61	667	14408.1
820.11	666.5	14253.1
820.61	666	14160.1
821.11	665.5	14262.5
821.61	665	14278.3
822.11	664.5	14469.3
822.61	664	14214.2
823.11	663.5	14093.7
823.61	663	14593.5
824.11	662.5	14503.7
824.61	662	14822.1
825.11	661.5	14465.4
825.61	661	14590.2
826.11	660.5	14646.4
826.61	660	14919.4
827.11	659.5	15056.3
827.61	659	14952.7
828.11	658.5	14964.4
828.61	658	15342.3
829.11	657.5	15013.3
829.61	657	14835.1
830.11	656.5	15338.3
830.61	656	15479.2
831.11	655.5	15125
831.61	655	15335.4
832.11	654.5	15520.2
832.61	654	15296.8
833.11	653.5	15441.9
833.61	653	15583.2
834.11	652.5	15321.5
834.61	652	15248.1
835.11	651.5	15721.5
835.61	651	15683
836.11	650.5	14868.3
836.61	650	15535.1
837.11	649.5	15726.7
837.61	649	15754.9
838.11	648.5	15752.4
838.61	648	16186.8
839.11	647.5	16511.4
839.61	647	16804.9
840.11	646.5	16775.1
840.61	646	18005
841.11	645.5	18230.6
841.61	645	19138.9
842.11	644.5	19613
842.61	644	20197.9
843.11	643.5	20553.6
843.61	643	20571.2
844.11	642.5	20879.6
844.61	642	20592.7
845.11	641.5	20749.1
845.61	641	20013.5
846.11	640.5	18845.6
846.61	640	18435.7
847.11	639.5	17678.3
847.61	639	17022.7
848.11	638.5	16229.3
848.61	638	15641.5
849.11	637.5	14792.1
849.61	637	14249.1
850.11	636.5	14423
850.61	636	13987
851.11	635.5	13186.9
851.61	635	13058.7
852.11	634.5	12822.8
852.61	634	12505.5
853.11	633.5	12283.5
853.61	633	12341
854.11	632.5	12290.4
854.61	632	12031.9
855.11	631.5	11722.1
855.61	631	11681.1
856.11	630.5	11882.4
856.61	630	12085.8
857.11	629.5	11850.9
857.61	629	11965
858.11	628.5	11467.3
858.61	628	11566.5
859.11	627.5	11562.9
859.61	627	11551.9
860.11	626.5	11728.1
860.61	626	11474
861.11	625.5	11514.5
861.61	625	11343
862.11	624.5	11474.5
862.61	624	11742.8
863.11	623.5	11645
863.61	623	11399.3
864.11	622.5	11458
864.61	622	11607.2
865.11	621.5	11617.6
865.61	621	11196.9
866.11	620.5	11027.2
866.61	620	10947.2
867.11	619.5	11448.3
867.61	619	11476.6
868.11	618.5	11467.9
868.61	618	11377.3
869.11	617.5	11772.4
869.61	617	11588.4
870.11	616.5	11503.9
870.61	616	11472.7
871.11	615.5	11734.9
871.61	615	11552.8
872.11	614.5	11985.7
872.61	614	12071.6
873.11	613.5	11628
873.61	613	11829.4
874.11	612.5	11699.8
874.61	612	11861.1
875.11	611.5	11948.4
875.61	611	11629.6
876.11	610.5	11812.2
876.61	610	12255.2
877.11	609.5	11925.4
877.61	609	12203
878.11	608.5	12232.7
878.61	608	12247.2
879.11	607.5	11983.6
879.61	607	12514
880.11	606.5	12244.7
880.61	606	12356.1
881.11	605.5	11756.1
881.61	605	12365.6
882.11	604.5	12348.5
882.61	604	12415.2
883.11	603.5	12234.3
883.61	603	12325.2
884.11	602.5	12684.6
884.61	602	12783.2
885.11	601.5	12310.3
885.61	601	12154
886.11	600.5	12459.3
886.61	600	12535
887.11	599.5	12776.3
887.61	599	12634.2
888.11	598.5	12937.8
888.61	598	12667.6
889.11	597.5	12278.4
889.61	597	12936.8
890.11	596.5	12938.4
890.61	596	13182.6
891.11	595.5	13319.6
891.61	595	12864.8
892.11	594.5	13237.4
892.61	594	13437.8
893.11	593.5	13003
893.61	593	13102
894.11	592.5	13124.7
894.61	592	13082.7
895.11	591.5	13373.8
895.61	591	13606.1
896.11	590.5	13362.4
896.61	590	13607.2
897.11	589.5	13643.4
897.61	589	13437.8
898.11	588.5	13251.6
898.61	588	13470.9
899.11	587.5	13667
899.61	587	13753.5
900.11	586.5	13854.8
900.61	586	13767.6
901.11	585.5	14206.9
901.61	585	14291.3
902.11	584.5	14225.5
902.61	584	14242.3
903.11	583.5	14679.7
903.61	583	14646.8
904.11	582.5	14851.2
904.61	582	14408
905.11	581.5	14873.2
905.61	581	14775.4
906.11	580.5	15203.8
906.61	580	14754
907.11	579.5	14554.6
907.61	579	14741.1
908.11	578.5	15266.9
908.61	578	15367.8
909.11	577.5	15365.2
909.61	577	15422
910.11	576.5	15406.9
910.61	576	15529.7
911.11	575.5	15668.1
911.61	575	15742.3
912.11	574.5	15618.1
912.61	574	15755.1
913.11	573.5	15658.7
913.61	573	15823.8
914.11	572.5	15948.1
914.61	572	16551.8
915.11	571.5	16173.3
915.61	571	15629.1
916.11	570.5	15878
916.61	570	16155.8
917.11	569.5	16069.3
917.61	569	16378.6
918.11	568.5	16194.9
918.61	568	16095.3
919.11	567.5	16597.3
919.61	567	16821.8
920.11	566.5	16731.3
920.61	566	16636.1
921.11	565.5	16895.4
921.61	565	17674.2
922.11	564.5	17790.7
922.61	564	17956.6
923.11	563.5	17747.3
923.61	563	18361.2
924.11	562.5	19276.5
924.61	562	19001.1
925.11	561.5	19460.6
925.61	561	20174
926.11	560.5	19610
926.61	560	20077.8
927.11	559.5	19991
927.61	559	19853.7
928.11	558.5	19192.6
928.61	558	19148.8
929.11	557.5	18634.8
929.61	557	17972.8
930.11	556.5	17210.2
930.61	556	16885.9
931.11	555.5	16678.1
931.61	555	16477
932.11	554.5	16357.1
932.61	554	16208.4
933.11	553.5	16222.9
933.61	553	16787.9
934.11	552.5	18057.7
934.61	552	18743.8
935.11	551.5	19873.1
935.61	551	21006.2
936.11	550.5	22493.9
936.61	550	25091.7
937.11	549.5	27571.2
937.61	549	30931.4
938.11	548.5	34478.5
938.61	548	38096.4
939.11	547.5	41567.1
939.61	547	44373
940.11	546.5	46269.5
940.61	546	45798.7
941.11	545.5	42927.2
941.61	545	39007.8
942.11	544.5	34626.3
942.61	544	29635.1
943.11	543.5	25525.9
943.61	543	21257.4
944.11	542.5	17906.5
944.61	542	15426.7
945.11	541.5	13096.8
945.61	541	11072.5
946.11	540.5	10002.9
946.61	540	8252.15
947.11	539.5	7406.92
947.61	539	6337.14
948.11	538.5	5471.84
948.61	538	5233.09
949.11	537.5	4609.53
949.61	537	3902.11
950.11	536.5	3492.95
950.61	536	3074.82
951.11	535.5	3015.69
951.61	535	2598.17
952.11	534.5	2221.25
952.61	534	2365.58
953.11	533.5	2348.02
953.61	533	1896.6
954.11	532.5	1422.73
954.61	532	1686.1
955.11	531.5	1530.12
955.61	531	1333.99
956.11	530.5	825.928
956.61	530	1021.31
957.11	529.5	1136.48
957.61	529	979.59
958.11	528.5	947.952
958.61	528	790.879
959.11	527.5	721.087
959.61	527	706.619
960.11	526.5	1040.38
960.61	526	602.824
961.11	525.5	637.284
961.61	525	391.178
962.11	524.5	546.391
962.61	524	504.587
963.11	523.5	375.927
963.61	523	441.557
964.11	522.5	267.741
964.61	522	49.8615
965.11	521.5	431.257
965.61	521	252.418
966.11	520.5	252.041
966.61	520	-86.5713
967.11	519.5	213.062
967.61	519	572.957
968.11	518.5	611.417
968.61	518	597.196
969.11	517.5	780.949
969.61	517	672.289
970.11	516.5	208.519
970.61	516	205.799
971.11	515.5	172.457
971.61	515	426.888
972.11	514.5	377.75
972.61	514	263
973.11	513.5	232.578
973.61	513	552.758
974.11	512.5	30.1944
974.61	512	37.0217
975.11	511.5	101.533
975.61	511	16.1217
976.11	510.5	139.033
976.61	510	104.918
977.11	509.5	342.955
977.61	509	385.81
978.11	508.5	73.9252
978.61	508	-82.3999
979.11	507.5	70.5213
979.61	507	136.4
980.11	506.5	-83.7286
980.61	506	92.7999
981.11	505.5	268.008
981.61	505	-71.5618
982.11	504.5	73.1769
982.61	504	-9.71622
983.11	503.5	676.439
983.61	503	600.491
984.11	502.5	368.014
984.61	502	490.53
985.11	501.5	-15.0491
985.61	501	8.83087
986.11	500.5	303.377
986.61	500	293.956
987.11	499.5	435.827
987.61	499	287.27
988.11	498.5	516.134