C:\Users\Mark\ownCloud\Muelheim Group\Projects\Gas phase background\EX322_CEC356_Au_Ag_Cu in H2_1.vms.vms
Cu2p
	Characteristic Energy eV	1486.61	Acquisition Time s	2.5
KE_Cu2p	BE_Cu2p	CPS_Cu2p
456.61	1030	21083.9
456.71	1029.9	21087.8
456.81	1029.8	21093.9
456.91	1029.7	21066
457.01	1029.6	21100.2
457.11	1029.5	21012.7
457.21	1029.4	21107.4
457.31	1029.3	21124
457.41	1029.2	21129
457.51	1029.1	21121.9
457.61	1029	21063.2
457.71	1028.9	21078.4
457.81	1028.8	21116.4
457.91	1028.7	21093
458.01	1028.6	21166.2
458.11	1028.5	21159
458.21	1028.4	21122.2
458.31	1028.3	21148.3
458.41	1028.2	21229
458.51	1028.1	21144.3
458.61	1028	21141.5
458.71	1027.9	21140.8
458.81	1027.8	21076.5
458.91	1027.7	21158.4
459.01	1027.6	21260.2
459.11	1027.5	21202.1
459.21	1027.4	21179.9
459.31	1027.3	21158.7
459.41	1027.2	21193.3
459.51	1027.1	21262.9
459.61	1027	21176.4
459.71	1026.9	21256.9
459.81	1026.8	21159.1
459.91	1026.7	21244.1
460.01	1026.6	21203.5
460.11	1026.5	21200.8
460.21	1026.4	21259.5
460.31	1026.3	21202.7
460.41	1026.2	21227.3
460.51	1026.1	21228.8
460.61	1026	21277.5
460.71	1025.9	21250.8
460.81	1025.8	21283.1
460.91	1025.7	21204.2
461.01	1025.6	21378.2
461.11	1025.5	21328.8
461.21	1025.4	21274.8
461.31	1025.3	21279.3
461.41	1025.2	21289.7
461.51	1025.1	21342.1
461.61	1025	21294.1
461.71	1024.9	21414.9
461.81	1024.8	21297.5
461.91	1024.7	21284.4
462.01	1024.6	21239.8
462.11	1024.5	21430.3
462.21	1024.4	21332
462.31	1024.3	21418.1
462.41	1024.2	21386.5
462.51	1024.1	21345.8
462.61	1024	21360.4
462.71	1023.9	21337.2
462.81	1023.8	21436.5
462.91	1023.7	21424.9
463.01	1023.6	21348.3
463.11	1023.5	21430.2
463.21	1023.4	21421.4
463.31	1023.3	21364.8
463.41	1023.2	21443
463.51	1023.1	21363.1
463.61	1023	21465.5
463.71	1022.9	21539.3
463.81	1022.8	21503.5
463.91	1022.7	21374.4
464.01	1022.6	21391.7
464.11	1022.5	21384
464.21	1022.4	21495.3
464.31	1022.3	21488.8
464.41	1022.2	21467.4
464.51	1022.1	21481.7
464.61	1022	21517.5
464.71	1021.9	21501.7
464.81	1021.8	21503.7
464.91	1021.7	21512
465.01	1021.6	21482.3
465.11	1021.5	21514.3
465.21	1021.4	21566.6
465.31	1021.3	21673.8
465.41	1021.2	21610.3
465.51	1021.1	21550
465.61	1021	21481.9
465.71	1020.9	21496.5
465.81	1020.8	21505.9
465.91	1020.7	21529.9
466.01	1020.6	21607.2
466.11	1020.5	21551.7
466.21	1020.4	21572.8
466.31	1020.3	21568.6
466.41	1020.2	21571.2
466.51	1020.1	21659.1
466.61	1020	21712.9
466.71	1019.9	21618.9
466.81	1019.8	21543.9
466.91	1019.7	21601.9
467.01	1019.6	21668
467.11	1019.5	21579.6
467.21	1019.4	21584.8
467.31	1019.3	21659.4
467.41	1019.2	21653.8
467.51	1019.1	21668.7
467.61	1019	21669.5
467.71	1018.9	21622.4
467.81	1018.8	21603.9
467.91	1018.7	21571.1
468.01	1018.6	21640.1
468.11	1018.5	21693.1
468.21	1018.4	21825.7
468.31	1018.3	21843.9
468.41	1018.2	21735.2
468.51	1018.1	21722.6
468.61	1018	21692.5
468.71	1017.9	21719.8
468.81	1017.8	21669.7
468.91	1017.7	21777
469.01	1017.6	21774
469.11	1017.5	21751.5
469.21	1017.4	21847.3
469.31	1017.3	21767
469.41	1017.2	21786
469.51	1017.1	21716
469.61	1017	21757.2
469.71	1016.9	21782
469.81	1016.8	21776
469.91	1016.7	21839
470.01	1016.6	21781.6
470.11	1016.5	21798.6
470.21	1016.4	21728.8
470.31	1016.3	21725
470.41	1016.2	21860
470.51	1016.1	21841.9
470.61	1016	21744.1
470.71	1015.9	21755.5
470.81	1015.8	21966.5
470.91	1015.7	21954.4
471.01	1015.6	21832.4
471.11	1015.5	21847.6
471.21	1015.4	21955.2
471.31	1015.3	21941.2
471.41	1015.2	21872.8
471.51	1015.1	21820.8
471.61	1015	21818.6
471.71	1014.9	21894.1
471.81	1014.8	21901.4
471.91	1014.7	21889.5
472.01	1014.6	21987.2
472.11	1014.5	21946.8
472.21	1014.4	21950.8
472.31	1014.3	21978.8
472.41	1014.2	21920.5
472.51	1014.1	21920.1
472.61	1014	22022.8
472.71	1013.9	21836.5
472.81	1013.8	21973.4
472.91	1013.7	22028
473.01	1013.6	22091.4
473.11	1013.5	22016
473.21	1013.4	22009.1
473.31	1013.3	21979.2
473.41	1013.2	21895.9
473.51	1013.1	22008.7
473.61	1013	22009.9
473.71	1012.9	22002.2
473.81	1012.8	22108.7
473.91	1012.7	22041.8
474.01	1012.6	22071
474.11	1012.5	22067.4
474.21	1012.4	22174.8
474.31	1012.3	22107.6
474.41	1012.2	22106.1
474.51	1012.1	22081.8
474.61	1012	22138
474.71	1011.9	22122.5
474.81	1011.8	22164.8
474.91	1011.7	22154
475.01	1011.6	22128.5
475.11	1011.5	22154.5
475.21	1011.4	22125
475.31	1011.3	22083.6
475.41	1011.2	22115.5
475.51	1011.1	22181.2
475.61	1011	22193.1
475.71	1010.9	22237.1
475.81	1010.8	22225.8
475.91	1010.7	22194.1
476.01	1010.6	22074.4
476.11	1010.5	22195.3
476.21	1010.4	22241.1
476.31	1010.3	22211.6
476.41	1010.2	22099.9
476.51	1010.1	22244.7
476.61	1010	22324.7
476.71	1009.9	22189.8
476.81	1009.8	22157.2
476.91	1009.7	22320.8
477.01	1009.6	22296.1
477.11	1009.5	22227.3
477.21	1009.4	22272.4
477.31	1009.3	22310.6
477.41	1009.2	22252.2
477.51	1009.1	22370.7
477.61	1009	22286.8
477.71	1008.9	22289.8
477.81	1008.8	22353.3
477.91	1008.7	22331.5
478.01	1008.6	22399.1
478.11	1008.5	22374.9
478.21	1008.4	22382.9
478.31	1008.3	22290.3
478.41	1008.2	22297.4
478.51	1008.1	22381
478.61	1008	22318.7
478.71	1007.9	22422.7
478.81	1007.8	22438
478.91	1007.7	22461.1
479.01	1007.6	22499.9
479.11	1007.5	22405.2
479.21	1007.4	22375.7
479.31	1007.3	22412.7
479.41	1007.2	22404.8
479.51	1007.1	22441.2
479.61	1007	22484.2
479.71	1006.9	22414.6
479.81	1006.8	22466
479.91	1006.7	22513.7
480.01	1006.6	22508
480.11	1006.5	22457.2
480.21	1006.4	22517.3
480.31	1006.3	22574.5
480.41	1006.2	22521.7
480.51	1006.1	22538.3
480.61	1006	22504.5
480.71	1005.9	22510.3
480.81	1005.8	22509.2
480.91	1005.7	22489.7
481.01	1005.6	22516.4
481.11	1005.5	22589.3
481.21	1005.4	22511.3
481.31	1005.3	22564.9
481.41	1005.2	22515.3
481.51	1005.1	22642.5
481.61	1005	22579.7
481.71	1004.9	22632.2
481.81	1004.8	22653.8
481.91	1004.7	22647.9
482.01	1004.6	22604.4
482.11	1004.5	22641.2
482.21	1004.4	22705.3
482.31	1004.3	22645.8
482.41	1004.2	22694.5
482.51	1004.1	22679.6
482.61	1004	22769.1
482.71	1003.9	22768
482.81	1003.8	22788.8
482.91	1003.7	22711
483.01	1003.6	22605.1
483.11	1003.5	22716.6
483.21	1003.4	22798.6
483.31	1003.3	22767.2
483.41	1003.2	22796.7
483.51	1003.1	22874
483.61	1003	22839.1
483.71	1002.9	22751.6
483.81	1002.8	22708.6
483.91	1002.7	22840.3
484.01	1002.6	22851.8
484.11	1002.5	22855.7
484.21	1002.4	22791.6
484.31	1002.3	22742
484.41	1002.2	22708.2
484.51	1002.1	22855.8
484.61	1002	22880.3
484.71	1001.9	22853.4
484.81	1001.8	22949.9
484.91	1001.7	22832.7
485.01	1001.6	22830.6
485.11	1001.5	22879.1
485.21	1001.4	22947.3
485.31	1001.3	22952.8
485.41	1001.2	22952.3
485.51	1001.1	22955
485.61	1001	22977.4
485.71	1000.9	22966
485.81	1000.8	23022.3
485.91	1000.7	22944.7
486.01	1000.6	22920
486.11	1000.5	23059.2
486.21	1000.4	22996.3
486.31	1000.3	23058.2
486.41	1000.2	23022.8
486.51	1000.1	23038.4
486.61	1000	23021.5
486.71	999.9	23079.1
486.81	999.8	23047.1
486.91	999.7	22954
487.01	999.6	23105.5
487.11	999.5	23118.8
487.21	999.4	23089.2
487.31	999.3	23194.6
487.41	999.2	23200.5
487.51	999.1	23195.9
487.61	999	23126.5
487.71	998.9	23158.3
487.81	998.8	23201.7
487.91	998.7	23157.1
488.01	998.6	23164.5
488.11	998.5	23163.3
488.21	998.4	23122.2
488.31	998.3	23061.8
488.41	998.2	23247.2
488.51	998.1	23373.1
488.61	998	23293.3
488.71	997.9	23195.2
488.81	997.8	23228.5
488.91	997.7	23274.1
489.01	997.6	23264.3
489.11	997.5	23376.2
489.21	997.4	23337.3
489.31	997.3	23166.1
489.41	997.2	23205.3
489.51	997.1	23363.7
489.61	997	23348.8
489.71	996.9	23345.1
489.81	996.8	23312.1
489.91	996.7	23368.6
490.01	996.6	23320.6
490.11	996.5	23293.1
490.21	996.4	23334.8
490.31	996.3	23432.9
490.41	996.2	23487.1
490.51	996.1	23494.3
490.61	996	23503.5
490.71	995.9	23391.2
490.81	995.8	23391.2
490.91	995.7	23427.5
491.01	995.6	23420.5
491.11	995.5	23496.8
491.21	995.4	23531
491.31	995.3	23479.5
491.41	995.2	23405.7
491.51	995.1	23485.5
491.61	995	23501.8
491.71	994.9	23404.9
491.81	994.8	23432.8
491.91	994.7	23443.6
492.01	994.6	23564.9
492.11	994.5	23480.4
492.21	994.4	23605.5
492.31	994.3	23526
492.41	994.2	23549.8
492.51	994.1	23527.1
492.61	994	23614.6
492.71	993.9	23659.2
492.81	993.8	23613.4
492.91	993.7	23579
493.01	993.6	23658.1
493.11	993.5	23620.4
493.21	993.4	23650.6
493.31	993.3	23630.8
493.41	993.2	23659.1
493.51	993.1	23650.8
493.61	993	23622.5
493.71	992.9	23681.2
493.81	992.8	23703.7
493.91	992.7	23698.3
494.01	992.6	23728.5
494.11	992.5	23745.2
494.21	992.4	23697.3
494.31	992.3	23735.3
494.41	992.2	23744.3
494.51	992.1	23713.3
494.61	992	23736.4
494.71	991.9	23809.6
494.81	991.8	23719.7
494.91	991.7	23780.7
495.01	991.6	23832.4
495.11	991.5	23779.5
495.21	991.4	23804.6
495.31	991.3	23701.2
495.41	991.2	23773
495.51	991.1	23827.6
495.61	991	23858.5
495.71	990.9	23862.5
495.81	990.8	23772.7
495.91	990.7	23793.5
496.01	990.6	23749.1
496.11	990.5	23834.8
496.21	990.4	23904.4
496.31	990.3	23813.1
496.41	990.2	23873.3
496.51	990.1	23907.6
496.61	990	23887.5
496.71	989.9	23980.6
496.81	989.8	23922.9
496.91	989.7	23950.4
497.01	989.6	23880.8
497.11	989.5	23858.8
497.21	989.4	23989.9
497.31	989.3	23978.3
497.41	989.2	23972.7
497.51	989.1	23964.5
497.61	989	24056.8
497.71	988.9	24036.2
497.81	988.8	24102.2
497.91	988.7	24012.6
498.01	988.6	24000
498.11	988.5	23982.5
498.21	988.4	24088.1
498.31	988.3	24199.9
498.41	988.2	24148.3
498.51	988.1	24062.4
498.61	988	24008.2
498.71	987.9	24127.7
498.81	987.8	24111.6
498.91	987.7	24093.9
499.01	987.6	24232
499.11	987.5	24143.6
499.21	987.4	24286.6
499.31	987.3	24228.4
499.41	987.2	24119.7
499.51	987.1	24122.5
499.61	987	24216.8
499.71	986.9	24297.9
499.81	986.8	24286.2
499.91	986.7	24265.6
500.01	986.6	24298.7
500.11	986.5	24338.4
500.21	986.4	24396.2
500.31	986.3	24361
500.41	986.2	24314.4
500.51	986.1	24398.8
500.61	986	24359.3
500.71	985.9	24308.9
500.81	985.8	24354.1
500.91	985.7	24479.7
501.01	985.6	24480.1
501.11	985.5	24483.3
501.21	985.4	24502.3
501.31	985.3	24592.8
501.41	985.2	24533.3
501.51	985.1	24523.8
501.61	985	24480.5
501.71	984.9	24558.7
501.81	984.8	24580.8
501.91	984.7	24577.1
502.01	984.6	24554.9
502.11	984.5	24688.6
502.21	984.4	24618.9
502.31	984.3	24535.7
502.41	984.2	24583.8
502.51	984.1	24672.1
502.61	984	24635.5
502.71	983.9	24672.4
502.81	983.8	24672.2
502.91	983.7	24686.9
503.01	983.6	24800.1
503.11	983.5	24742.6
503.21	983.4	24845.7
503.31	983.3	24820.4
503.41	983.2	24819.9
503.51	983.1	24871.2
503.61	983	24890
503.71	982.9	24862.6
503.81	982.8	24887.3
503.91	982.7	25006.2
504.01	982.6	24923.1
504.11	982.5	24897.5
504.21	982.4	24979.6
504.31	982.3	25031.8
504.41	982.2	24972.6
504.51	982.1	25017.8
504.61	982	25129.3
504.71	981.9	25052.2
504.81	981.8	25086.8
504.91	981.7	25089.2
505.01	981.6	25084.3
505.11	981.5	25109.8
505.21	981.4	25226.1
505.31	981.3	25074.1
505.41	981.2	25178.7
505.51	981.1	25129.8
505.61	981	25146.5
505.71	980.9	25199.1
505.81	980.8	25155.8
505.91	980.7	25180.2
506.01	980.6	25266.9
506.11	980.5	25295.2
506.21	980.4	25368.9
506.31	980.3	25284.3
506.41	980.2	25359.8
506.51	980.1	25314.9
506.61	980	25468.1
506.71	979.9	25501.8
506.81	979.8	25462.4
506.91	979.7	25335
507.01	979.6	25393.1
507.11	979.5	25366.2
507.21	979.4	25372.9
507.31	979.3	25420.5
507.41	979.2	25451.8
507.51	979.1	25410.4
507.61	979	25447.5
507.71	978.9	25410.9
507.81	978.8	25542.5
507.91	978.7	25616.5
508.01	978.6	25560.8
508.11	978.5	25489.1
508.21	978.4	25549.4
508.31	978.3	25548.5
508.41	978.2	25476
508.51	978.1	25553.5
508.61	978	25586.6
508.71	977.9	25443.6
508.81	977.8	25548.6
508.91	977.7	25648.8
509.01	977.6	25649.2
509.11	977.5	25628.8
509.21	977.4	25632.1
509.31	977.3	25688.6
509.41	977.2	25721.4
509.51	977.1	25580.9
509.61	977	25760.4
509.71	976.9	25766.3
509.81	976.8	25700.2
509.91	976.7	25848.3
510.01	976.6	25748.2
510.11	976.5	25772.4
510.21	976.4	25884.9
510.31	976.3	25734.1
510.41	976.2	25786.5
510.51	976.1	25978.7
510.61	976	25898
510.71	975.9	25813.2
510.81	975.8	25906
510.91	975.7	25910.9
511.01	975.6	25879.7
511.11	975.5	26012.1
511.21	975.4	25920.3
511.31	975.3	26062.8
511.41	975.2	26132.3
511.51	975.1	26159.2
511.61	975	26074.5
511.71	974.9	26138.7
511.81	974.8	26148.8
511.91	974.7	26063.9
512.01	974.6	26084
512.11	974.5	26149.4
512.21	974.4	26190
512.31	974.3	26332.1
512.41	974.2	26327.3
512.51	974.1	26326.2
512.61	974	26285.3
512.71	973.9	26397.9
512.81	973.8	26351
512.91	973.7	26484.5
513.01	973.6	26531.5
513.11	973.5	26553.9
513.21	973.4	26389.8
513.31	973.3	26506
513.41	973.2	26538.1
513.51	973.1	26505
513.61	973	26466.1
513.71	972.9	26492
513.81	972.8	26576.6
513.91	972.7	26603.7
514.01	972.6	26565.8
514.11	972.5	26537.2
514.21	972.4	26491.4
514.31	972.3	26617.1
514.41	972.2	26642.2
514.51	972.1	26708.6
514.61	972	26642.6
514.71	971.9	26683.3
514.81	971.8	26707.1
514.91	971.7	26651.2
515.01	971.6	26685.7
515.11	971.5	26718.8
515.21	971.4	26658.5
515.31	971.3	26731.6
515.41	971.2	26694.8
515.51	971.1	26694.7
515.61	971	26685.8
515.71	970.9	26667.2
515.81	970.8	26606.3
515.91	970.7	26598
516.01	970.6	26756.2
516.11	970.5	26780.5
516.21	970.4	26653.1
516.31	970.3	26660.9
516.41	970.2	26618.7
516.51	970.1	26642.6
516.61	970	26702.6
516.71	969.9	26661.7
516.81	969.8	26743.9
516.91	969.7	26807.6
517.01	969.6	26745.3
517.11	969.5	26849.2
517.21	969.4	26818.7
517.31	969.3	26848.3
517.41	969.2	26895.5
517.51	969.1	26815.4
517.61	969	26793.5
517.71	968.9	26943.2
517.81	968.8	26881.7
517.91	968.7	26856.8
518.01	968.6	26899.9
518.11	968.5	26920.4
518.21	968.4	26908.6
518.31	968.3	26922.5
518.41	968.2	26967.9
518.51	968.1	26975.2
518.61	968	26930.6
518.71	967.9	27019.2
518.81	967.8	26877.9
518.91	967.7	27003.9
519.01	967.6	26988.9
519.11	967.5	26988.3
519.21	967.4	26965.9
519.31	967.3	26971.8
519.41	967.2	27000.3
519.51	967.1	27091.9
519.61	967	27239.4
519.71	966.9	27157.3
519.81	966.8	27242.3
519.91	966.7	27179.4
520.01	966.6	27139.3
520.11	966.5	27337.1
520.21	966.4	27404.2
520.31	966.3	27425
520.41	966.2	27347.7
520.51	966.1	27430.5
520.61	966	27427.3
520.71	965.9	27559.2
520.81	965.8	27594.6
520.91	965.7	27764
521.01	965.6	27879.7
521.11	965.5	27780.3
521.21	965.4	27829.9
521.31	965.3	27849.2
521.41	965.2	27967.5
521.51	965.1	27960.4
521.61	965	27965.1
521.71	964.9	28034.5
521.81	964.8	28084
521.91	964.7	28071.6
522.01	964.6	27985.4
522.11	964.5	28081.2
522.21	964.4	27961
522.31	964.3	27899.9
522.41	964.2	27960.4
522.51	964.1	27977.9
522.61	964	27902.9
522.71	963.9	27808.3
522.81	963.8	27835.9
522.91	963.7	27598.4
523.01	963.6	27503.7
523.11	963.5	27463.7
523.21	963.4	27418.9
523.31	963.3	27255.9
523.41	963.2	27258.1
523.51	963.1	27087.9
523.61	963	27146
523.71	962.9	27039
523.81	962.8	26927.9
523.91	962.7	26857.6
524.01	962.6	26909
524.11	962.5	26821.7
524.21	962.4	26828.1
524.31	962.3	26776.3
524.41	962.2	26710.1
524.51	962.1	26786.6
524.61	962	26730.7
524.71	961.9	26784.1
524.81	961.8	26755.3
524.91	961.7	26746.3
525.01	961.6	26759.3
525.11	961.5	26766
525.21	961.4	26700.5
525.31	961.3	26790.9
525.41	961.2	26769.2
525.51	961.1	26837
525.61	961	26831.3
525.71	960.9	26794.4
525.81	960.8	26815.2
525.91	960.7	26911.7
526.01	960.6	27045.5
526.11	960.5	26917.6
526.21	960.4	26861.1
526.31	960.3	27005.6
526.41	960.2	26987.6
526.51	960.1	26957.9
526.61	960	26907.1
526.71	959.9	27083.5
526.81	959.8	27068.3
526.91	959.7	27146.9
527.01	959.6	27073.3
527.11	959.5	27036.8
527.21	959.4	26971.4
527.31	959.3	27005.8
527.41	959.2	27017.2
527.51	959.1	27091
527.61	959	26971.9
527.71	958.9	26985.1
527.81	958.8	27073.1
527.91	958.7	27098.5
528.01	958.6	27091
528.11	958.5	27136.7
528.21	958.4	27097.7
528.31	958.3	27084.6
528.41	958.2	27232.5
528.51	958.1	27238.8
528.61	958	27129
528.71	957.9	27222.3
528.81	957.8	27306.2
528.91	957.7	27298.5
529.01	957.6	27273.5
529.11	957.5	27329.8
529.21	957.4	27465.7
529.31	957.3	27521.5
529.41	957.2	27511.7
529.51	957.1	27632
529.61	957	27727.4
529.71	956.9	27702.1
529.81	956.8	27855.4
529.91	956.7	27784.1
530.01	956.6	27883.5
530.11	956.5	27995.5
530.21	956.4	28143.1
530.31	956.3	28274.5
530.41	956.2	28338.1
530.51	956.1	28448
530.61	956	28558.2
530.71	955.9	28630.4
530.81	955.8	28555.3
530.91	955.7	28783
531.01	955.6	28920.8
531.11	955.5	29205.6
531.21	955.4	29347
531.31	955.3	29502.7
531.41	955.2	29672.2
531.51	955.1	29888.2
531.61	955	30137.7
531.71	954.9	30431.9
531.81	954.8	30631.6
531.91	954.7	31192.8
532.01	954.6	31703.5
532.11	954.5	32179.9
532.21	954.4	32900.8
532.31	954.3	33545.7
532.41	954.2	34214.2
532.51	954.1	35059.7
532.61	954	36306.5
532.71	953.9	37474.8
532.81	953.8	38779.7
532.91	953.7	40320.1
533.01	953.6	42225.1
533.11	953.5	44731.1
533.21	953.4	47341
533.31	953.3	50497.9
533.41	953.2	53906.6
533.51	953.1	57717
533.61	953	62138.8
533.71	952.9	66373.3
533.81	952.8	70821.8
533.91	952.7	74684.4
534.01	952.6	77410.4
534.11	952.5	78835.7
534.21	952.4	79025.3
534.31	952.3	77238
534.41	952.2	74207.4
534.51	952.1	70232.7
534.61	952	65645.5
534.71	951.9	60686.4
534.81	951.8	56113.2
534.91	951.7	51766.8
535.01	951.6	48020.2
535.11	951.5	44570.3
535.21	951.4	41721.5
535.31	951.3	39540.1
535.41	951.2	37613.3
535.51	951.1	35972
535.61	951	34501.7
535.71	950.9	33349.5
535.81	950.8	32326.3
535.91	950.7	31634.9
536.01	950.6	30813.6
536.11	950.5	30235.8
536.21	950.4	29639
536.31	950.3	29210
536.41	950.2	28730.8
536.51	950.1	28268
536.61	950	28015.2
536.71	949.9	27620.3
536.81	949.8	27230.2
536.91	949.7	26977.9
537.01	949.6	26797.8
537.11	949.5	26539.7
537.21	949.4	26356.4
537.31	949.3	26115.7
537.41	949.2	25955
537.51	949.1	25926.2
537.61	949	25544.3
537.71	948.9	25485.7
537.81	948.8	25346.6
537.91	948.7	25264.5
538.01	948.6	25234.7
538.11	948.5	25129.7
538.21	948.4	25123.8
538.31	948.3	25120.8
538.41	948.2	25013
538.51	948.1	24936.1
538.61	948	24930.2
538.71	947.9	24893.9
538.81	947.8	24832.4
538.91	947.7	24816.2
539.01	947.6	24865
539.11	947.5	24832.9
539.21	947.4	24708.3
539.31	947.3	24866.3
539.41	947.2	24944.2
539.51	947.1	24809.4
539.61	947	24898.2
539.71	946.9	24903.3
539.81	946.8	24864.3
539.91	946.7	24945.5
540.01	946.6	24868.5
540.11	946.5	24894.4
540.21	946.4	24872.2
540.31	946.3	24917.8
540.41	946.2	24948.1
540.51	946.1	24920.4
540.61	946	24780.6
540.71	945.9	24821.1
540.81	945.8	24719.6
540.91	945.7	24664.4
541.01	945.6	24522.9
541.11	945.5	24511.4
541.21	945.4	24381.3
541.31	945.3	24178.7
541.41	945.2	24097.6
541.51	945.1	24041.4
541.61	945	23917.9
541.71	944.9	23799.7
541.81	944.8	23663.2
541.91	944.7	23744.1
542.01	944.6	23646.9
542.11	944.5	23690.6
542.21	944.4	23718.8
542.31	944.3	23695.7
542.41	944.2	23707
542.51	944.1	23759.8
542.61	944	23522.2
542.71	943.9	23615.8
542.81	943.8	23658.4
542.91	943.7	23449.9
543.01	943.6	23501
543.11	943.5	23445
543.21	943.4	23404.9
543.31	943.3	23313.5
543.41	943.2	23174.8
543.51	943.1	23136.9
543.61	943	22998.3
543.71	942.9	22966.9
543.81	942.8	22860.6
543.91	942.7	22827.8
544.01	942.6	22786.3
544.11	942.5	22612.8
544.21	942.4	22549.9
544.31	942.3	22393.7
544.41	942.2	22211.5
544.51	942.1	22081.4
544.61	942	22029.5
544.71	941.9	21814
544.81	941.8	21685
544.91	941.7	21526.8
545.01	941.6	21421.8
545.11	941.5	21253.7
545.21	941.4	21212.4
545.31	941.3	21225.9
545.41	941.2	21166
545.51	941.1	21121.7
545.61	941	21166.3
545.71	940.9	21072.3
545.81	940.8	21142.1
545.91	940.7	21227.3
546.01	940.6	21251.1
546.11	940.5	21244.6
546.21	940.4	21177.9
546.31	940.3	21314.7
546.41	940.2	21216.7
546.51	940.1	21187.3
546.61	940	21277.1
546.71	939.9	21290
546.81	939.8	21297.5
546.91	939.7	21216.8
547.01	939.6	21205.2
547.11	939.5	21107.2
547.21	939.4	21136.9
547.31	939.3	21060.3
547.41	939.2	20944.6
547.51	939.1	20994.8
547.61	939	20938.3
547.71	938.9	20652
547.81	938.8	20753.3
547.91	938.7	20737.2
548.01	938.6	20777.5
548.11	938.5	20724.5
548.21	938.4	20781.9
548.31	938.3	20778.8
548.41	938.2	20822.3
548.51	938.1	20905
548.61	938	20943.3
548.71	937.9	21019.9
548.81	937.8	21004.7
548.91	937.7	21110.2
549.01	937.6	21248.6
549.11	937.5	21369.1
549.21	937.4	21408.1
549.31	937.3	21516.2
549.41	937.2	21567.4
549.51	937.1	21582.4
549.61	937	21678.3
549.71	936.9	21769
549.81	936.8	21892.6
549.91	936.7	21880.9
550.01	936.6	21859.4
550.11	936.5	21882
550.21	936.4	21787.6
550.31	936.3	21796.7
550.41	936.2	21888.7
550.51	936.1	21792.5
550.61	936	21825.4
550.71	935.9	21917.5
550.81	935.8	21833.4
550.91	935.7	21911.7
551.01	935.6	21888.7
551.11	935.5	21986.9
551.21	935.4	22183.4
551.31	935.3	22263
551.41	935.2	22366.1
551.51	935.1	22527.1
551.61	935	22755.1
551.71	934.9	23052.4
551.81	934.8	23375.6
551.91	934.7	23711
552.01	934.6	24290.4
552.11	934.5	25002.8
552.21	934.4	25813.1
552.31	934.3	26964.8
552.41	934.2	28221.8
552.51	934.1	29642.8
552.61	934	31625.6
552.71	933.9	34129.7
552.81	933.8	37087.5
552.91	933.7	41102.1
553.01	933.6	46327.5
553.11	933.5	53223.4
553.21	933.4	62679.4
553.31	933.3	75297.7
553.41	933.2	91668.9
553.51	933.1	111634
553.61	933	133964
553.71	932.9	156354
553.81	932.8	174812
553.91	932.7	185967
554.01	932.6	186879
554.11	932.5	177618
554.21	932.4	160085
554.31	932.3	137290
554.41	932.2	113517
554.51	932.1	92122.9
554.61	932	74414.8
554.71	931.9	60598.1
554.81	931.8	50216.4
554.91	931.7	42569.3
555.01	931.6	36869.1
555.11	931.5	32490.9
555.21	931.4	29258.6
555.31	931.3	26721.5
555.41	931.2	24741.9
555.51	931.1	23109.4
555.61	931	21830.9
555.71	930.9	20765.6
555.81	930.8	19904.4
555.91	930.7	19133.4
556.01	930.6	18350.4
556.11	930.5	17791.4
556.21	930.4	17390.5
556.31	930.3	17015.4
556.41	930.2	16631.2
556.51	930.1	16249.7
556.61	930	15971.3
556.71	929.9	15643.9
556.81	929.8	15386.3
556.91	929.7	15195.3
557.01	929.6	14981.7
557.11	929.5	14805.6
557.21	929.4	14695.1
557.31	929.3	14467.2
557.41	929.2	14326.8
557.51	929.1	14177.1
557.61	929	14130.9
557.71	928.9	14010.1
557.81	928.8	13952.8
557.91	928.7	13855.2
558.01	928.6	13733.5
558.11	928.5	13651.3
558.21	928.4	13575.1
558.31	928.3	13538.9
558.41	928.2	13458
558.51	928.1	13448.2
558.61	928	13358.4
558.71	927.9	13236.6
558.81	927.8	13300.2
558.91	927.7	13229
559.01	927.6	13188.7
559.11	927.5	13149.7
559.21	927.4	13138.6
559.31	927.3	13015
559.41	927.2	13015.9
559.51	927.1	13030.4
559.61	927	12986.9
559.71	926.9	12980.4
559.81	926.8	12972.2
559.91	926.7	12951.9
560.01	926.6	12922.4
560.11	926.5	12852.9
560.21	926.4	12786
560.31	926.3	12793.9
560.41	926.2	12755.1
560.51	926.1	12747.8
560.61	926	12701.5
560.71	925.9	12745
560.81	925.8	12702.7
560.91	925.7	12631
561.01	925.6	12707.2
561.11	925.5	12726.4
561.21	925.4	12706.8
561.31	925.3	12630.5
561.41	925.2	12636.5
561.51	925.1	12556.7
561.61	925	12548.3
561.71	924.9	12613.5
561.81	924.8	12656.1
561.91	924.7	12575.9
562.01	924.6	12541.1
562.11	924.5	12511.6
562.21	924.4	12544.3
562.31	924.3	12488.7
562.41	924.2	12457.9
562.51	924.1	12504.2
562.61	924	12500.9
562.71	923.9	12495
562.81	923.8	12515.6
562.91	923.7	12544
563.01	923.6	12516.5
563.11	923.5	12480
563.21	923.4	12512
563.31	923.3	12553.9
563.41	923.2	12466.1
563.51	923.1	12447.9
563.61	923	12494.4
563.71	922.9	12494.9
563.81	922.8	12417.3
563.91	922.7	12444.2
564.01	922.6	12394.2
564.11	922.5	12462.8
564.21	922.4	12469.4
564.31	922.3	12474.1
564.41	922.2	12422.9
564.51	922.1	12468.5
564.61	922	12410.2
564.71	921.9	12418.3
564.81	921.8	12407.1
564.91	921.7	12521.7
565.01	921.6	12495.2
565.11	921.5	12373.3
565.21	921.4	12329
565.31	921.3	12399.5
565.41	921.2	12430.5
565.51	921.1	12415.3
565.61	921	12363.2
565.71	920.9	12374
565.81	920.8	12417.9
565.91	920.7	12431.2
566.01	920.6	12442.4
566.11	920.5	12441.2
566.21	920.4	12375.2
566.31	920.3	12344.9
566.41	920.2	12410.8
566.51	920.1	12439
566.61	920	12428.5