C:\Users\Mark\ownCloud\Muelheim Group\Projects\Gas phase background\EX322_CEC356_Au_Ag_Cu in H2_1.vms.vms
Cu2p
	Characteristic Energy eV	1486.61	Acquisition Time s	0.9
KE_Cu2p	BE_Cu2p	CPS_Cu2p
456.61	1030	15075.3
456.71	1029.9	15124.1
456.81	1029.8	15143.4
456.91	1029.7	14992.4
457.01	1029.6	15055.6
457.11	1029.5	15162.3
457.21	1029.4	15023.8
457.31	1029.3	15099.4
457.41	1029.2	15108.2
457.51	1029.1	15139.1
457.61	1029	15126
457.71	1028.9	15185.4
457.81	1028.8	15185.6
457.91	1028.7	15123.8
458.01	1028.6	15276.8
458.11	1028.5	15167.6
458.21	1028.4	15159.8
458.31	1028.3	15186.6
458.41	1028.2	15258
458.51	1028.1	15222
458.61	1028	15084
458.71	1027.9	15090.9
458.81	1027.8	15219.6
458.91	1027.7	15174.2
459.01	1027.6	15200.9
459.11	1027.5	15285.4
459.21	1027.4	15254.5
459.31	1027.3	15245
459.41	1027.2	15237
459.51	1027.1	15154.1
459.61	1027	15129.4
459.71	1026.9	15225.8
459.81	1026.8	15120.6
459.91	1026.7	15164.9
460.01	1026.6	15258.9
460.11	1026.5	15119.2
460.21	1026.4	15278.3
460.31	1026.3	15343.8
460.41	1026.2	15351.9
460.51	1026.1	15281.7
460.61	1026	15257
460.71	1025.9	15233.5
460.81	1025.8	15265.8
460.91	1025.7	15271.2
461.01	1025.6	15386.6
461.11	1025.5	15273.1
461.21	1025.4	15292.9
461.31	1025.3	15272.4
461.41	1025.2	15305.3
461.51	1025.1	15343.6
461.61	1025	15328.6
461.71	1024.9	15366.3
461.81	1024.8	15324.5
461.91	1024.7	15299.4
462.01	1024.6	15446.2
462.11	1024.5	15456.8
462.21	1024.4	15303.3
462.31	1024.3	15410.9
462.41	1024.2	15296.2
462.51	1024.1	15364.4
462.61	1024	15435.6
462.71	1023.9	15429
462.81	1023.8	15310.3
462.91	1023.7	15386.8
463.01	1023.6	15434.4
463.11	1023.5	15491.1
463.21	1023.4	15413.7
463.31	1023.3	15426.1
463.41	1023.2	15463.6
463.51	1023.1	15470.8
463.61	1023	15646.5
463.71	1022.9	15523
463.81	1022.8	15434.6
463.91	1022.7	15248
464.01	1022.6	15340.7
464.11	1022.5	15427.3
464.21	1022.4	15416.3
464.31	1022.3	15470.2
464.41	1022.2	15455.3
464.51	1022.1	15468.9
464.61	1022	15494
464.71	1021.9	15509.2
464.81	1021.8	15426.9
464.91	1021.7	15573.7
465.01	1021.6	15536.6
465.11	1021.5	15556.4
465.21	1021.4	15540.4
465.31	1021.3	15576.2
465.41	1021.2	15520.9
465.51	1021.1	15499.5
465.61	1021	15479.1
465.71	1020.9	15473.2
465.81	1020.8	15483.3
465.91	1020.7	15540.7
466.01	1020.6	15652.1
466.11	1020.5	15544.1
466.21	1020.4	15550.8
466.31	1020.3	15597
466.41	1020.2	15613.1
466.51	1020.1	15757
466.61	1020	15524.7
466.71	1019.9	15575.7
466.81	1019.8	15616.2
466.91	1019.7	15578.2
467.01	1019.6	15562.8
467.11	1019.5	15665.8
467.21	1019.4	15645
467.31	1019.3	15596.5
467.41	1019.2	15564.1
467.51	1019.1	15630.4
467.61	1019	15546.1
467.71	1018.9	15568.4
467.81	1018.8	15685.7
467.91	1018.7	15708.4
468.01	1018.6	15688.3
468.11	1018.5	15684.5
468.21	1018.4	15637.8
468.31	1018.3	15652.9
468.41	1018.2	15674
468.51	1018.1	15590.2
468.61	1018	15740.9
468.71	1017.9	15795.1
468.81	1017.8	15785.9
468.91	1017.7	15812.6
469.01	1017.6	15749.3
469.11	1017.5	15672.9
469.21	1017.4	15744.9
469.31	1017.3	15800.4
469.41	1017.2	15697.2
469.51	1017.1	15769
469.61	1017	15835.9
469.71	1016.9	15687.6
469.81	1016.8	15696.6
469.91	1016.7	15791.9
470.01	1016.6	15793.7
470.11	1016.5	15798.2
470.21	1016.4	15859.1
470.31	1016.3	15817.4
470.41	1016.2	15850.1
470.51	1016.1	15799.2
470.61	1016	15956
470.71	1015.9	15880.9
470.81	1015.8	15917.2
470.91	1015.7	15794.5
471.01	1015.6	15896.3
471.11	1015.5	15925
471.21	1015.4	15849
471.31	1015.3	15857.7
471.41	1015.2	15834.2
471.51	1015.1	15959.4
471.61	1015	15977.7
471.71	1014.9	15886.7
471.81	1014.8	15973.9
471.91	1014.7	15907.9
472.01	1014.6	15922.7
472.11	1014.5	15993.7
472.21	1014.4	15964.3
472.31	1014.3	15927.1
472.41	1014.2	16005.4
472.51	1014.1	15924.6
472.61	1014	15970.7
472.71	1013.9	15937.8
472.81	1013.8	15921.1
472.91	1013.7	15919.4
473.01	1013.6	16061.5
473.11	1013.5	16065.2
473.21	1013.4	15927.4
473.31	1013.3	15922.3
473.41	1013.2	16041.3
473.51	1013.1	15956
473.61	1013	16112.9
473.71	1012.9	16002.6
473.81	1012.8	16095.5
473.91	1012.7	15993.5
474.01	1012.6	16043.2
474.11	1012.5	16039.3
474.21	1012.4	16049
474.31	1012.3	16068.9
474.41	1012.2	16113.6
474.51	1012.1	16129.3
474.61	1012	16024
474.71	1011.9	16104.8
474.81	1011.8	16230.2
474.91	1011.7	16098.6
475.01	1011.6	16137.5
475.11	1011.5	16044.4
475.21	1011.4	16099.9
475.31	1011.3	16159.2
475.41	1011.2	16143.5
475.51	1011.1	16172.8
475.61	1011	16113.2
475.71	1010.9	16271.3
475.81	1010.8	16189.3
475.91	1010.7	16262.5
476.01	1010.6	16211.3
476.11	1010.5	16153.1
476.21	1010.4	16241.5
476.31	1010.3	16179.4
476.41	1010.2	16149.1
476.51	1010.1	16247.9
476.61	1010	16362.1
476.71	1009.9	16235.8
476.81	1009.8	16191
476.91	1009.7	16232.7
477.01	1009.6	16291.6
477.11	1009.5	16270
477.21	1009.4	16395.5
477.31	1009.3	16241.4
477.41	1009.2	16295.5
477.51	1009.1	16361.6
477.61	1009	16339.7
477.71	1008.9	16236.4
477.81	1008.8	16298.3
477.91	1008.7	16319.4
478.01	1008.6	16228.1
478.11	1008.5	16266.8
478.21	1008.4	16422.7
478.31	1008.3	16254.7
478.41	1008.2	16303.8
478.51	1008.1	16296.1
478.61	1008	16350.8
478.71	1007.9	16337.6
478.81	1007.8	16413.4
478.91	1007.7	16382.3
479.01	1007.6	16322.2
479.11	1007.5	16313
479.21	1007.4	16364.8
479.31	1007.3	16407.2
479.41	1007.2	16382.4
479.51	1007.1	16407.7
479.61	1007	16379.3
479.71	1006.9	16367.9
479.81	1006.8	16393.9
479.91	1006.7	16450.5
480.01	1006.6	16539.3
480.11	1006.5	16573.3
480.21	1006.4	16464
480.31	1006.3	16400.4
480.41	1006.2	16492
480.51	1006.1	16351.8
480.61	1006	16373
480.71	1005.9	16434.4
480.81	1005.8	16590.1
480.91	1005.7	16620.7
481.01	1005.6	16508.6
481.11	1005.5	16499.8
481.21	1005.4	16576.9
481.31	1005.3	16578.2
481.41	1005.2	16635.2
481.51	1005.1	16554.3
481.61	1005	16471.2
481.71	1004.9	16533
481.81	1004.8	16605.6
481.91	1004.7	16592.8
482.01	1004.6	16640.2
482.11	1004.5	16561.3
482.21	1004.4	16563.4
482.31	1004.3	16519.9
482.41	1004.2	16674.6
482.51	1004.1	16561.9
482.61	1004	16591.9
482.71	1003.9	16702.6
482.81	1003.8	16688.7
482.91	1003.7	16676
483.01	1003.6	16715.3
483.11	1003.5	16654.7
483.21	1003.4	16653.6
483.31	1003.3	16674
483.41	1003.2	16666
483.51	1003.1	16604.4
483.61	1003	16640.5
483.71	1002.9	16740.5
483.81	1002.8	16556.2
483.91	1002.7	16688.4
484.01	1002.6	16736
484.11	1002.5	16718.2
484.21	1002.4	16710.9
484.31	1002.3	16629.4
484.41	1002.2	16679.4
484.51	1002.1	16742.4
484.61	1002	16676.4
484.71	1001.9	16749.3
484.81	1001.8	16774.9
484.91	1001.7	16774.5
485.01	1001.6	16742.6
485.11	1001.5	16875
485.21	1001.4	16930.5
485.31	1001.3	16836.8
485.41	1001.2	16755
485.51	1001.1	16848.9
485.61	1001	16979.1
485.71	1000.9	16771.8
485.81	1000.8	16786
485.91	1000.7	16863.8
486.01	1000.6	16933.3
486.11	1000.5	16900.3
486.21	1000.4	16832.4
486.31	1000.3	16881.1
486.41	1000.2	16980.1
486.51	1000.1	17050.9
486.61	1000	17055.3
486.71	999.9	16993.4
486.81	999.8	16913.8
486.91	999.7	16879.8
487.01	999.6	16989.4
487.11	999.5	17010.8
487.21	999.4	16961.7
487.31	999.3	16980.1
487.41	999.2	16959.7
487.51	999.1	17003.1
487.61	999	17008
487.71	998.9	16970.1
487.81	998.8	16940.4
487.91	998.7	16886.6
488.01	998.6	17041.9
488.11	998.5	17141.5
488.21	998.4	17166.2
488.31	998.3	17145.5
488.41	998.2	17160.4
488.51	998.1	17096.4
488.61	998	17044.4
488.71	997.9	17078.6
488.81	997.8	17217.9
488.91	997.7	17171.9
489.01	997.6	17207.8
489.11	997.5	17129.4
489.21	997.4	17138.6
489.31	997.3	17136
489.41	997.2	17060.4
489.51	997.1	17214.6
489.61	997	17107.4
489.71	996.9	17184.1
489.81	996.8	17216.9
489.91	996.7	17180.6
490.01	996.6	17156.4
490.11	996.5	17097.7
490.21	996.4	17168
490.31	996.3	17213.7
490.41	996.2	17245
490.51	996.1	17253.2
490.61	996	17288
490.71	995.9	17374.4
490.81	995.8	17342.4
490.91	995.7	17329.9
491.01	995.6	17341.2
491.11	995.5	17388.7
491.21	995.4	17384.2
491.31	995.3	17434.4
491.41	995.2	17342.3
491.51	995.1	17355.9
491.61	995	17398.3
491.71	994.9	17404.7
491.81	994.8	17385.2
491.91	994.7	17377
492.01	994.6	17308.9
492.11	994.5	17393.6
492.21	994.4	17470.1
492.31	994.3	17456
492.41	994.2	17466
492.51	994.1	17424.9
492.61	994	17379.6
492.71	993.9	17433.4
492.81	993.8	17372.7
492.91	993.7	17362.4
493.01	993.6	17395.7
493.11	993.5	17422.8
493.21	993.4	17352.9
493.31	993.3	17531.3
493.41	993.2	17401.6
493.51	993.1	17380.7
493.61	993	17562.8
493.71	992.9	17609.8
493.81	992.8	17501.6
493.91	992.7	17525
494.01	992.6	17475.7
494.11	992.5	17525.6
494.21	992.4	17679.5
494.31	992.3	17512.9
494.41	992.2	17500.7
494.51	992.1	17504.4
494.61	992	17530.2
494.71	991.9	17543.9
494.81	991.8	17642
494.91	991.7	17653.3
495.01	991.6	17588.5
495.11	991.5	17581
495.21	991.4	17592.6
495.31	991.3	17520.5
495.41	991.2	17458.2
495.51	991.1	17662
495.61	991	17555.7
495.71	990.9	17516.6
495.81	990.8	17591.5
495.91	990.7	17626.5
496.01	990.6	17636.3
496.11	990.5	17676.5
496.21	990.4	17663.7
496.31	990.3	17721.8
496.41	990.2	17601.7
496.51	990.1	17720.4
496.61	990	17683.9
496.71	989.9	17693.4
496.81	989.8	17688.5
496.91	989.7	17726.5
497.01	989.6	17772.1
497.11	989.5	17723
497.21	989.4	17655.2
497.31	989.3	17611.8
497.41	989.2	17668.8
497.51	989.1	17589.8
497.61	989	17729.2
497.71	988.9	17767.9
497.81	988.8	17770.2
497.91	988.7	17739.2
498.01	988.6	17893.3
498.11	988.5	17723.2
498.21	988.4	17793.1
498.31	988.3	17775.6
498.41	988.2	17756.7
498.51	988.1	17708.1
498.61	988	17826.9
498.71	987.9	17808.2
498.81	987.8	17890.5
498.91	987.7	17816
499.01	987.6	17832.6
499.11	987.5	17924.4
499.21	987.4	17859.4
499.31	987.3	17969.6
499.41	987.2	17885.7
499.51	987.1	17933.4
499.61	987	17831.4
499.71	986.9	17949.6
499.81	986.8	17936
499.91	986.7	17869.1
500.01	986.6	17924
500.11	986.5	18084.6
500.21	986.4	17954
500.31	986.3	17955.8
500.41	986.2	17960.8
500.51	986.1	17970.3
500.61	986	17947.6
500.71	985.9	17985.2
500.81	985.8	18033.5
500.91	985.7	18098.8
501.01	985.6	18140.4
501.11	985.5	18136
501.21	985.4	18053.2
501.31	985.3	18069
501.41	985.2	18162.4
501.51	985.1	18172.1
501.61	985	18105.9
501.71	984.9	18201.1
501.81	984.8	18144.9
501.91	984.7	18133
502.01	984.6	18107.7
502.11	984.5	18192.1
502.21	984.4	18101.9
502.31	984.3	18100.2
502.41	984.2	18149.7
502.51	984.1	18307
502.61	984	18223
502.71	983.9	18135.8
502.81	983.8	18299.3
502.91	983.7	18333.2
503.01	983.6	18366.8
503.11	983.5	18252.5
503.21	983.4	18253.1
503.31	983.3	18324.8
503.41	983.2	18388.4
503.51	983.1	18346.8
503.61	983	18300.9
503.71	982.9	18206.3
503.81	982.8	18372.9
503.91	982.7	18332.7
504.01	982.6	18335.2
504.11	982.5	18411.3
504.21	982.4	18336.1
504.31	982.3	18352
504.41	982.2	18237.5
504.51	982.1	18258.1
504.61	982	18363.2
504.71	981.9	18506.8
504.81	981.8	18564.5
504.91	981.7	18445.1
505.01	981.6	18571.2
505.11	981.5	18504.6
505.21	981.4	18396.3
505.31	981.3	18400.6
505.41	981.2	18519.8
505.51	981.1	18518.2
505.61	981	18471.1
505.71	980.9	18489.2
505.81	980.8	18418.5
505.91	980.7	18447.9
506.01	980.6	18547.8
506.11	980.5	18531.8
506.21	980.4	18475.6
506.31	980.3	18528
506.41	980.2	18534.4
506.51	980.1	18559.6
506.61	980	18574.6
506.71	979.9	18646
506.81	979.8	18542.6
506.91	979.7	18579.9
507.01	979.6	18573.2
507.11	979.5	18665.3
507.21	979.4	18681.2
507.31	979.3	18633.2
507.41	979.2	18693.5
507.51	979.1	18699
507.61	979	18702.1
507.71	978.9	18679.6
507.81	978.8	18580
507.91	978.7	18826.8
508.01	978.6	18803.9
508.11	978.5	18786.4
508.21	978.4	18735.1
508.31	978.3	18752.6
508.41	978.2	18675.3
508.51	978.1	18766
508.61	978	18859.3
508.71	977.9	18810
508.81	977.8	18800
508.91	977.7	18929.4
509.01	977.6	18900
509.11	977.5	18825.9
509.21	977.4	18758.4
509.31	977.3	18839.4
509.41	977.2	18844.5
509.51	977.1	18786.6
509.61	977	18631
509.71	976.9	18792.6
509.81	976.8	18845.6
509.91	976.7	18937.4
510.01	976.6	18826.4
510.11	976.5	18758.5
510.21	976.4	18825.1
510.31	976.3	18736.9
510.41	976.2	18772.6
510.51	976.1	18805.2
510.61	976	18726
510.71	975.9	18796.7
510.81	975.8	18752.9
510.91	975.7	18658
511.01	975.6	18696.4
511.11	975.5	18741.1
511.21	975.4	18718.7
511.31	975.3	18789.8
511.41	975.2	18777.8
511.51	975.1	18652.3
511.61	975	18771.5
511.71	974.9	18821.1
511.81	974.8	18822.8
511.91	974.7	18771
512.01	974.6	18908.9
512.11	974.5	18859.1
512.21	974.4	18808
512.31	974.3	18855.2
512.41	974.2	18975.1
512.51	974.1	18927.4
512.61	974	18916.1
512.71	973.9	18958.1
512.81	973.8	18930.1
512.91	973.7	19124.5
513.01	973.6	19010.3
513.11	973.5	19126.2
513.21	973.4	19143.8
513.31	973.3	19072.4
513.41	973.2	19047.8
513.51	973.1	19017.1
513.61	973	19149.1
513.71	972.9	19100.3
513.81	972.8	19100.7
513.91	972.7	19106.3
514.01	972.6	19230.6
514.11	972.5	19235.2
514.21	972.4	19253.8
514.31	972.3	19242.5
514.41	972.2	19164.1
514.51	972.1	19149.5
514.61	972	19234.8
514.71	971.9	19317.9
514.81	971.8	19393.3
514.91	971.7	19266.1
515.01	971.6	19218.3
515.11	971.5	19321.2
515.21	971.4	19205.6
515.31	971.3	19396.3
515.41	971.2	19297.7
515.51	971.1	19344.9
515.61	971	19302.2
515.71	970.9	19316.6
515.81	970.8	19298.4
515.91	970.7	19281.8
516.01	970.6	19445.2
516.11	970.5	19434.9
516.21	970.4	19343.1
516.31	970.3	19417.1
516.41	970.2	19505
516.51	970.1	19513.2
516.61	970	19471.8
516.71	969.9	19450.8
516.81	969.8	19437.8
516.91	969.7	19417
517.01	969.6	19654
517.11	969.5	19593.6
517.21	969.4	19726.9
517.31	969.3	19584.3
517.41	969.2	19663.2
517.51	969.1	19553.8
517.61	969	19676.8
517.71	968.9	19666.8
517.81	968.8	19761.3
517.91	968.7	19744.4
518.01	968.6	19678.4
518.11	968.5	19708.7
518.21	968.4	19668.9
518.31	968.3	19668.9
518.41	968.2	19751.7
518.51	968.1	19703.5
518.61	968	19884
518.71	967.9	19931.7
518.81	967.8	20022.9
518.91	967.7	19867
519.01	967.6	19872.9
519.11	967.5	20007.2
519.21	967.4	20092.6
519.31	967.3	20019.2
519.41	967.2	20079.1
519.51	967.1	20130
519.61	967	20220.9
519.71	966.9	20264.7
519.81	966.8	20203.4
519.91	966.7	20358.7
520.01	966.6	20323.2
520.11	966.5	20454.3
520.21	966.4	20548.7
520.31	966.3	20636.4
520.41	966.2	20706.3
520.51	966.1	20756.8
520.61	966	20971.6
520.71	965.9	20951
520.81	965.8	21131.6
520.91	965.7	21229.8
521.01	965.6	21336.7
521.11	965.5	21471.9
521.21	965.4	21623.6
521.31	965.3	21671.3
521.41	965.2	21714.8
521.51	965.1	21686.6
521.61	965	21546.1
521.71	964.9	21547.3
521.81	964.8	21424.7
521.91	964.7	21333.3
522.01	964.6	21233.1
522.11	964.5	20947.5
522.21	964.4	20866.7
522.31	964.3	20806.1
522.41	964.2	20467
522.51	964.1	20468.6
522.61	964	20197.9
522.71	963.9	19941.3
522.81	963.8	19820.8
522.91	963.7	19494.1
523.01	963.6	19330.2
523.11	963.5	19168
523.21	963.4	19036.5
523.31	963.3	18875.1
523.41	963.2	18935.4
523.51	963.1	18723.7
523.61	963	18526.8
523.71	962.9	18583.2
523.81	962.8	18450.5
523.91	962.7	18417.6
524.01	962.6	18363.3
524.11	962.5	18333.9
524.21	962.4	18340.8
524.31	962.3	18179.5
524.41	962.2	18183.5
524.51	962.1	18118.7
524.61	962	18116.2
524.71	961.9	17968.4
524.81	961.8	17996.8
524.91	961.7	18000.9
525.01	961.6	18011.4
525.11	961.5	17990.1
525.21	961.4	18031.9
525.31	961.3	17929.7
525.41	961.2	17876.6
525.51	961.1	18104.1
525.61	961	18025.8
525.71	960.9	18018.9
525.81	960.8	18030.3
525.91	960.7	18054
526.01	960.6	18031.1
526.11	960.5	18005.1
526.21	960.4	17961.7
526.31	960.3	18028.7
526.41	960.2	18124.6
526.51	960.1	18102.5
526.61	960	18049.8
526.71	959.9	18006.8
526.81	959.8	18084.5
526.91	959.7	18062.9
527.01	959.6	17969.2
527.11	959.5	18064.1
527.21	959.4	18037.1
527.31	959.3	18025.3
527.41	959.2	18029.6
527.51	959.1	18143.4
527.61	959	18010.4
527.71	958.9	18124.4
527.81	958.8	18079.7
527.91	958.7	18145.9
528.01	958.6	18250.2
528.11	958.5	18131.1
528.21	958.4	18199.9
528.31	958.3	18107.5
528.41	958.2	18102
528.51	958.1	18054.2
528.61	958	18160.8
528.71	957.9	18145.9
528.81	957.8	18219.2
528.91	957.7	18243.9
529.01	957.6	18332.4
529.11	957.5	18222.7
529.21	957.4	18213.7
529.31	957.3	18148.1
529.41	957.2	18270.6
529.51	957.1	18211.8
529.61	957	18168.6
529.71	956.9	18130
529.81	956.8	18140.1
529.91	956.7	18020.7
530.01	956.6	18034.9
530.11	956.5	18051.2
530.21	956.4	18089.1
530.31	956.3	18240.1
530.41	956.2	18156.2
530.51	956.1	18187
530.61	956	18283.7
530.71	955.9	18353.9
530.81	955.8	18405.8
530.91	955.7	18374.9
531.01	955.6	18464.4
531.11	955.5	18526.3
531.21	955.4	18642.3
531.31	955.3	18694.2
531.41	955.2	18787.6
531.51	955.1	18867.8
531.61	955	18967
531.71	954.9	18992.8
531.81	954.8	19172.4
531.91	954.7	19367.4
532.01	954.6	19520.9
532.11	954.5	19673
532.21	954.4	19973.6
532.31	954.3	20367.3
532.41	954.2	20766.1
532.51	954.1	21084.4
532.61	954	21394
532.71	953.9	21943.2
532.81	953.8	22418.8
532.91	953.7	23140.1
533.01	953.6	24080.4
533.11	953.5	25055.8
533.21	953.4	25990.5
533.31	953.3	27274.4
533.41	953.2	28711.1
533.51	953.1	30404.5
533.61	953	32054.9
533.71	952.9	33769.5
533.81	952.8	35631.7
533.91	952.7	37186.3
534.01	952.6	38251.7
534.11	952.5	38790.5
534.21	952.4	39034.8
534.31	952.3	38233.5
534.41	952.2	37133.4
534.51	952.1	35418.9
534.61	952	33601.9
534.71	951.9	31720.6
534.81	951.8	29732.4
534.91	951.7	28044.4
535.01	951.6	26501.4
535.11	951.5	25099.5
535.21	951.4	24060.6
535.31	951.3	23114.5
535.41	951.2	22243.4
535.51	951.1	21557.3
535.61	951	21050.9
535.71	950.9	20588.2
535.81	950.8	20277.6
535.91	950.7	19868.3
536.01	950.6	19591.3
536.11	950.5	19370.8
536.21	950.4	19179.4
536.31	950.3	19046
536.41	950.2	18907.9
536.51	950.1	18734.8
536.61	950	18601.1
536.71	949.9	18539.1
536.81	949.8	18464.8
536.91	949.7	18287
537.01	949.6	18182.9
537.11	949.5	18216.3
537.21	949.4	18064.1
537.31	949.3	18104.2
537.41	949.2	17949.4
537.51	949.1	17925.4
537.61	949	18045.4
537.71	948.9	18099.6
537.81	948.8	17953
537.91	948.7	17880.7
538.01	948.6	18003.7
538.11	948.5	17903.9
538.21	948.4	17848.4
538.31	948.3	17882.2
538.41	948.2	18021
538.51	948.1	18068.5
538.61	948	17948.5
538.71	947.9	18035.3
538.81	947.8	17971.9
538.91	947.7	18042.3
539.01	947.6	18172.2
539.11	947.5	18183.8
539.21	947.4	18241.6
539.31	947.3	18200.2
539.41	947.2	18320.8
539.51	947.1	18395.4
539.61	947	18363.9
539.71	946.9	18494.3
539.81	946.8	18619
539.91	946.7	18758.9
540.01	946.6	18786.6
540.11	946.5	18947.1
540.21	946.4	19110.4
540.31	946.3	19332.6
540.41	946.2	19655.1
540.51	946.1	19986.7
540.61	946	20300.4
540.71	945.9	20641.5
540.81	945.8	20954.2
540.91	945.7	21272.4
541.01	945.6	21556.2
541.11	945.5	21803.5
541.21	945.4	21908
541.31	945.3	21874.9
541.41	945.2	21764.9
541.51	945.1	21471.5
541.61	945	21214.8
541.71	944.9	20794.6
541.81	944.8	20332.6
541.91	944.7	19720.8
542.01	944.6	19173
542.11	944.5	18573.5
542.21	944.4	18080.1
542.31	944.3	17550.2
542.41	944.2	17055.5
542.51	944.1	16614.5
542.61	944	16117.6
542.71	943.9	15686.3
542.81	943.8	15433.3
542.91	943.7	15046.4
543.01	943.6	14698.3
543.11	943.5	14538.8
543.21	943.4	14422.7
543.31	943.3	14261.5
543.41	943.2	14169.2
543.51	943.1	13976.8
543.61	943	13873.9
543.71	942.9	13847.7
543.81	942.8	13624.9
543.91	942.7	13593.7
544.01	942.6	13557.8
544.11	942.5	13356.8
544.21	942.4	13443.4
544.31	942.3	13410.3
544.41	942.2	13173.4
544.51	942.1	13175
544.61	942	13032
544.71	941.9	12975.3
544.81	941.8	12823.4
544.91	941.7	12799
545.01	941.6	12755.6
545.11	941.5	12760
545.21	941.4	12756.3
545.31	941.3	12656.9
545.41	941.2	12501.3
545.51	941.1	12524.2
545.61	941	12472.9
545.71	940.9	12465.7
545.81	940.8	12457.2
545.91	940.7	12540.3
546.01	940.6	12374.8
546.11	940.5	12505.9
546.21	940.4	12516.4
546.31	940.3	12613.2
546.41	940.2	12501.1
546.51	940.1	12402.3
546.61	940	12496
546.71	939.9	12410.1
546.81	939.8	12502.7
546.91	939.7	12533.2
547.01	939.6	12534.5
547.11	939.5	12532.2
547.21	939.4	12556.6
547.31	939.3	12531.8
547.41	939.2	12527
547.51	939.1	12535.3
547.61	939	12478
547.71	938.9	12577.9
547.81	938.8	12461.3
547.91	938.7	12350.4
548.01	938.6	12512.2
548.11	938.5	12550.6
548.21	938.4	12419.2
548.31	938.3	12468.6
548.41	938.2	12492.8
548.51	938.1	12511.5
548.61	938	12583.6
548.71	937.9	12622.2
548.81	937.8	12581.8
548.91	937.7	12741
549.01	937.6	12716.7
549.11	937.5	12617.9
549.21	937.4	12724.4
549.31	937.3	12784.8
549.41	937.2	12811.5
549.51	937.1	12899.2
549.61	937	12895.5
549.71	936.9	13006
549.81	936.8	13108.6
549.91	936.7	13124.7
550.01	936.6	13091.4
550.11	936.5	13071.4
550.21	936.4	13158.4
550.31	936.3	13132.8
550.41	936.2	13206.5
550.51	936.1	13187
550.61	936	13171.8
550.71	935.9	13126.9
550.81	935.8	13279.1
550.91	935.7	13170.4
551.01	935.6	13202.6
551.11	935.5	13249.3
551.21	935.4	13338.1
551.31	935.3	13389
551.41	935.2	13439.7
551.51	935.1	13512.7
551.61	935	13697.8
551.71	934.9	13788.8
551.81	934.8	13916
551.91	934.7	14106.3
552.01	934.6	14430.6
552.11	934.5	14701.5
552.21	934.4	15055.5
552.31	934.3	15324.8
552.41	934.2	15948.2
552.51	934.1	16683.7
552.61	934	17485.9
552.71	933.9	18460.1
552.81	933.8	19784.2
552.91	933.7	21328.9
553.01	933.6	23654.8
553.11	933.5	26607.8
553.21	933.4	30597
553.31	933.3	35894.6
553.41	933.2	42641.1
553.51	933.1	51006.1
553.61	933	60425.3
553.71	932.9	69433.8
553.81	932.8	76651
553.91	932.7	80945.6
554.01	932.6	81099.3
554.11	932.5	77354.6
554.21	932.4	70208.3
554.31	932.3	60822.2
554.41	932.2	51454.2
554.51	932.1	42407
554.61	932	35543.6
554.71	931.9	29801.2
554.81	931.8	25390
554.91	931.7	22105.6
555.01	931.6	19668.3
555.11	931.5	17766.2
555.21	931.4	16398.8
555.31	931.3	15206.8
555.41	931.2	14297.1
555.51	931.1	13655.8
555.61	931	13173
555.71	930.9	12567.2
555.81	930.8	12211.3
555.91	930.7	11871.6
556.01	930.6	11631.7
556.11	930.5	11441.8
556.21	930.4	11212.1
556.31	930.3	11091.7
556.41	930.2	10834.9
556.51	930.1	10687.6
556.61	930	10679.8
556.71	929.9	10486.5
556.81	929.8	10391.1
556.91	929.7	10317.3
557.01	929.6	10220.7
557.11	929.5	10191.1
557.21	929.4	10123.9
557.31	929.3	10046.5
557.41	929.2	9979.92
557.51	929.1	9883.87
557.61	929	9895.25
557.71	928.9	9823.64
557.81	928.8	9742.16
557.91	928.7	9728.88
558.01	928.6	9631.48
558.11	928.5	9647.68
558.21	928.4	9598.96
558.31	928.3	9696.61
558.41	928.2	9613.81
558.51	928.1	9535.64
558.61	928	9604
558.71	927.9	9567.31
558.81	927.8	9501.29
558.91	927.7	9545.28
559.01	927.6	9507.38
559.11	927.5	9466.67
559.21	927.4	9473.64
559.31	927.3	9447.73
559.41	927.2	9447.67
559.51	927.1	9409.18
559.61	927	9426.3
559.71	926.9	9452.9
559.81	926.8	9402.23
559.91	926.7	9292.61
560.01	926.6	9283.19
560.11	926.5	9307.98
560.21	926.4	9370.33
560.31	926.3	9351.5
560.41	926.2	9381.4
560.51	926.1	9343.8
560.61	926	9327.44
560.71	925.9	9304.57
560.81	925.8	9255.07
560.91	925.7	9295.21
561.01	925.6	9351.41
561.11	925.5	9269.87
561.21	925.4	9265.57
561.31	925.3	9287.64
561.41	925.2	9284.89
561.51	925.1	9220.9
561.61	925	9205.43
561.71	924.9	9255.97
561.81	924.8	9208.47
561.91	924.7	9255.77
562.01	924.6	9197.69
562.11	924.5	9296.46
562.21	924.4	9176.59
562.31	924.3	9227.22
562.41	924.2	9239.55
562.51	924.1	9218.03
562.61	924	9235.5
562.71	923.9	9192.58
562.81	923.8	9255.72
562.91	923.7	9229.03
563.01	923.6	9182.51
563.11	923.5	9262.68
563.21	923.4	9296.36
563.31	923.3	9278.59
563.41	923.2	9227.17
563.51	923.1	9217.75
563.61	923	9256.85
563.71	922.9	9219.74
563.81	922.8	9208.5
563.91	922.7	9201.35
564.01	922.6	9275.93
564.11	922.5	9198.09
564.21	922.4	9190.04
564.31	922.3	9143.78
564.41	922.2	9193.51
564.51	922.1	9202.64
564.61	922	9223.22
564.71	921.9	9195.68
564.81	921.8	9177.52
564.91	921.7	9244.65
565.01	921.6	9259.88
565.11	921.5	9209.58
565.21	921.4	9220.59
565.31	921.3	9250.44
565.41	921.2	9235.68
565.51	921.1	9231.77
565.61	921	9196.29
565.71	920.9	9181.15
565.81	920.8	9316.85
565.91	920.7	9243.72
566.01	920.6	9170.67
566.11	920.5	9211.44
566.21	920.4	9201.7
566.31	920.3	9266.48
566.41	920.2	9236.13
566.51	920.1	9170.4
566.61	920	9209.19