EX322_CEC356_Au_Ag_Cu in H2_1.vms_vb_regions.vms
Survey
	Characteristic Energy eV	1486.61	Acquisition Time s	0.1
KE_Survey	BE_Survey	CPS_Survey	Background_Survey
1256.61	230	20748.4	20748.4
1257.11	229.5	20549.8	20549.8
1257.61	229	20738.6	20738.6
1258.11	228.5	20913.8	20913.8
1258.61	228	20851.7	20851.7
1259.11	227.5	21034.7	21034.7
1259.61	227	20914.6	20914.6
1260.11	226.5	20659.4	20659.4
1260.61	226	20833.9	20833.9
1261.11	225.5	20800.8	20800.8
1261.61	225	20986.1	20986.1
1262.11	224.5	20824.5	20824.5
1262.61	224	20736.4	20736.4
1263.11	223.5	21143.2	21143.2
1263.61	223	20873.7	20873.7
1264.11	222.5	20836.5	20836.5
1264.61	222	21132.8	21132.8
1265.11	221.5	21107.9	21107.9
1265.61	221	21063.5	21063.5
1266.11	220.5	21028.3	21028.3
1266.61	220	21074	21074
1267.11	219.5	21026.9	21026.9
1267.61	219	21022.8	21022.8
1268.11	218.5	21494.4	21494.4
1268.61	218	21373.3	21373.3
1269.11	217.5	21426.5	21426.5
1269.61	217	21140.2	21140.2
1270.11	216.5	21149.9	21149.9
1270.61	216	21225.6	21225.6
1271.11	215.5	21430.2	21430.2
1271.61	215	21367	21367
1272.11	214.5	21347.4	21347.4
1272.61	214	21336.1	21336.1
1273.11	213.5	21445.2	21445.2
1273.61	213	21362.1	21362.1
1274.11	212.5	21491.4	21491.4
1274.61	212	21514.6	21514.6
1275.11	211.5	21658.4	21658.4
1275.61	211	21348.7	21348.7
1276.11	210.5	21690.9	21690.9
1276.61	210	21530.8	21530.8
1277.11	209.5	21540.8	21540.8
1277.61	209	21523.5	21523.5
1278.11	208.5	21803	21803
1278.61	208	21720	21720
1279.11	207.5	21685.3	21685.3
1279.61	207	21508.3	21508.3
1280.11	206.5	21732.5	21732.5
1280.61	206	21904.5	21904.5
1281.11	205.5	21842.8	21842.8
1281.61	205	21706.2	21706.2
1282.11	204.5	21790.9	21790.9
1282.61	204	21917.7	21917.7
1283.11	203.5	21804.9	21804.9
1283.61	203	21949.9	21949.9
1284.11	202.5	22032.3	22032.3
1284.61	202	22064.6	22064.6
1285.11	201.5	21918.9	21918.9
1285.61	201	21924.2	21924.2
1286.11	200.5	22067.4	22067.4
1286.61	200	22392.9	22392.9
1287.11	199.5	22116.1	22116.1
1287.61	199	22257.2	22257.2
1288.11	198.5	22108.7	22108.7
1288.61	198	22218.5	22218.5
1289.11	197.5	22194.2	22194.2
1289.61	197	22384.5	22384.5
1290.11	196.5	22338.2	22338.2
1290.61	196	22235.5	22235.5
1291.11	195.5	22365.3	22365.3
1291.61	195	22555.9	22555.9
1292.11	194.5	22340.6	22340.6
1292.61	194	22461.9	22461.9
1293.11	193.5	22416.8	22416.8
1293.61	193	22599.1	22599.1
1294.11	192.5	22494.3	22494.3
1294.61	192	22576.6	22576.6
1295.11	191.5	22491.1	22491.1
1295.61	191	22598.3	22598.3
1296.11	190.5	22619.4	22619.4
1296.61	190	22855	22855
1297.11	189.5	22944.7	22944.7
1297.61	189	22928.8	22928.8
1298.11	188.5	22917.8	22917.8
1298.61	188	22765.4	22765.4
1299.11	187.5	23034	23034
1299.61	187	23188	23188
1300.11	186.5	23143.6	23143.6
1300.61	186	23107.1	23107.1
1301.11	185.5	23061.7	23061.7
1301.61	185	23036.2	23036.2
1302.11	184.5	22974.4	22974.4
1302.61	184	23066.9	23066.9
1303.11	183.5	23140.4	23140.4
1303.61	183	23024.4	23024.4
1304.11	182.5	23348.1	23348.1
1304.61	182	23119.3	23119.3
1305.11	181.5	23081.3	23081.3
1305.61	181	23331.9	23331.9
1306.11	180.5	23535.4	23535.4
1306.61	180	23348.3	23348.3
1307.11	179.5	23535.5	23535.5
1307.61	179	23310.7	23310.7
1308.11	178.5	23536.8	23536.8
1308.61	178	23759.8	23759.8
1309.11	177.5	23440.1	23440.1
1309.61	177	23681.2	23681.2
1310.11	176.5	23982.2	23982.2
1310.61	176	24052.4	24052.4
1311.11	175.5	23834.3	23834.3
1311.61	175	24081.5	24081.5
1312.11	174.5	24144	24144
1312.61	174	23869.2	23869.2
1313.11	173.5	23839.2	23839.2
1313.61	173	24047.4	24047.4
1314.11	172.5	24194.5	24194.5
1314.61	172	24391.1	24391.1
1315.11	171.5	24191.8	24191.8
1315.61	171	24334.7	24334.7
1316.11	170.5	24546.7	24546.7
1316.61	170	24615	24615
1317.11	169.5	24330.6	24330.6
1317.61	169	24551.5	24551.5
1318.11	168.5	24644.8	24644.8
1318.61	168	24751.4	24751.4
1319.11	167.5	24670.9	24670.9
1319.61	167	24871.5	24871.5
1320.11	166.5	24828.5	24828.5
1320.61	166	24973.8	24973.8
1321.11	165.5	24940	24940
1321.61	165	25011.9	25011.9
1322.11	164.5	25215.9	25215.9
1322.61	164	24815.3	24815.3
1323.11	163.5	25138.2	25138.2
1323.61	163	25094.4	25094.4
1324.11	162.5	25263.2	25263.2
1324.61	162	25405.3	25405.3
1325.11	161.5	25410.6	25410.6
1325.61	161	25552.4	25552.4
1326.11	160.5	25559	25559
1326.61	160	25492.6	25492.6
1327.11	159.5	25750.6	25750.6
1327.61	159	25558.2	25558.2
1328.11	158.5	25819.3	25819.3
1328.61	158	25864.3	25864.3
1329.11	157.5	25837.6	25837.6
1329.61	157	25784.6	25784.6
1330.11	156.5	26010.3	26010.3
1330.61	156	26117.3	26117.3
1331.11	155.5	26354.3	26354.3
1331.61	155	26338.8	26338.8
1332.11	154.5	26290.1	26290.1
1332.61	154	26480.4	26480.4
1333.11	153.5	26635.1	26635.1
1333.61	153	26792.8	26792.8
1334.11	152.5	26752.7	26752.7
1334.61	152	27166.6	27166.6
1335.11	151.5	27149.1	27149.1
1335.61	151	27300.7	27300.7
1336.11	150.5	27333.6	27333.6
1336.61	150	27392.2	27392.2
1337.11	149.5	27385.7	27385.7
1337.61	149	27295.7	27295.7
1338.11	148.5	27480	27480
1338.61	148	27473.1	27473.1
1339.11	147.5	27757.5	27757.5
1339.61	147	27770.4	27770.4
1340.11	146.5	27890.6	27890.6
1340.61	146	28098.4	28098.4
1341.11	145.5	28060.6	28060.6
1341.61	145	28150.3	28150.3
1342.11	144.5	28309.5	28309.5
1342.61	144	28505.4	28505.4
1343.11	143.5	28701.2	28701.2
1343.61	143	29089.9	29089.9
1344.11	142.5	29122.5	29122.5
1344.61	142	29309.8	29309.8
1345.11	141.5	29432.3	29432.3
1345.61	141	29478.1	29478.1
1346.11	140.5	29569.8	29569.8
1346.61	140	29675.4	29675.4
1347.11	139.5	29619.9	29619.9
1347.61	139	29334	29334
1348.11	138.5	29614.8	29614.8
1348.61	138	29696.3	29696.3
1349.11	137.5	29851.8	29851.8
1349.61	137	29863.2	29863.2
1350.11	136.5	29973.3	29973.3
1350.61	136	29954	29954
1351.11	135.5	30293.5	30293.5
1351.61	135	30230.7	30230.7
1352.11	134.5	30173.5	30173.5
1352.61	134	30067.8	30067.8
1353.11	133.5	30082.2	30082.2
1353.61	133	30344.5	30344.5
1354.11	132.5	30526.5	30526.5
1354.61	132	30365.7	30365.7
1355.11	131.5	30487.9	30487.9
1355.61	131	30586.1	30586.1
1356.11	130.5	30321.4	30321.4
1356.61	130	30407.4	30407.4
1357.11	129.5	30552.6	30552.6
1357.61	129	30810.3	30810.3
1358.11	128.5	31052.5	31052.5
1358.61	128	31531.2	31531.2
1359.11	127.5	31905.3	31905.3
1359.61	127	32578.6	32578.6
1360.11	126.5	33604.4	33604.4
1360.61	126	34997.2	34997.2
1361.11	125.5	36992	36992
1361.61	125	40043.2	40043.2
1362.11	124.5	44758.3	44758.3
1362.61	124	50782.1	50782.1
1363.11	123.5	58142	58142
1363.61	123	64419.1	64419.1
1364.11	122.5	67130.7	67130.7
1364.61	122	64752.2	64752.2
1365.11	121.5	57971.9	57971.9
1365.61	121	49288.5	49288.5
1366.11	120.5	41762.4	41762.4
1366.61	120	36478.7	36478.7
1367.11	119.5	32726.1	32726.1
1367.61	119	30435.5	30435.5
1368.11	118.5	29016.9	29016.9
1368.61	118	27547.7	27547.7
1369.11	117.5	27288	27288
1369.61	117	27010.3	27010.3
1370.11	116.5	26328.5	26328.5
1370.61	116	25861.8	25861.8
1371.11	115.5	25859	25859
1371.61	115	25824.1	25824.1
1372.11	114.5	25816	25816
1372.61	114	25655.9	25655.9
1373.11	113.5	25550.9	25550.9
1373.61	113	25676	25676
1374.11	112.5	25598.3	25598.3
1374.61	112	25730.4	25730.4
1375.11	111.5	25779.6	25779.6
1375.61	111	25888.4	25888.4
1376.11	110.5	26048.6	26048.6
1376.61	110	26057.3	26057.3
1377.11	109.5	26381.2	26381.2
1377.61	109	26595.5	26595.5
1378.11	108.5	26749.3	26749.3
1378.61	108	26767	26767
1379.11	107.5	27137.2	27137.2
1379.61	107	27255.7	27255.7
1380.11	106.5	27506.7	27506.7
1380.61	106	27652.1	27652.1
1381.11	105.5	27901.4	27901.4
1381.61	105	28055.7	28055.7
1382.11	104.5	28306.7	28306.7
1382.61	104	28653.8	28653.8
1383.11	103.5	28737.4	28737.4
1383.61	103	28622.8	28622.8
1384.11	102.5	29025.3	29025.3
1384.61	102	29180.5	29180.5
1385.11	101.5	29197.6	29197.6
1385.61	101	29365	29365
1386.11	100.5	29303.8	29303.8
1386.61	100	29302.6	29302.6
1387.11	99.5	29699.7	29699.7
1387.61	99	29704.8	29704.8
1388.11	98.5	29914.9	29914.9
1388.61	98	30281.3	30281.3
1389.11	97.5	30421.2	30421.2
1389.61	97	30624.9	30624.9
1390.11	96.5	30697.2	30697.2
1390.61	96	30799.4	30799.4
1391.11	95.5	30910.2	30910.2
1391.61	95	31031.5	31031.5
1392.11	94.5	31022.5	31022.5
1392.61	94	30438.1	30438.1
1393.11	93.5	30004	30004
1393.61	93	29788.8	29788.8
1394.11	92.5	29356.9	29356.9
1394.61	92	29071.3	29071.3
1395.11	91.5	28695.2	28695.2
1395.61	91	28431.2	28431.2
1396.11	90.5	28713.5	28713.5
1396.61	90	28620	28620
1397.11	89.5	28766.4	28766.4
1397.61	89	28917.2	28917.2
1398.11	88.5	29213.7	29213.7
1398.61	88	29613.5	29613.5
1399.11	87.5	29703.7	29703.7
1399.61	87	29496.8	29496.8
1400.11	86.5	29525.3	29525.3
1400.61	86	29499.9	29499.9
1401.11	85.5	29513.1	29513.1
1401.61	85	29678.6	29678.6
1402.11	84.5	29682.6	29682.6
1402.61	84	30051.1	30051.1
1403.11	83.5	30250	30250
1403.61	83	30593.5	30593.5
1404.11	82.5	31000.4	31000.4
1404.61	82	31540.9	31540.9
1405.11	81.5	32721.8	32721.8
1405.61	81	34337.3	34337.3
1406.11	80.5	36914.7	36914.7
1406.61	80	40888.2	40888.2
1407.11	79.5	46682.3	46682.3
1407.61	79	54313.2	54313.2
1408.11	78.5	64437.7	64437.7
1408.61	78	75056.2	75056.2
1409.11	77.5	84140.4	84140.4
1409.61	77	90074.3	90074.3
1410.11	76.5	95452.7	95452.7
1410.61	76	100746	100746
1411.11	75.5	105397	105397
1411.61	75	104470	104470
1412.11	74.5	94633.7	94633.7
1412.61	74	77149.8	77149.8
1413.11	73.5	57779.5	57779.5
1413.61	73	41881.9	41881.9
1414.11	72.5	31189.3	31189.3
1414.61	72	24333.4	24333.4
1415.11	71.5	19681.3	19681.3
1415.61	71	16606.1	16606.1
1416.11	70.5	14278.6	14278.6
1416.61	70	12507.9	12507.9
1417.11	69.5	11374.7	11374.7
1417.61	69	10348	10348
1418.11	68.5	9688.16	9688.16
1418.61	68	9120.21	9120.21
1419.11	67.5	8563.86	8563.86
1419.61	67	7957.44	7957.44
1420.11	66.5	7797.88	7797.88
1420.61	66	7548.26	7548.26
1421.11	65.5	7348.75	7348.75
1421.61	65	7080.55	7080.55
1422.11	64.5	6931.99	6931.99
1422.61	64	6792.9	6792.9
1423.11	63.5	6580.95	6580.95
1423.61	63	6469.66	6469.66
1424.11	62.5	6391.77	6391.77
1424.61	62	6299.44	6299.44
1425.11	61.5	6355.55	6355.55
1425.61	61	6143.64	6143.64
1426.11	60.5	6242.24	6242.24
1426.61	60	6117.03	6117.03
1427.11	59.5	6078.55	6078.55
1427.61	59	6167.31	6167.31
1428.11	58.5	6043.64	6043.64
1428.61	58	6076.64	6076.64
1429.11	57.5	6058.51	6058.51
1429.61	57	6093.92	6093.92
1430.11	56.5	5877.66	5877.66
1430.61	56	5795.57	5795.57
1431.11	55.5	5837.91	5837.91
1431.61	55	5979.38	5979.38
1432.11	54.5	5948.81	5948.81
1432.61	54	5985.7	5985.7
1433.11	53.5	5933.98	5933.98
1433.61	53	5835.11	5835.11
1434.11	52.5	5839.34	5839.34
1434.61	52	5974.6	5974.6