EX322_CEC356_Au_Ag_Cu in H2_1.vms_vb_regions.vms
Survey
	Characteristic Energy eV	1486.61	Acquisition Time s	0.1
KE_Survey	BE_Survey	CPS_Survey	Background_Survey
1256.61	230	18343.4	18343.4
1257.11	229.5	18426.4	18426.4
1257.61	229	18246.1	18246.1
1258.11	228.5	18184.7	18184.7
1258.61	228	18426.8	18426.8
1259.11	227.5	18282.9	18282.9
1259.61	227	18262.8	18262.8
1260.11	226.5	18286.8	18286.8
1260.61	226	18482.5	18482.5
1261.11	225.5	18531.5	18531.5
1261.61	225	18432.4	18432.4
1262.11	224.5	18384.7	18384.7
1262.61	224	18327.7	18327.7
1263.11	223.5	18398.6	18398.6
1263.61	223	18706.3	18706.3
1264.11	222.5	18543.4	18543.4
1264.61	222	18582.9	18582.9
1265.11	221.5	18520.8	18520.8
1265.61	221	18465.1	18465.1
1266.11	220.5	18527.8	18527.8
1266.61	220	18586.7	18586.7
1267.11	219.5	18723.4	18723.4
1267.61	219	18822.7	18822.7
1268.11	218.5	18899.5	18899.5
1268.61	218	18595.3	18595.3
1269.11	217.5	18601.3	18601.3
1269.61	217	18887.3	18887.3
1270.11	216.5	18700.4	18700.4
1270.61	216	18791.1	18791.1
1271.11	215.5	18742.6	18742.6
1271.61	215	18826.8	18826.8
1272.11	214.5	18902.1	18902.1
1272.61	214	18824.4	18824.4
1273.11	213.5	19032.4	19032.4
1273.61	213	19178.9	19178.9
1274.11	212.5	19043.5	19043.5
1274.61	212	19141.7	19141.7
1275.11	211.5	19129.7	19129.7
1275.61	211	18940.8	18940.8
1276.11	210.5	19117.1	19117.1
1276.61	210	19275.6	19275.6
1277.11	209.5	19232.3	19232.3
1277.61	209	19013.7	19013.7
1278.11	208.5	18959	18959
1278.61	208	19242.4	19242.4
1279.11	207.5	19356.7	19356.7
1279.61	207	19218.6	19218.6
1280.11	206.5	19258.9	19258.9
1280.61	206	19267.7	19267.7
1281.11	205.5	19434.6	19434.6
1281.61	205	19302.6	19302.6
1282.11	204.5	19328.2	19328.2
1282.61	204	19513.9	19513.9
1283.11	203.5	19620	19620
1283.61	203	19722.1	19722.1
1284.11	202.5	19792.3	19792.3
1284.61	202	19640.9	19640.9
1285.11	201.5	19596.3	19596.3
1285.61	201	19586.5	19586.5
1286.11	200.5	19664.1	19664.1
1286.61	200	19701.5	19701.5
1287.11	199.5	19652.6	19652.6
1287.61	199	19763.6	19763.6
1288.11	198.5	19619.6	19619.6
1288.61	198	19712.8	19712.8
1289.11	197.5	19657.9	19657.9
1289.61	197	19919.5	19919.5
1290.11	196.5	19970.1	19970.1
1290.61	196	20006.5	20006.5
1291.11	195.5	19953.5	19953.5
1291.61	195	19761	19761
1292.11	194.5	20027	20027
1292.61	194	20116	20116
1293.11	193.5	20136.6	20136.6
1293.61	193	20030.7	20030.7
1294.11	192.5	20057.5	20057.5
1294.61	192	20013.3	20013.3
1295.11	191.5	20139	20139
1295.61	191	20219.2	20219.2
1296.11	190.5	20273.5	20273.5
1296.61	190	20284.4	20284.4
1297.11	189.5	20430.9	20430.9
1297.61	189	20491.1	20491.1
1298.11	188.5	20398.5	20398.5
1298.61	188	20355.7	20355.7
1299.11	187.5	20531.7	20531.7
1299.61	187	20913.7	20913.7
1300.11	186.5	20802.8	20802.8
1300.61	186	20630.5	20630.5
1301.11	185.5	20726.2	20726.2
1301.61	185	20524.8	20524.8
1302.11	184.5	20619.6	20619.6
1302.61	184	20794.2	20794.2
1303.11	183.5	20754.6	20754.6
1303.61	183	20830	20830
1304.11	182.5	20970.1	20970.1
1304.61	182	21114.4	21114.4
1305.11	181.5	20884.3	20884.3
1305.61	181	20925.5	20925.5
1306.11	180.5	21066	21066
1306.61	180	20969.3	20969.3
1307.11	179.5	20895.9	20895.9
1307.61	179	21177.4	21177.4
1308.11	178.5	21292.5	21292.5
1308.61	178	21221.2	21221.2
1309.11	177.5	21227.4	21227.4
1309.61	177	21216.1	21216.1
1310.11	176.5	21388.5	21388.5
1310.61	176	21318.3	21318.3
1311.11	175.5	21394.5	21394.5
1311.61	175	21467.9	21467.9
1312.11	174.5	21646.8	21646.8
1312.61	174	21645.8	21645.8
1313.11	173.5	21573	21573
1313.61	173	21813	21813
1314.11	172.5	21901.2	21901.2
1314.61	172	21929.3	21929.3
1315.11	171.5	21798.5	21798.5
1315.61	171	22066.7	22066.7
1316.11	170.5	21944	21944
1316.61	170	22026	22026
1317.11	169.5	22040.9	22040.9
1317.61	169	21970	21970
1318.11	168.5	22079.7	22079.7
1318.61	168	22191.2	22191.2
1319.11	167.5	22214	22214
1319.61	167	22309.6	22309.6
1320.11	166.5	22618.5	22618.5
1320.61	166	22590.6	22590.6
1321.11	165.5	22541.3	22541.3
1321.61	165	22375.6	22375.6
1322.11	164.5	22612.4	22612.4
1322.61	164	22751.5	22751.5
1323.11	163.5	22757.6	22757.6
1323.61	163	22712.9	22712.9
1324.11	162.5	22757	22757
1324.61	162	22851.1	22851.1
1325.11	161.5	23038.4	23038.4
1325.61	161	22883.4	22883.4
1326.11	160.5	22997.8	22997.8
1326.61	160	23264	23264
1327.11	159.5	23326.8	23326.8
1327.61	159	23276.3	23276.3
1328.11	158.5	23350.3	23350.3
1328.61	158	23380.5	23380.5
1329.11	157.5	23621.9	23621.9
1329.61	157	23521.9	23521.9
1330.11	156.5	23650.5	23650.5
1330.61	156	23725	23725
1331.11	155.5	23810.5	23810.5
1331.61	155	23985.2	23985.2
1332.11	154.5	24262.5	24262.5
1332.61	154	24042.8	24042.8
1333.11	153.5	24186.3	24186.3
1333.61	153	24205.6	24205.6
1334.11	152.5	24209.8	24209.8
1334.61	152	24290.8	24290.8
1335.11	151.5	24482.9	24482.9
1335.61	151	24550.4	24550.4
1336.11	150.5	24533.8	24533.8
1336.61	150	24645.3	24645.3
1337.11	149.5	25051.9	25051.9
1337.61	149	24914.6	24914.6
1338.11	148.5	24927.2	24927.2
1338.61	148	24979.8	24979.8
1339.11	147.5	25071.7	25071.7
1339.61	147	25275.9	25275.9
1340.11	146.5	25227.5	25227.5
1340.61	146	25352.8	25352.8
1341.11	145.5	25272	25272
1341.61	145	25547.1	25547.1
1342.11	144.5	25592.9	25592.9
1342.61	144	25693.9	25693.9
1343.11	143.5	25857.7	25857.7
1343.61	143	26187.7	26187.7
1344.11	142.5	26197.4	26197.4
1344.61	142	26352.6	26352.6
1345.11	141.5	26263.3	26263.3
1345.61	141	26456.5	26456.5
1346.11	140.5	26627.8	26627.8
1346.61	140	26840.2	26840.2
1347.11	139.5	26858.8	26858.8
1347.61	139	26923.6	26923.6
1348.11	138.5	27140.8	27140.8
1348.61	138	27319.5	27319.5
1349.11	137.5	27709.1	27709.1
1349.61	137	27860.1	27860.1
1350.11	136.5	28018	28018
1350.61	136	28298.9	28298.9
1351.11	135.5	28328.8	28328.8
1351.61	135	28324.1	28324.1
1352.11	134.5	27933.6	27933.6
1352.61	134	27577.2	27577.2
1353.11	133.5	26995.8	26995.8
1353.61	133	26608.3	26608.3
1354.11	132.5	26068.2	26068.2
1354.61	132	25867.4	25867.4
1355.11	131.5	25803.2	25803.2
1355.61	131	25746.9	25746.9
1356.11	130.5	25728.6	25728.6
1356.61	130	25643.4	25643.4
1357.11	129.5	25472.7	25472.7
1357.61	129	25605.8	25605.8
1358.11	128.5	26136.5	26136.5
1358.61	128	26379.3	26379.3
1359.11	127.5	26528.5	26528.5
1359.61	127	27117.1	27117.1
1360.11	126.5	27822.9	27822.9
1360.61	126	28681.2	28681.2
1361.11	125.5	29685	29685
1361.61	125	32223.1	32223.1
1362.11	124.5	34849.1	34849.1
1362.61	124	38808.7	38808.7
1363.11	123.5	43444.5	43444.5
1363.61	123	47903.8	47903.8
1364.11	122.5	49522.5	49522.5
1364.61	122	48148.8	48148.8
1365.11	121.5	43645.7	43645.7
1365.61	121	38057.1	38057.1
1366.11	120.5	33182.5	33182.5
1366.61	120	29724.9	29724.9
1367.11	119.5	27489.4	27489.4
1367.61	119	26171.2	26171.2
1368.11	118.5	25186.9	25186.9
1368.61	118	24371.4	24371.4
1369.11	117.5	23957.2	23957.2
1369.61	117	24063.6	24063.6
1370.11	116.5	23720.6	23720.6
1370.61	116	23460.5	23460.5
1371.11	115.5	23404.6	23404.6
1371.61	115	23347	23347
1372.11	114.5	23211.7	23211.7
1372.61	114	23321.7	23321.7
1373.11	113.5	22971.9	22971.9
1373.61	113	23258	23258
1374.11	112.5	23123.8	23123.8
1374.61	112	23272.4	23272.4
1375.11	111.5	23074.8	23074.8
1375.61	111	23305.8	23305.8
1376.11	110.5	23511.8	23511.8
1376.61	110	23591.2	23591.2
1377.11	109.5	23593.2	23593.2
1377.61	109	23865.1	23865.1
1378.11	108.5	24007.4	24007.4
1378.61	108	24111.5	24111.5
1379.11	107.5	24116.7	24116.7
1379.61	107	24474	24474
1380.11	106.5	24578	24578
1380.61	106	24742.3	24742.3
1381.11	105.5	24881.1	24881.1
1381.61	105	25124.2	25124.2
1382.11	104.5	25378.5	25378.5
1382.61	104	25146.7	25146.7
1383.11	103.5	25421.5	25421.5
1383.61	103	25642	25642
1384.11	102.5	25798.5	25798.5
1384.61	102	25552.7	25552.7
1385.11	101.5	25497.8	25497.8
1385.61	101	25723.4	25723.4
1386.11	100.5	25861	25861
1386.61	100	25828.3	25828.3
1387.11	99.5	25916.2	25916.2
1387.61	99	26263.4	26263.4
1388.11	98.5	26384.3	26384.3
1388.61	98	26487.8	26487.8
1389.11	97.5	26723.3	26723.3
1389.61	97	26860.8	26860.8
1390.11	96.5	27109.1	27109.1
1390.61	96	27389.1	27389.1
1391.11	95.5	27400.4	27400.4
1391.61	95	27732.7	27732.7
1392.11	94.5	27874.3	27874.3
1392.61	94	27522.8	27522.8
1393.11	93.5	27497.6	27497.6
1393.61	93	27688.7	27688.7
1394.11	92.5	27517.9	27517.9
1394.61	92	27498.3	27498.3
1395.11	91.5	27867	27867
1395.61	91	28021.7	28021.7
1396.11	90.5	28309.4	28309.4
1396.61	90	28384.5	28384.5
1397.11	89.5	28221.7	28221.7
1397.61	89	28134.5	28134.5
1398.11	88.5	28241.4	28241.4
1398.61	88	27908	27908
1399.11	87.5	27224.9	27224.9
1399.61	87	26320.2	26320.2
1400.11	86.5	25044	25044
1400.61	86	23758.7	23758.7
1401.11	85.5	22844.9	22844.9
1401.61	85	22257	22257
1402.11	84.5	21585.8	21585.8
1402.61	84	21538.6	21538.6
1403.11	83.5	21613.1	21613.1
1403.61	83	21416.6	21416.6
1404.11	82.5	21845.8	21845.8
1404.61	82	22225.2	22225.2
1405.11	81.5	22906.5	22906.5
1405.61	81	24000	24000
1406.11	80.5	25751.8	25751.8
1406.61	80	28171.9	28171.9
1407.11	79.5	32355.8	32355.8
1407.61	79	37350.2	37350.2
1408.11	78.5	44040.2	44040.2
1408.61	78	51118.7	51118.7
1409.11	77.5	56772.2	56772.2
1409.61	77	60956.2	60956.2
1410.11	76.5	63902.1	63902.1
1410.61	76	67696	67696
1411.11	75.5	70527.3	70527.3
1411.61	75	69656.8	69656.8
1412.11	74.5	63199.4	63199.4
1412.61	74	51801.8	51801.8
1413.11	73.5	38893.1	38893.1
1413.61	73	28512.4	28512.4
1414.11	72.5	21573.5	21573.5
1414.61	72	17114.1	17114.1
1415.11	71.5	14138.1	14138.1
1415.61	71	12092.7	12092.7
1416.11	70.5	10746.4	10746.4
1416.61	70	9688.38	9688.38
1417.11	69.5	8790.43	8790.43
1417.61	69	8075.35	8075.35
1418.11	68.5	7668.52	7668.52
1418.61	68	7397.6	7397.6
1419.11	67.5	7013.25	7013.25
1419.61	67	6717.51	6717.51
1420.11	66.5	6515.44	6515.44
1420.61	66	6319.89	6319.89
1421.11	65.5	6037.81	6037.81
1421.61	65	5920.85	5920.85
1422.11	64.5	5863.51	5863.51
1422.61	64	5860.02	5860.02
1423.11	63.5	5835.21	5835.21
1423.61	63	5725.58	5725.58
1424.11	62.5	5715.35	5715.35
1424.61	62	5556.61	5556.61
1425.11	61.5	5566.17	5566.17
1425.61	61	5465.99	5465.99
1426.11	60.5	5500.69	5500.69
1426.61	60	5417.2	5417.2
1427.11	59.5	5598.52	5598.52
1427.61	59	5458.19	5458.19
1428.11	58.5	5403.14	5403.14
1428.61	58	5434.56	5434.56
1429.11	57.5	5387.65	5387.65
1429.61	57	5426.24	5426.24
1430.11	56.5	5444.54	5444.54
1430.61	56	5438.34	5438.34
1431.11	55.5	5486.47	5486.47
1431.61	55	5455.75	5455.75
1432.11	54.5	5427.33	5427.33
1432.61	54	5345.09	5345.09
1433.11	53.5	5387.48	5387.48
1433.61	53	5475.84	5475.84
1434.11	52.5	5385.95	5385.95
1434.61	52	5555.07	5555.07