C:\Users\Mark\ownCloud\Muelheim Group\Projects\Gas phase background\EX321_CEC356_Au Ag and Cu in O2_clean.vms
Ag3d
	Characteristic Energy eV	1486.61	Acquisition Time s	0.9
KE_Ag3d	BE_Ag3d	CPS_Ag3d
1036.61	450	11510.3
1036.71	449.9	11529.6
1036.81	449.8	11533
1036.91	449.7	11552.5
1037.01	449.6	11630.5
1037.11	449.5	11560.7
1037.21	449.4	11572.9
1037.31	449.3	11484.7
1037.41	449.2	11542
1037.51	449.1	11545.5
1037.61	449	11641.9
1037.71	448.9	11666.7
1037.81	448.8	11581.2
1037.91	448.7	11615.2
1038.01	448.6	11667.8
1038.11	448.5	11541.9
1038.21	448.4	11625.4
1038.31	448.3	11663.9
1038.41	448.2	11575.2
1038.51	448.1	11520.2
1038.61	448	11572.3
1038.71	447.9	11584.8
1038.81	447.8	11592.4
1038.91	447.7	11518.4
1039.01	447.6	11554.1
1039.11	447.5	11561.3
1039.21	447.4	11586.5
1039.31	447.3	11663.4
1039.41	447.2	11606
1039.51	447.1	11574.2
1039.61	447	11581.5
1039.71	446.9	11521.4
1039.81	446.8	11487.6
1039.91	446.7	11565.9
1040.01	446.6	11580.7
1040.11	446.5	11580.8
1040.21	446.4	11564.8
1040.31	446.3	11633.2
1040.41	446.2	11577.5
1040.51	446.1	11632.5
1040.61	446	11601.5
1040.71	445.9	11602.1
1040.81	445.8	11595.6
1040.91	445.7	11537.2
1041.01	445.6	11553.5
1041.11	445.5	11678.7
1041.21	445.4	11515.5
1041.31	445.3	11505
1041.41	445.2	11591.5
1041.51	445.1	11638.8
1041.61	445	11565.7
1041.71	444.9	11580.6
1041.81	444.8	11674.8
1041.91	444.7	11588.3
1042.01	444.6	11642
1042.11	444.5	11620.5
1042.21	444.4	11621.3
1042.31	444.3	11627.7
1042.41	444.2	11633.1
1042.51	444.1	11629.9
1042.61	444	11586.6
1042.71	443.9	11599.3
1042.81	443.8	11652
1042.91	443.7	11641.8
1043.01	443.6	11704.1
1043.11	443.5	11590
1043.21	443.4	11654.2
1043.31	443.3	11632.2
1043.41	443.2	11600.4
1043.51	443.1	11532.4
1043.61	443	11586.5
1043.71	442.9	11559.3
1043.81	442.8	11632
1043.91	442.7	11638.9
1044.01	442.6	11578.6
1044.11	442.5	11567.6
1044.21	442.4	11621.8
1044.31	442.3	11666.9
1044.41	442.2	11625.8
1044.51	442.1	11607.2
1044.61	442	11573.6
1044.71	441.9	11567.2
1044.81	441.8	11600.7
1044.91	441.7	11657.4
1045.01	441.6	11703.5
1045.11	441.5	11663.6
1045.21	441.4	11589.2
1045.31	441.3	11617.5
1045.41	441.2	11617.4
1045.51	441.1	11629.5
1045.61	441	11659.6
1045.71	440.9	11654.8
1045.81	440.8	11630
1045.91	440.7	11581.1
1046.01	440.6	11716.2
1046.11	440.5	11640.4
1046.21	440.4	11565.7
1046.31	440.3	11597.1
1046.41	440.2	11612.3
1046.51	440.1	11579
1046.61	440	11562.5
1046.71	439.9	11604
1046.81	439.8	11612.1
1046.91	439.7	11590.1
1047.01	439.6	11605.4
1047.11	439.5	11658.8
1047.21	439.4	11608.2
1047.31	439.3	11625.2
1047.41	439.2	11678.1
1047.51	439.1	11596.2
1047.61	439	11612.4
1047.71	438.9	11677.2
1047.81	438.8	11614.9
1047.91	438.7	11583.5
1048.01	438.6	11633.2
1048.11	438.5	11596.7
1048.21	438.4	11550.2
1048.31	438.3	11588.2
1048.41	438.2	11629
1048.51	438.1	11685.6
1048.61	438	11581
1048.71	437.9	11515.9
1048.81	437.8	11633.8
1048.91	437.7	11699.7
1049.01	437.6	11618.3
1049.11	437.5	11629.9
1049.21	437.4	11642.1
1049.31	437.3	11660.4
1049.41	437.2	11639.2
1049.51	437.1	11706.5
1049.61	437	11694.9
1049.71	436.9	11638.9
1049.81	436.8	11607.5
1049.91	436.7	11714.8
1050.01	436.6	11683.3
1050.11	436.5	11741.8
1050.21	436.4	11710.8
1050.31	436.3	11631.1
1050.41	436.2	11640.4
1050.51	436.1	11589.6
1050.61	436	11712.5
1050.71	435.9	11617.2
1050.81	435.8	11562.8
1050.91	435.7	11510.7
1051.01	435.6	11564.6
1051.11	435.5	11693.7
1051.21	435.4	11734.7
1051.31	435.3	11661.5
1051.41	435.2	11657.9
1051.51	435.1	11663
1051.61	435	11653.5
1051.71	434.9	11676.5
1051.81	434.8	11708.8
1051.91	434.7	11629.2
1052.01	434.6	11554.8
1052.11	434.5	11631.8
1052.21	434.4	11692.4
1052.31	434.3	11693.3
1052.41	434.2	11665
1052.51	434.1	11681.3
1052.61	434	11704.4
1052.71	433.9	11621.1
1052.81	433.8	11700.2
1052.91	433.7	11687
1053.01	433.6	11594.6
1053.11	433.5	11661.7
1053.21	433.4	11695.5
1053.31	433.3	11651.6
1053.41	433.2	11703.2
1053.51	433.1	11623.5
1053.61	433	11691.8
1053.71	432.9	11688.9
1053.81	432.8	11582
1053.91	432.7	11676.4
1054.01	432.6	11712.6
1054.11	432.5	11759.9
1054.21	432.4	11680.6
1054.31	432.3	11667.2
1054.41	432.2	11724.6
1054.51	432.1	11699.5
1054.61	432	11671.4
1054.71	431.9	11598.6
1054.81	431.8	11680.6
1054.91	431.7	11677
1055.01	431.6	11732.8
1055.11	431.5	11751.3
1055.21	431.4	11720.9
1055.31	431.3	11732.8
1055.41	431.2	11746.5
1055.51	431.1	11722
1055.61	431	11754.7
1055.71	430.9	11875.2
1055.81	430.8	11758.8
1055.91	430.7	11715.5
1056.01	430.6	11731.2
1056.11	430.5	11759.8
1056.21	430.4	11743.9
1056.31	430.3	11814.6
1056.41	430.2	11741.9
1056.51	430.1	11668.5
1056.61	430	11758.6
1056.71	429.9	11726.9
1056.81	429.8	11728.6
1056.91	429.7	11851.7
1057.01	429.6	11826.1
1057.11	429.5	11820
1057.21	429.4	11785.2
1057.31	429.3	11762.3
1057.41	429.2	11796.9
1057.51	429.1	11758.5
1057.61	429	11772.4
1057.71	428.9	11836.6
1057.81	428.8	11746.3
1057.91	428.7	11642.7
1058.01	428.6	11690.6
1058.11	428.5	11755.6
1058.21	428.4	11771.8
1058.31	428.3	11809.8
1058.41	428.2	11829.4
1058.51	428.1	11799.3
1058.61	428	11779.6
1058.71	427.9	11801.3
1058.81	427.8	11742.1
1058.91	427.7	11803.4
1059.01	427.6	11917.5
1059.11	427.5	11851.8
1059.21	427.4	11777.8
1059.31	427.3	11800.8
1059.41	427.2	11871.1
1059.51	427.1	11877.8
1059.61	427	11780.1
1059.71	426.9	11874.6
1059.81	426.8	11900.8
1059.91	426.7	11792
1060.01	426.6	11818.7
1060.11	426.5	11828.1
1060.21	426.4	11890.3
1060.31	426.3	11748.5
1060.41	426.2	11784.8
1060.51	426.1	11771.7
1060.61	426	11770.1
1060.71	425.9	11753.7
1060.81	425.8	11840.4
1060.91	425.7	11830.1
1061.01	425.6	11874.1
1061.11	425.5	11879.3
1061.21	425.4	11774.2
1061.31	425.3	11846.6
1061.41	425.2	11916.2
1061.51	425.1	11910.2
1061.61	425	11865.5
1061.71	424.9	11807.6
1061.81	424.8	11886.6
1061.91	424.7	11904.9
1062.01	424.6	11836.9
1062.11	424.5	11816.2
1062.21	424.4	11887.8
1062.31	424.3	11898.7
1062.41	424.2	11933.2
1062.51	424.1	11956.5
1062.61	424	11937.7
1062.71	423.9	11909.2
1062.81	423.8	11900.7
1062.91	423.7	11929.3
1063.01	423.6	11976.6
1063.11	423.5	11904.5
1063.21	423.4	11975.8
1063.31	423.3	11948.1
1063.41	423.2	11891.5
1063.51	423.1	11927.3
1063.61	423	11934.2
1063.71	422.9	11936.3
1063.81	422.8	11963.7
1063.91	422.7	11975.5
1064.01	422.6	12010.2
1064.11	422.5	11964.2
1064.21	422.4	11889.6
1064.31	422.3	11881.3
1064.41	422.2	11865.8
1064.51	422.1	12085.4
1064.61	422	11972.5
1064.71	421.9	11898.6
1064.81	421.8	11921.4
1064.91	421.7	11960.9
1065.01	421.6	11980.4
1065.11	421.5	11952.6
1065.21	421.4	11873.4
1065.31	421.3	11912.3
1065.41	421.2	12003.4
1065.51	421.1	11959.6
1065.61	421	11952.7
1065.71	420.9	12010.2
1065.81	420.8	12071.4
1065.91	420.7	11951.1
1066.01	420.6	11866.6
1066.11	420.5	11899.9
1066.21	420.4	11928.2
1066.31	420.3	11890.8
1066.41	420.2	11825.5
1066.51	420.1	11879.7
1066.61	420	11951.2
1066.71	419.9	12002
1066.81	419.8	11887.4
1066.91	419.7	11850.9
1067.01	419.6	11893.4
1067.11	419.5	11870.5
1067.21	419.4	11861
1067.31	419.3	11992.9
1067.41	419.2	11836.4
1067.51	419.1	11888.7
1067.61	419	11993.8
1067.71	418.9	11910.7
1067.81	418.8	11911
1067.91	418.7	11876.4
1068.01	418.6	11798.2
1068.11	418.5	11951.3
1068.21	418.4	11913.3
1068.31	418.3	11882.9
1068.41	418.2	11905.6
1068.51	418.1	11882.3
1068.61	418	11914.1
1068.71	417.9	11973.6
1068.81	417.8	11975.2
1068.91	417.7	11991.1
1069.01	417.6	11937.5
1069.11	417.5	11946.5
1069.21	417.4	11913.6
1069.31	417.3	11887.9
1069.41	417.2	11941.1
1069.51	417.1	11899.1
1069.61	417	11936
1069.71	416.9	11876.5
1069.81	416.8	11881.1
1069.91	416.7	11929.6
1070.01	416.6	11927.8
1070.11	416.5	11939.9
1070.21	416.4	11916.2
1070.31	416.3	11947.2
1070.41	416.2	11949
1070.51	416.1	12065.8
1070.61	416	11972.6
1070.71	415.9	12038.9
1070.81	415.8	12044
1070.91	415.7	12034.3
1071.01	415.6	12077.7
1071.11	415.5	12053
1071.21	415.4	11996.8
1071.31	415.3	11967.9
1071.41	415.2	11966.1
1071.51	415.1	12030.9
1071.61	415	12065.6
1071.71	414.9	12114.9
1071.81	414.8	11918.1
1071.91	414.7	12069.6
1072.01	414.6	12019.3
1072.11	414.5	12051.8
1072.21	414.4	12019.4
1072.31	414.3	12025.3
1072.41	414.2	12009.6
1072.51	414.1	12006.1
1072.61	414	11963.1
1072.71	413.9	12098.6
1072.81	413.8	12098.7
1072.91	413.7	12043.9
1073.01	413.6	12034.9
1073.11	413.5	11951.3
1073.21	413.4	12002.1
1073.31	413.3	12126.6
1073.41	413.2	12115.3
1073.51	413.1	12046.8
1073.61	413	12105.4
1073.71	412.9	12046.3
1073.81	412.8	12084.1
1073.91	412.7	12136.3
1074.01	412.6	12082.1
1074.11	412.5	12117.3
1074.21	412.4	12061.4
1074.31	412.3	12073.7
1074.41	412.2	12112.2
1074.51	412.1	12086.1
1074.61	412	12100.2
1074.71	411.9	12182.1
1074.81	411.8	12062.6
1074.91	411.7	12150
1075.01	411.6	12043
1075.11	411.5	12078.4
1075.21	411.4	12141.2
1075.31	411.3	12175.1
1075.41	411.2	12168.8
1075.51	411.1	12248.5
1075.61	411	12148.6
1075.71	410.9	12163.7
1075.81	410.8	12110.2
1075.91	410.7	12162.9
1076.01	410.6	12226.8
1076.11	410.5	12274.1
1076.21	410.4	12272.1
1076.31	410.3	12285.4
1076.41	410.2	12258.4
1076.51	410.1	12322.8
1076.61	410	12227.6
1076.71	409.9	12243.5
1076.81	409.8	12264.2
1076.91	409.7	12297
1077.01	409.6	12357.4
1077.11	409.5	12438.2
1077.21	409.4	12374.4
1077.31	409.3	12260.5
1077.41	409.2	12396.4
1077.51	409.1	12410.4
1077.61	409	12364.2
1077.71	408.9	12267.5
1077.81	408.8	12321.7
1077.91	408.7	12420.5
1078.01	408.6	12372.4
1078.11	408.5	12396.8
1078.21	408.4	12312.3
1078.31	408.3	12437.1
1078.41	408.2	12439.3
1078.51	408.1	12478.8
1078.61	408	12454.8
1078.71	407.9	12479.4
1078.81	407.8	12414.7
1078.91	407.7	12436.2
1079.01	407.6	12508.3
1079.11	407.5	12439.8
1079.21	407.4	12411.3
1079.31	407.3	12539.9
1079.41	407.2	12427.5
1079.51	407.1	12466.6
1079.61	407	12494.8
1079.71	406.9	12463.3
1079.81	406.8	12577.3
1079.91	406.7	12541.7
1080.01	406.6	12525.3
1080.11	406.5	12553.6
1080.21	406.4	12534.2
1080.31	406.3	12646.6
1080.41	406.2	12591.5
1080.51	406.1	12541.6
1080.61	406	12594.5
1080.71	405.9	12500.9
1080.81	405.8	12504.2
1080.91	405.7	12570.7
1081.01	405.6	12546.8
1081.11	405.5	12530.5
1081.21	405.4	12614.5
1081.31	405.3	12721.2
1081.41	405.2	12646.9
1081.51	405.1	12636.1
1081.61	405	12638.3
1081.71	404.9	12624.9
1081.81	404.8	12747
1081.91	404.7	12714.8
1082.01	404.6	12749.2
1082.11	404.5	12733.2
1082.21	404.4	12731.8
1082.31	404.3	12738.7
1082.41	404.2	12771.6
1082.51	404.1	12717.7
1082.61	404	12791.5
1082.71	403.9	12833.8
1082.81	403.8	12778.3
1082.91	403.7	12727.1
1083.01	403.6	12727.6
1083.11	403.5	12861.1
1083.21	403.4	12925.4
1083.31	403.3	12779.5
1083.41	403.2	12848.7
1083.51	403.1	12832.6
1083.61	403	12992.8
1083.71	402.9	12930.3
1083.81	402.8	12873.8
1083.91	402.7	12883.9
1084.01	402.6	12867.5
1084.11	402.5	12957.9
1084.21	402.4	12929.2
1084.31	402.3	13012.7
1084.41	402.2	13022.5
1084.51	402.1	13063.5
1084.61	402	12996.4
1084.71	401.9	13053.4
1084.81	401.8	13089.2
1084.91	401.7	13078.9
1085.01	401.6	13124.7
1085.11	401.5	13091.7
1085.21	401.4	13189.6
1085.31	401.3	13200.8
1085.41	401.2	13256.5
1085.51	401.1	13403.7
1085.61	401	13395.3
1085.71	400.9	13423.3
1085.81	400.8	13327
1085.91	400.7	13384.2
1086.01	400.6	13283.8
1086.11	400.5	13348.3
1086.21	400.4	13379.9
1086.31	400.3	13426.8
1086.41	400.2	13438.5
1086.51	400.1	13450
1086.61	400	13532.9
1086.71	399.9	13565.3
1086.81	399.8	13549.9
1086.91	399.7	13425.9
1087.01	399.6	13382
1087.11	399.5	13475.9
1087.21	399.4	13519.6
1087.31	399.3	13546.3
1087.41	399.2	13442.6
1087.51	399.1	13431.2
1087.61	399	13496.5
1087.71	398.9	13553.4
1087.81	398.8	13576.4
1087.91	398.7	13555
1088.01	398.6	13588.3
1088.11	398.5	13644.1
1088.21	398.4	13603
1088.31	398.3	13461.7
1088.41	398.2	13494.7
1088.51	398.1	13494.2
1088.61	398	13553.9
1088.71	397.9	13637.1
1088.81	397.8	13513.9
1088.91	397.7	13449.9
1089.01	397.6	13451.6
1089.11	397.5	13557.7
1089.21	397.4	13417.6
1089.31	397.3	13485.6
1089.41	397.2	13456
1089.51	397.1	13457.4
1089.61	397	13354.5
1089.71	396.9	13426.6
1089.81	396.8	13324.5
1089.91	396.7	13354.7
1090.01	396.6	13471.7
1090.11	396.5	13404.3
1090.21	396.4	13391.8
1090.31	396.3	13459.8
1090.41	396.2	13424.6
1090.51	396.1	13530.9
1090.61	396	13570.8
1090.71	395.9	13522.3
1090.81	395.8	13481
1090.91	395.7	13607.1
1091.01	395.6	13542.7
1091.11	395.5	13519.7
1091.21	395.4	13589.7
1091.31	395.3	13640.8
1091.41	395.2	13658.7
1091.51	395.1	13789.8
1091.61	395	13808.3
1091.71	394.9	13824.8
1091.81	394.8	13738.2
1091.91	394.7	13966.2
1092.01	394.6	14011.4
1092.11	394.5	13920.9
1092.21	394.4	14084.2
1092.31	394.3	13989.6
1092.41	394.2	13927.8
1092.51	394.1	14032.8
1092.61	394	13967.3
1092.71	393.9	14003.7
1092.81	393.8	14015
1092.91	393.7	14061.9
1093.01	393.6	14080.2
1093.11	393.5	14085.7
1093.21	393.4	14071.3
1093.31	393.3	14053.2
1093.41	393.2	14111.1
1093.51	393.1	14244.8
1093.61	393	14123.7
1093.71	392.9	14091.8
1093.81	392.8	14070.3
1093.91	392.7	14077.6
1094.01	392.6	14023.5
1094.11	392.5	14056.9
1094.21	392.4	13992.4
1094.31	392.3	13931.8
1094.41	392.2	13954.8
1094.51	392.1	13889.1
1094.61	392	13879.5
1094.71	391.9	13924.9
1094.81	391.8	13911.1
1094.91	391.7	13902.4
1095.01	391.6	13791
1095.11	391.5	13835.1
1095.21	391.4	13823.2
1095.31	391.3	13764
1095.41	391.2	13686.9
1095.51	391.1	13724.5
1095.61	391	13727.3
1095.71	390.9	13754
1095.81	390.8	13693.8
1095.91	390.7	13706.2
1096.01	390.6	13781.8
1096.11	390.5	13661.7
1096.21	390.4	13563.6
1096.31	390.3	13555.1
1096.41	390.2	13583.6
1096.51	390.1	13521.2
1096.61	390	13463.2
1096.71	389.9	13458
1096.81	389.8	13469.8
1096.91	389.7	13455.8
1097.01	389.6	13353.1
1097.11	389.5	13315.9
1097.21	389.4	13441.4
1097.31	389.3	13370.6
1097.41	389.2	13333.5
1097.51	389.1	13329.6
1097.61	389	13382.9
1097.71	388.9	13255
1097.81	388.8	13343
1097.91	388.7	13320.5
1098.01	388.6	13367.8
1098.11	388.5	13286.9
1098.21	388.4	13326.3
1098.31	388.3	13341.3
1098.41	388.2	13303.5
1098.51	388.1	13243.6
1098.61	388	13226.5
1098.71	387.9	13343.6
1098.81	387.8	13301.8
1098.91	387.7	13433.5
1099.01	387.6	13438.4
1099.11	387.5	13423.9
1099.21	387.4	13387.4
1099.31	387.3	13413.5
1099.41	387.2	13488.8
1099.51	387.1	13525.9
1099.61	387	13420.7
1099.71	386.9	13389.3
1099.81	386.8	13367.4
1099.91	386.7	13333.6
1100.01	386.6	13321.5
1100.11	386.5	13361.4
1100.21	386.4	13260.4
1100.31	386.3	13203.9
1100.41	386.2	13252.8
1100.51	386.1	13106.7
1100.61	386	13227.4
1100.71	385.9	13176.2
1100.81	385.8	13038.7
1100.91	385.7	13001.1
1101.01	385.6	12974.3
1101.11	385.5	13018.9
1101.21	385.4	12984.8
1101.31	385.3	12921.5
1101.41	385.2	12882.9
1101.51	385.1	12887.7
1101.61	385	12815.3
1101.71	384.9	12772.5
1101.81	384.8	12810.3
1101.91	384.7	12745.3
1102.01	384.6	12665.4
1102.11	384.5	12762.5
1102.21	384.4	12732.4
1102.31	384.3	12755.8
1102.41	384.2	12895.9
1102.51	384.1	12738.6
1102.61	384	12680.9
1102.71	383.9	12728.3
1102.81	383.8	12756.5
1102.91	383.7	12791.5
1103.01	383.6	12772.5
1103.11	383.5	12839
1103.21	383.4	12777.6
1103.31	383.3	12825.9
1103.41	383.2	12882
1103.51	383.1	12883.1
1103.61	383	13013.3
1103.71	382.9	12852.3
1103.81	382.8	12828.8
1103.91	382.7	12939
1104.01	382.6	12933.8
1104.11	382.5	12729.7
1104.21	382.4	12787.1
1104.31	382.3	12947.1
1104.41	382.2	12897
1104.51	382.1	12804.6
1104.61	382	12821.7
1104.71	381.9	12787.1
1104.81	381.8	12751
1104.91	381.7	12786
1105.01	381.6	12733.4
1105.11	381.5	12672.7
1105.21	381.4	12637.4
1105.31	381.3	12532.2
1105.41	381.2	12506.8
1105.51	381.1	12498.7
1105.61	381	12545.7
1105.71	380.9	12434.1
1105.81	380.8	12379.5
1105.91	380.7	12416.2
1106.01	380.6	12234.2
1106.11	380.5	12181.2
1106.21	380.4	12240.5
1106.31	380.3	12099.4
1106.41	380.2	12012.6
1106.51	380.1	11948.9
1106.61	380	11970.2
1106.71	379.9	12014.9
1106.81	379.8	11964.7
1106.91	379.7	11988.6
1107.01	379.6	11942
1107.11	379.5	11980.2
1107.21	379.4	11869.1
1107.31	379.3	12004.6
1107.41	379.2	12086.4
1107.51	379.1	12045.9
1107.61	379	12163.1
1107.71	378.9	12226.8
1107.81	378.8	12202.6
1107.91	378.7	12475.9
1108.01	378.6	12657.9
1108.11	378.5	12918.5
1108.21	378.4	13065.1
1108.31	378.3	13454.1
1108.41	378.2	13848.3
1108.51	378.1	14217.2
1108.61	378	14376.2
1108.71	377.9	14487.4
1108.81	377.8	14476.9
1108.91	377.7	14198.5
1109.01	377.6	13971
1109.11	377.5	13620.1
1109.21	377.4	13269.2
1109.31	377.3	12926.3
1109.41	377.2	12767.7
1109.51	377.1	12583.3
1109.61	377	12455
1109.71	376.9	12516.9
1109.81	376.8	12608.5
1109.91	376.7	12752.6
1110.01	376.6	12846.3
1110.11	376.5	12970.4
1110.21	376.4	13181.5
1110.31	376.3	13497.4
1110.41	376.2	13712.2
1110.51	376.1	13974.9
1110.61	376	14301.1
1110.71	375.9	14813.6
1110.81	375.8	15157.1
1110.91	375.7	15685.7
1111.01	375.6	16367.5
1111.11	375.5	17276.1
1111.21	375.4	18360.5
1111.31	375.3	19602.7
1111.41	375.2	21665.9
1111.51	375.1	24508.5
1111.61	375	28695.3
1111.71	374.9	35094.6
1111.81	374.8	44604.8
1111.91	374.7	58151.7
1112.01	374.6	75929.8
1112.11	374.5	96526.6
1112.21	374.4	116877
1112.31	374.3	132056
1112.41	374.2	137178
1112.51	374.1	130046
1112.61	374	112838
1112.71	373.9	90548.2
1112.81	373.8	67587.2
1112.91	373.7	49184.1
1113.01	373.6	36585.5
1113.11	373.5	27822.6
1113.21	373.4	22147.1
1113.31	373.3	18243.2
1113.41	373.2	15548
1113.51	373.1	13888.1
1113.61	373	12563.3
1113.71	372.9	11905.5
1113.81	372.8	11517
1113.91	372.7	11323.9
1114.01	372.6	11183.4
1114.11	372.5	11252.5
1114.21	372.4	11320.4
1114.31	372.3	11669.2
1114.41	372.2	12018.3
1114.51	372.1	12313.5
1114.61	372	12428.7
1114.71	371.9	12490.8
1114.81	371.8	12340.6
1114.91	371.7	11908.9
1115.01	371.6	11311.4
1115.11	371.5	10684.7
1115.21	371.4	10140.8
1115.31	371.3	9546.63
1115.41	371.2	9153.61
1115.51	371.1	8813.84
1115.61	371	8650.77
1115.71	370.9	8609.99
1115.81	370.8	8641.44
1115.91	370.7	8652
1116.01	370.6	8793.43
1116.11	370.5	9036.99
1116.21	370.4	9159.42
1116.31	370.3	9550.71
1116.41	370.2	9966.95
1116.51	370.1	10362.7
1116.61	370	10910.3
1116.71	369.9	11441.4
1116.81	369.8	12262.2
1116.91	369.7	13074.6
1117.01	369.6	14064
1117.11	369.5	15469.2
1117.21	369.4	17123.1
1117.31	369.3	19291.5
1117.41	369.2	22170.8
1117.51	369.1	26439.9
1117.61	369	32918.8
1117.71	368.9	42087.4
1117.81	368.8	55848.6
1117.91	368.7	75192.1
1118.01	368.6	100784
1118.11	368.5	130095
1118.21	368.4	159531
1118.31	368.3	181541
1118.41	368.2	188405
1118.51	368.1	177928
1118.61	368	154292
1118.71	367.9	122566
1118.81	367.8	89988.2
1118.91	367.7	63324
1119.01	367.6	44783.5
1119.11	367.5	32203.6
1119.21	367.4	23799.8
1119.31	367.3	17858.6
1119.41	367.2	13629.9
1119.51	367.1	10807.3
1119.61	367	9015.76
1119.71	366.9	7643.75
1119.81	366.8	6651.07
1119.91	366.7	5982.95
1120.01	366.6	5410.13
1120.11	366.5	4982.65
1120.21	366.4	4696.85
1120.31	366.3	4351.06
1120.41	366.2	4073.39
1120.51	366.1	3900.61
1120.61	366	3703.03
1120.71	365.9	3531.75
1120.81	365.8	3410.86
1120.91	365.7	3268.45
1121.01	365.6	3178.43
1121.11	365.5	3121.12
1121.21	365.4	3003.25
1121.31	365.3	2905.54
1121.41	365.2	2826.4
1121.51	365.1	2802.01
1121.61	365	2711.3
1121.71	364.9	2615.36
1121.81	364.8	2557.97
1121.91	364.7	2498.98
1122.01	364.6	2455.7
1122.11	364.5	2438.28
1122.21	364.4	2391.6
1122.31	364.3	2399.6
1122.41	364.2	2342.87
1122.51	364.1	2259.42
1122.61	364	2230.75
1122.71	363.9	2273.17
1122.81	363.8	2244.74
1122.91	363.7	2162.71
1123.01	363.6	2195.85
1123.11	363.5	2166.34
1123.21	363.4	2154.7
1123.31	363.3	2105.48
1123.41	363.2	2086.99
1123.51	363.1	2125.63
1123.61	363	2094.03
1123.71	362.9	2032.52
1123.81	362.8	2055.35
1123.91	362.7	2089.91
1124.01	362.6	2087.45
1124.11	362.5	2051.55
1124.21	362.4	2031.25
1124.31	362.3	2022.55
1124.41	362.2	2004.98
1124.51	362.1	1993.06
1124.61	362	1967.18
1124.71	361.9	1934.07
1124.81	361.8	1948.63
1124.91	361.7	1921.07
1125.01	361.6	1875.19
1125.11	361.5	1922.62
1125.21	361.4	1897.32
1125.31	361.3	1866.72
1125.41	361.2	1861.13
1125.51	361.1	1891.74
1125.61	361	1874.08
1125.71	360.9	1890.93
1125.81	360.8	1842.94
1125.91	360.7	1825.9
1126.01	360.6	1847.46
1126.11	360.5	1860.85
1126.21	360.4	1857.19
1126.31	360.3	1851.06
1126.41	360.2	1848.66
1126.51	360.1	1820.22
1126.61	360	1858.19
1126.71	359.9	1853.57
1126.81	359.8	1818.09
1126.91	359.7	1828.08
1127.01	359.6	1820.76
1127.11	359.5	1838.09
1127.21	359.4	1813.68
1127.31	359.3	1791.92
1127.41	359.2	1842.33
1127.51	359.1	1851.28
1127.61	359	1817.79
1127.71	358.9	1777.4
1127.81	358.8	1782.53
1127.91	358.7	1823.06
1128.01	358.6	1805.07
1128.11	358.5	1807.6
1128.21	358.4	1815.63
1128.31	358.3	1802.89
1128.41	358.2	1809.12
1128.51	358.1	1807.97
1128.61	358	1790.48
1128.71	357.9	1821.86
1128.81	357.8	1804.86
1128.91	357.7	1767.41
1129.01	357.6	1773.64
1129.11	357.5	1806.63
1129.21	357.4	1820.96
1129.31	357.3	1824.65
1129.41	357.2	1806.61
1129.51	357.1	1784.44
1129.61	357	1783.74
1129.71	356.9	1809.96
1129.81	356.8	1774.71
1129.91	356.7	1732.3
1130.01	356.6	1772.67
1130.11	356.5	1797.88
1130.21	356.4	1744.61
1130.31	356.3	1737.49
1130.41	356.2	1751.97
1130.51	356.1	1739.44
1130.61	356	1769.56
1130.71	355.9	1794.26
1130.81	355.8	1763.14
1130.91	355.7	1743.32
1131.01	355.6	1759.67
1131.11	355.5	1737.58
1131.21	355.4	1748.69
1131.31	355.3	1775.14
1131.41	355.2	1774.91
1131.51	355.1	1763.51
1131.61	355	1760.1
1131.71	354.9	1764.29
1131.81	354.8	1782.65
1131.91	354.7	1753.15
1132.01	354.6	1772.24
1132.11	354.5	1755.33
1132.21	354.4	1801.37
1132.31	354.3	1754.03
1132.41	354.2	1764.46
1132.51	354.1	1768.6
1132.61	354	1748.8
1132.71	353.9	1760.11
1132.81	353.8	1764.35
1132.91	353.7	1780.13
1133.01	353.6	1747.84
1133.11	353.5	1745.92
1133.21	353.4	1777.32
1133.31	353.3	1777.49
1133.41	353.2	1779.09
1133.51	353.1	1746.64
1133.61	353	1730.79
1133.71	352.9	1754.73
1133.81	352.8	1735.94
1133.91	352.7	1734.29
1134.01	352.6	1724.93
1134.11	352.5	1744.22
1134.21	352.4	1771.98
1134.31	352.3	1746.63
1134.41	352.2	1745.38
1134.51	352.1	1732.34
1134.61	352	1705.07
1134.71	351.9	1750.2
1134.81	351.8	1762.37
1134.91	351.7	1763.03
1135.01	351.6	1763.68
1135.11	351.5	1780.48
1135.21	351.4	1720.04
1135.31	351.3	1755.86
1135.41	351.2	1757.76
1135.51	351.1	1729.05
1135.61	351	1746.76
1135.71	350.9	1756.81
1135.81	350.8	1725.94
1135.91	350.7	1766.5
1136.01	350.6	1761.5
1136.11	350.5	1748.84
1136.21	350.4	1763.88
1136.31	350.3	1762.07
1136.41	350.2	1774.35
1136.51	350.1	1772.54
1136.61	350	1758.25