C:\Users\Mark\ownCloud\Muelheim Group\Projects\Gas phase background\EX321_CEC356_Au Ag and Cu in O2_clean.vms
Ag3d
	Characteristic Energy eV	1486.61	Acquisition Time s	0.9
KE_Ag3d	BE_Ag3d	CPS_Ag3d
1036.61	450	5249
1036.71	449.9	5158.13
1036.81	449.8	5208.43
1036.91	449.7	5216.17
1037.01	449.6	5225.92
1037.11	449.5	5227.64
1037.21	449.4	5210.44
1037.31	449.3	5222.86
1037.41	449.2	5198.86
1037.51	449.1	5221.16
1037.61	449	5142.19
1037.71	448.9	5174.45
1037.81	448.8	5238.64
1037.91	448.7	5189.46
1038.01	448.6	5120.1
1038.11	448.5	5146.26
1038.21	448.4	5206.16
1038.31	448.3	5228.07
1038.41	448.2	5212.17
1038.51	448.1	5192.01
1038.61	448	5182.28
1038.71	447.9	5142.85
1038.81	447.8	5180.36
1038.91	447.7	5232.43
1039.01	447.6	5215.35
1039.11	447.5	5171.16
1039.21	447.4	5185.47
1039.31	447.3	5182.91
1039.41	447.2	5116.35
1039.51	447.1	5179.18
1039.61	447	5196.43
1039.71	446.9	5176.79
1039.81	446.8	5229.53
1039.91	446.7	5209.57
1040.01	446.6	5213.61
1040.11	446.5	5243.55
1040.21	446.4	5206.04
1040.31	446.3	5213.09
1040.41	446.2	5243.75
1040.51	446.1	5222.19
1040.61	446	5212.07
1040.71	445.9	5284.98
1040.81	445.8	5269.81
1040.91	445.7	5200.09
1041.01	445.6	5238.62
1041.11	445.5	5223.46
1041.21	445.4	5182.97
1041.31	445.3	5185.71
1041.41	445.2	5236.28
1041.51	445.1	5289.12
1041.61	445	5246.41
1041.71	444.9	5215.54
1041.81	444.8	5231.62
1041.91	444.7	5227.85
1042.01	444.6	5240.08
1042.11	444.5	5278.39
1042.21	444.4	5268.88
1042.31	444.3	5187.86
1042.41	444.2	5217.63
1042.51	444.1	5176.81
1042.61	444	5169.26
1042.71	443.9	5219.16
1042.81	443.8	5223.89
1042.91	443.7	5305.88
1043.01	443.6	5255.46
1043.11	443.5	5165.77
1043.21	443.4	5268.73
1043.31	443.3	5211.38
1043.41	443.2	5184
1043.51	443.1	5256.16
1043.61	443	5248.1
1043.71	442.9	5232.01
1043.81	442.8	5210.92
1043.91	442.7	5163.25
1044.01	442.6	5248.44
1044.11	442.5	5217.95
1044.21	442.4	5256.11
1044.31	442.3	5210.86
1044.41	442.2	5159.91
1044.51	442.1	5218.61
1044.61	442	5256.19
1044.71	441.9	5213.01
1044.81	441.8	5220.58
1044.91	441.7	5243.79
1045.01	441.6	5238.26
1045.11	441.5	5243.32
1045.21	441.4	5288.17
1045.31	441.3	5296.82
1045.41	441.2	5223.75
1045.51	441.1	5213.3
1045.61	441	5253.87
1045.71	440.9	5281.17
1045.81	440.8	5251.19
1045.91	440.7	5196.3
1046.01	440.6	5212.73
1046.11	440.5	5214.35
1046.21	440.4	5263.47
1046.31	440.3	5298.51
1046.41	440.2	5282.26
1046.51	440.1	5238.42
1046.61	440	5248.3
1046.71	439.9	5180.45
1046.81	439.8	5229.48
1046.91	439.7	5241.67
1047.01	439.6	5240.3
1047.11	439.5	5210.24
1047.21	439.4	5250.23
1047.31	439.3	5183.31
1047.41	439.2	5261.02
1047.51	439.1	5269.44
1047.61	439	5222.43
1047.71	438.9	5214.65
1047.81	438.8	5298.61
1047.91	438.7	5252.85
1048.01	438.6	5283.08
1048.11	438.5	5236.79
1048.21	438.4	5217.38
1048.31	438.3	5278.16
1048.41	438.2	5206.75
1048.51	438.1	5256.88
1048.61	438	5197.88
1048.71	437.9	5235.71
1048.81	437.8	5280.55
1048.91	437.7	5189.52
1049.01	437.6	5204.1
1049.11	437.5	5257.62
1049.21	437.4	5219.92
1049.31	437.3	5211.39
1049.41	437.2	5279.08
1049.51	437.1	5276.25
1049.61	437	5252.7
1049.71	436.9	5239.92
1049.81	436.8	5274.42
1049.91	436.7	5246.21
1050.01	436.6	5267.69
1050.11	436.5	5260.27
1050.21	436.4	5230.92
1050.31	436.3	5259.48
1050.41	436.2	5242.86
1050.51	436.1	5245.93
1050.61	436	5273.14
1050.71	435.9	5269.4
1050.81	435.8	5262.13
1050.91	435.7	5288.72
1051.01	435.6	5254.27
1051.11	435.5	5253.56
1051.21	435.4	5231.62
1051.31	435.3	5251.74
1051.41	435.2	5251.38
1051.51	435.1	5248.87
1051.61	435	5198.04
1051.71	434.9	5240.05
1051.81	434.8	5240.1
1051.91	434.7	5267.12
1052.01	434.6	5279.78
1052.11	434.5	5314.16
1052.21	434.4	5264.56
1052.31	434.3	5201.69
1052.41	434.2	5275.82
1052.51	434.1	5252.69
1052.61	434	5253.52
1052.71	433.9	5189.62
1052.81	433.8	5236.21
1052.91	433.7	5246.83
1053.01	433.6	5320.7
1053.11	433.5	5320.98
1053.21	433.4	5263.82
1053.31	433.3	5286.56
1053.41	433.2	5303.53
1053.51	433.1	5250.69
1053.61	433	5218.21
1053.71	432.9	5315.7
1053.81	432.8	5276.54
1053.91	432.7	5282.72
1054.01	432.6	5318.27
1054.11	432.5	5333.84
1054.21	432.4	5308.06
1054.31	432.3	5255.67
1054.41	432.2	5286.49
1054.51	432.1	5288.6
1054.61	432	5273.38
1054.71	431.9	5311.34
1054.81	431.8	5301.55
1054.91	431.7	5305.59
1055.01	431.6	5287.64
1055.11	431.5	5306.55
1055.21	431.4	5314.55
1055.31	431.3	5322.36
1055.41	431.2	5302.27
1055.51	431.1	5245.39
1055.61	431	5236.35
1055.71	430.9	5250.97
1055.81	430.8	5299.62
1055.91	430.7	5287.8
1056.01	430.6	5353.09
1056.11	430.5	5307.6
1056.21	430.4	5299.51
1056.31	430.3	5292.11
1056.41	430.2	5333.47
1056.51	430.1	5325.45
1056.61	430	5306.63
1056.71	429.9	5309.72
1056.81	429.8	5284.87
1056.91	429.7	5371.99
1057.01	429.6	5265.48
1057.11	429.5	5287.61
1057.21	429.4	5289.88
1057.31	429.3	5328.17
1057.41	429.2	5331.89
1057.51	429.1	5337.55
1057.61	429	5370.99
1057.71	428.9	5332.97
1057.81	428.8	5332.99
1057.91	428.7	5303.99
1058.01	428.6	5318.41
1058.11	428.5	5337.04
1058.21	428.4	5318.75
1058.31	428.3	5320.15
1058.41	428.2	5320.33
1058.51	428.1	5313.06
1058.61	428	5247.3
1058.71	427.9	5338.5
1058.81	427.8	5347.58
1058.91	427.7	5376.31
1059.01	427.6	5359.62
1059.11	427.5	5374.35
1059.21	427.4	5302.78
1059.31	427.3	5327.75
1059.41	427.2	5307.19
1059.51	427.1	5294.6
1059.61	427	5339.17
1059.71	426.9	5336.08
1059.81	426.8	5308.74
1059.91	426.7	5304.69
1060.01	426.6	5326.21
1060.11	426.5	5350.88
1060.21	426.4	5360.91
1060.31	426.3	5382.3
1060.41	426.2	5380.65
1060.51	426.1	5230.79
1060.61	426	5340.82
1060.71	425.9	5411.05
1060.81	425.8	5334.33
1060.91	425.7	5267.15
1061.01	425.6	5297.24
1061.11	425.5	5334.35
1061.21	425.4	5330.41
1061.31	425.3	5275.53
1061.41	425.2	5332.79
1061.51	425.1	5373.66
1061.61	425	5341.01
1061.71	424.9	5361.59
1061.81	424.8	5353.29
1061.91	424.7	5322.08
1062.01	424.6	5344.44
1062.11	424.5	5340.34
1062.21	424.4	5368.42
1062.31	424.3	5360.96
1062.41	424.2	5327.69
1062.51	424.1	5390.47
1062.61	424	5404.1
1062.71	423.9	5326.81
1062.81	423.8	5314.18
1062.91	423.7	5416.76
1063.01	423.6	5371.25
1063.11	423.5	5374.17
1063.21	423.4	5349.11
1063.31	423.3	5411.12
1063.41	423.2	5399.38
1063.51	423.1	5359.19
1063.61	423	5364.19
1063.71	422.9	5328.55
1063.81	422.8	5376.64
1063.91	422.7	5411.17
1064.01	422.6	5361.44
1064.11	422.5	5393.01
1064.21	422.4	5409.59
1064.31	422.3	5370.38
1064.41	422.2	5413.31
1064.51	422.1	5344.35
1064.61	422	5433.48
1064.71	421.9	5444.21
1064.81	421.8	5379.08
1064.91	421.7	5331.16
1065.01	421.6	5382.79
1065.11	421.5	5445.37
1065.21	421.4	5412.82
1065.31	421.3	5373.24
1065.41	421.2	5377.87
1065.51	421.1	5388.13
1065.61	421	5358.9
1065.71	420.9	5363.7
1065.81	420.8	5374.86
1065.91	420.7	5349.91
1066.01	420.6	5368.82
1066.11	420.5	5397.1
1066.21	420.4	5425
1066.31	420.3	5374.59
1066.41	420.2	5329.66
1066.51	420.1	5367.29
1066.61	420	5375.08
1066.71	419.9	5365.12
1066.81	419.8	5381.84
1066.91	419.7	5359.35
1067.01	419.6	5410.75
1067.11	419.5	5418.4
1067.21	419.4	5370.13
1067.31	419.3	5389.91
1067.41	419.2	5337.24
1067.51	419.1	5283.82
1067.61	419	5350.58
1067.71	418.9	5386.79
1067.81	418.8	5348.33
1067.91	418.7	5380.65
1068.01	418.6	5353.79
1068.11	418.5	5410.68
1068.21	418.4	5401.09
1068.31	418.3	5330.51
1068.41	418.2	5328.11
1068.51	418.1	5313.88
1068.61	418	5363.18
1068.71	417.9	5438.99
1068.81	417.8	5423.46
1068.91	417.7	5420.06
1069.01	417.6	5428.38
1069.11	417.5	5382.82
1069.21	417.4	5458.66
1069.31	417.3	5419.29
1069.41	417.2	5346.19
1069.51	417.1	5393.84
1069.61	417	5441.75
1069.71	416.9	5344.26
1069.81	416.8	5400.89
1069.91	416.7	5460.15
1070.01	416.6	5441.46
1070.11	416.5	5454.4
1070.21	416.4	5413.58
1070.31	416.3	5455.57
1070.41	416.2	5405.7
1070.51	416.1	5434.22
1070.61	416	5417.38
1070.71	415.9	5391.54
1070.81	415.8	5346.45
1070.91	415.7	5344.18
1071.01	415.6	5373.18
1071.11	415.5	5358.59
1071.21	415.4	5367.23
1071.31	415.3	5408.09
1071.41	415.2	5365.52
1071.51	415.1	5420.74
1071.61	415	5388.16
1071.71	414.9	5375.85
1071.81	414.8	5413.26
1071.91	414.7	5419.96
1072.01	414.6	5453
1072.11	414.5	5467.26
1072.21	414.4	5330.31
1072.31	414.3	5388.36
1072.41	414.2	5371.55
1072.51	414.1	5413.61
1072.61	414	5378.27
1072.71	413.9	5416.97
1072.81	413.8	5464.92
1072.91	413.7	5433.92
1073.01	413.6	5429.78
1073.11	413.5	5440.08
1073.21	413.4	5428.43
1073.31	413.3	5404.02
1073.41	413.2	5448.42
1073.51	413.1	5378.15
1073.61	413	5355.72
1073.71	412.9	5353.14
1073.81	412.8	5395.87
1073.91	412.7	5464.33
1074.01	412.6	5469.71
1074.11	412.5	5471.76
1074.21	412.4	5433.21
1074.31	412.3	5378.39
1074.41	412.2	5419.6
1074.51	412.1	5425.19
1074.61	412	5481.54
1074.71	411.9	5440.61
1074.81	411.8	5405.58
1074.91	411.7	5373.97
1075.01	411.6	5364.92
1075.11	411.5	5448.51
1075.21	411.4	5406.68
1075.31	411.3	5400.88
1075.41	411.2	5471.93
1075.51	411.1	5462.78
1075.61	411	5418.47
1075.71	410.9	5411.23
1075.81	410.8	5417.15
1075.91	410.7	5400.07
1076.01	410.6	5397.19
1076.11	410.5	5377.45
1076.21	410.4	5404.22
1076.31	410.3	5466.58
1076.41	410.2	5387.45
1076.51	410.1	5426.21
1076.61	410	5426.97
1076.71	409.9	5458.86
1076.81	409.8	5462.89
1076.91	409.7	5459.32
1077.01	409.6	5432.27
1077.11	409.5	5446.41
1077.21	409.4	5434.75
1077.31	409.3	5434.65
1077.41	409.2	5408.66
1077.51	409.1	5404.85
1077.61	409	5414.53
1077.71	408.9	5436.06
1077.81	408.8	5468.66
1077.91	408.7	5494.4
1078.01	408.6	5480.24
1078.11	408.5	5472.01
1078.21	408.4	5448.6
1078.31	408.3	5429.15
1078.41	408.2	5468.99
1078.51	408.1	5457.35
1078.61	408	5438.33
1078.71	407.9	5488.48
1078.81	407.8	5499.62
1078.91	407.7	5454.8
1079.01	407.6	5433.16
1079.11	407.5	5440.36
1079.21	407.4	5471.17
1079.31	407.3	5428.64
1079.41	407.2	5434.58
1079.51	407.1	5477.96
1079.61	407	5445.4
1079.71	406.9	5477.13
1079.81	406.8	5502.39
1079.91	406.7	5465.24
1080.01	406.6	5414.69
1080.11	406.5	5380.57
1080.21	406.4	5453.53
1080.31	406.3	5441.68
1080.41	406.2	5518.01
1080.51	406.1	5475.85
1080.61	406	5500.34
1080.71	405.9	5472.37
1080.81	405.8	5451.22
1080.91	405.7	5494.45
1081.01	405.6	5464.95
1081.11	405.5	5493.32
1081.21	405.4	5482.47
1081.31	405.3	5486.45
1081.41	405.2	5484.31
1081.51	405.1	5430.87
1081.61	405	5480.01
1081.71	404.9	5444.67
1081.81	404.8	5486.46
1081.91	404.7	5440.7
1082.01	404.6	5439.55
1082.11	404.5	5447.71
1082.21	404.4	5517.42
1082.31	404.3	5524.96
1082.41	404.2	5482.11
1082.51	404.1	5476.16
1082.61	404	5498.77
1082.71	403.9	5488.68
1082.81	403.8	5434.8
1082.91	403.7	5492.86
1083.01	403.6	5473.48
1083.11	403.5	5508.57
1083.21	403.4	5499.69
1083.31	403.3	5508.77
1083.41	403.2	5488.87
1083.51	403.1	5488.81
1083.61	403	5504.51
1083.71	402.9	5502.67
1083.81	402.8	5583.2
1083.91	402.7	5589.14
1084.01	402.6	5522.92
1084.11	402.5	5510.72
1084.21	402.4	5491.65
1084.31	402.3	5461.43
1084.41	402.2	5514.43
1084.51	402.1	5542.74
1084.61	402	5509.26
1084.71	401.9	5562.87
1084.81	401.8	5571
1084.91	401.7	5571.56
1085.01	401.6	5625.71
1085.11	401.5	5533.33
1085.21	401.4	5544.82
1085.31	401.3	5552.18
1085.41	401.2	5622.38
1085.51	401.1	5609.84
1085.61	401	5606.57
1085.71	400.9	5593.81
1085.81	400.8	5610.11
1085.91	400.7	5568.1
1086.01	400.6	5647.26
1086.11	400.5	5694.28
1086.21	400.4	5631.27
1086.31	400.3	5585.82
1086.41	400.2	5565.24
1086.51	400.1	5614.24
1086.61	400	5649.88
1086.71	399.9	5636.65
1086.81	399.8	5607.36
1086.91	399.7	5710.83
1087.01	399.6	5694.31
1087.11	399.5	5677.81
1087.21	399.4	5582.38
1087.31	399.3	5649.48
1087.41	399.2	5634.57
1087.51	399.1	5628.78
1087.61	399	5662.68
1087.71	398.9	5665.89
1087.81	398.8	5647.56
1087.91	398.7	5667.41
1088.01	398.6	5667.15
1088.11	398.5	5682.79
1088.21	398.4	5676.35
1088.31	398.3	5692.14
1088.41	398.2	5644.46
1088.51	398.1	5674.42
1088.61	398	5667.89
1088.71	397.9	5697.1
1088.81	397.8	5682.18
1088.91	397.7	5678.16
1089.01	397.6	5659.42
1089.11	397.5	5695.01
1089.21	397.4	5689.78
1089.31	397.3	5689.47
1089.41	397.2	5621.46
1089.51	397.1	5681.74
1089.61	397	5635.78
1089.71	396.9	5644.8
1089.81	396.8	5722.37
1089.91	396.7	5750.85
1090.01	396.6	5699.96
1090.11	396.5	5646.83
1090.21	396.4	5569.69
1090.31	396.3	5681.36
1090.41	396.2	5750.14
1090.51	396.1	5656
1090.61	396	5667.22
1090.71	395.9	5651.45
1090.81	395.8	5662.56
1090.91	395.7	5610.81
1091.01	395.6	5725.41
1091.11	395.5	5698.83
1091.21	395.4	5650.6
1091.31	395.3	5692.82
1091.41	395.2	5704.4
1091.51	395.1	5711.28
1091.61	395	5708.98
1091.71	394.9	5699.9
1091.81	394.8	5713.68
1091.91	394.7	5768.78
1092.01	394.6	5830.21
1092.11	394.5	5811.3
1092.21	394.4	5799.44
1092.31	394.3	5838.49
1092.41	394.2	5821.3
1092.51	394.1	5820.68
1092.61	394	5798.39
1092.71	393.9	5871.14
1092.81	393.8	5847.51
1092.91	393.7	5840.06
1093.01	393.6	5849.8
1093.11	393.5	5822.31
1093.21	393.4	5823.11
1093.31	393.3	5850.14
1093.41	393.2	5843.3
1093.51	393.1	5806.87
1093.61	393	5851.22
1093.71	392.9	5870.33
1093.81	392.8	5822.88
1093.91	392.7	5792.81
1094.01	392.6	5739.08
1094.11	392.5	5816.19
1094.21	392.4	5819.04
1094.31	392.3	5776.59
1094.41	392.2	5729.65
1094.51	392.1	5873.22
1094.61	392	5900.17
1094.71	391.9	5847.39
1094.81	391.8	5927.68
1094.91	391.7	5997.86
1095.01	391.6	5919.43
1095.11	391.5	5853.7
1095.21	391.4	5855.73
1095.31	391.3	5924.23
1095.41	391.2	5943.29
1095.51	391.1	5896.57
1095.61	391	5925.11
1095.71	390.9	5883.02
1095.81	390.8	5810.96
1095.91	390.7	5767.22
1096.01	390.6	5791.43
1096.11	390.5	5714.92
1096.21	390.4	5726.14
1096.31	390.3	5758.86
1096.41	390.2	5798.03
1096.51	390.1	5828.02
1096.61	390	5783.94
1096.71	389.9	5793.28
1096.81	389.8	5788.6
1096.91	389.7	5790.12
1097.01	389.6	5702.87
1097.11	389.5	5692.26
1097.21	389.4	5712.49
1097.31	389.3	5651.46
1097.41	389.2	5557.37
1097.51	389.1	5515.25
1097.61	389	5515.84
1097.71	388.9	5534.02
1097.81	388.8	5469.13
1097.91	388.7	5434.69
1098.01	388.6	5399.67
1098.11	388.5	5407.3
1098.21	388.4	5406.35
1098.31	388.3	5361.69
1098.41	388.2	5305.76
1098.51	388.1	5317.79
1098.61	388	5309.5
1098.71	387.9	5352.34
1098.81	387.8	5390.45
1098.91	387.7	5358.61
1099.01	387.6	5368.32
1099.11	387.5	5298.67
1099.21	387.4	5345.44
1099.31	387.3	5371.89
1099.41	387.2	5333.85
1099.51	387.1	5396.98
1099.61	387	5350
1099.71	386.9	5294.81
1099.81	386.8	5234.41
1099.91	386.7	5145.85
1100.01	386.6	5034.91
1100.11	386.5	5029.34
1100.21	386.4	4983.19
1100.31	386.3	5007.38
1100.41	386.2	4947.36
1100.51	386.1	4959.16
1100.61	386	5012.44
1100.71	385.9	5068.89
1100.81	385.8	5054.19
1100.91	385.7	5055.13
1101.01	385.6	5069.72
1101.11	385.5	5069.53
1101.21	385.4	5092.78
1101.31	385.3	5092.91
1101.41	385.2	4971.56
1101.51	385.1	5021.1
1101.61	385	5020.97
1101.71	384.9	4944.27
1101.81	384.8	4926.31
1101.91	384.7	4897.19
1102.01	384.6	4945.88
1102.11	384.5	4926.31
1102.21	384.4	4889.08
1102.31	384.3	4991.5
1102.41	384.2	5006.05
1102.51	384.1	4964.55
1102.61	384	5071.02
1102.71	383.9	5030.59
1102.81	383.8	5113.3
1102.91	383.7	5174.82
1103.01	383.6	5201.7
1103.11	383.5	5279.56
1103.21	383.4	5335.84
1103.31	383.3	5438.62
1103.41	383.2	5392.4
1103.51	383.1	5289.76
1103.61	383	5377.14
1103.71	382.9	5427.76
1103.81	382.8	5433.44
1103.91	382.7	5316.58
1104.01	382.6	5186.47
1104.11	382.5	5157.28
1104.21	382.4	5060.43
1104.31	382.3	4971.16
1104.41	382.2	4932.37
1104.51	382.1	4815.57
1104.61	382	4702.21
1104.71	381.9	4694.58
1104.81	381.8	4633.17
1104.91	381.7	4491.15
1105.01	381.6	4462.25
1105.11	381.5	4381.07
1105.21	381.4	4335.34
1105.31	381.3	4229.08
1105.41	381.2	4264.03
1105.51	381.1	4235
1105.61	381	4118.65
1105.71	380.9	4076.1
1105.81	380.8	3978.89
1105.91	380.7	3943.55
1106.01	380.6	3864.13
1106.11	380.5	3786.64
1106.21	380.4	3737.02
1106.31	380.3	3642.41
1106.41	380.2	3680.95
1106.51	380.1	3592.97
1106.61	380	3624.74
1106.71	379.9	3623.31
1106.81	379.8	3568.69
1106.91	379.7	3506.83
1107.01	379.6	3512.31
1107.11	379.5	3545.4
1107.21	379.4	3518.52
1107.31	379.3	3485.24
1107.41	379.2	3552.01
1107.51	379.1	3570.81
1107.61	379	3626.12
1107.71	378.9	3664.24
1107.81	378.8	3660.75
1107.91	378.7	3711.77
1108.01	378.6	3768.32
1108.11	378.5	3768.84
1108.21	378.4	3918.37
1108.31	378.3	4035.29
1108.41	378.2	4117.9
1108.51	378.1	4226.71
1108.61	378	4285.83
1108.71	377.9	4309.06
1108.81	377.8	4360.12
1108.91	377.7	4300.44
1109.01	377.6	4311.1
1109.11	377.5	4384.32
1109.21	377.4	4388.47
1109.31	377.3	4481.67
1109.41	377.2	4592.22
1109.51	377.1	4687.43
1109.61	377	4731.67
1109.71	376.9	4851.36
1109.81	376.8	4829.02
1109.91	376.7	4877.34
1110.01	376.6	4839.22
1110.11	376.5	4809.55
1110.21	376.4	4799.53
1110.31	376.3	4850.46
1110.41	376.2	4801.89
1110.51	376.1	4736.29
1110.61	376	4650.18
1110.71	375.9	4625.6
1110.81	375.8	4640.43
1110.91	375.7	4708.05
1111.01	375.6	4772.46
1111.11	375.5	4902.29
1111.21	375.4	5155.01
1111.31	375.3	5381.96
1111.41	375.2	5826.63
1111.51	375.1	6384.9
1111.61	375	7396.17
1111.71	374.9	8939.47
1111.81	374.8	11334.9
1111.91	374.7	14585.9
1112.01	374.6	18827.3
1112.11	374.5	23754.7
1112.21	374.4	28683.7
1112.31	374.3	32377.7
1112.41	374.2	33412.9
1112.51	374.1	31766.4
1112.61	374	27565.7
1112.71	373.9	22191.1
1112.81	373.8	16792.7
1112.91	373.7	12428.6
1113.01	373.6	9336.51
1113.11	373.5	7394.9
1113.21	373.4	6022.68
1113.31	373.3	4995.11
1113.41	373.2	4343.36
1113.51	373.1	3867.96
1113.61	373	3521.44
1113.71	372.9	3313.52
1113.81	372.8	3194.35
1113.91	372.7	3179.35
1114.01	372.6	3150.86
1114.11	372.5	3139.35
1114.21	372.4	3215.2
1114.31	372.3	3251.34
1114.41	372.2	3354
1114.51	372.1	3412.63
1114.61	372	3415.89
1114.71	371.9	3407.01
1114.81	371.8	3375.98
1114.91	371.7	3284.2
1115.01	371.6	3207.62
1115.11	371.5	3067.97
1115.21	371.4	2890.56
1115.31	371.3	2749.52
1115.41	371.2	2657.57
1115.51	371.1	2566.84
1115.61	371	2566.9
1115.71	370.9	2530.96
1115.81	370.8	2507.6
1115.91	370.7	2480.81
1116.01	370.6	2542.98
1116.11	370.5	2636.92
1116.21	370.4	2666.01
1116.31	370.3	2713.66
1116.41	370.2	2815.28
1116.51	370.1	2936.14
1116.61	370	3042.07
1116.71	369.9	3193.4
1116.81	369.8	3357.31
1116.91	369.7	3557.54
1117.01	369.6	3863.39
1117.11	369.5	4179.98
1117.21	369.4	4530.09
1117.31	369.3	5065.28
1117.41	369.2	5789.72
1117.51	369.1	6893.28
1117.61	369	8487.23
1117.71	368.9	10638.8
1117.81	368.8	14004
1117.91	368.7	18753.8
1118.01	368.6	24918.9
1118.11	368.5	32148.6
1118.21	368.4	39297.1
1118.31	368.3	44381.1
1118.41	368.2	46105.3
1118.51	368.1	43432
1118.61	368	37569.8
1118.71	367.9	30043.6
1118.81	367.8	22262.8
1118.91	367.7	15935
1119.01	367.6	11562.3
1119.11	367.5	8552.21
1119.21	367.4	6448.59
1119.31	367.3	4945.13
1119.41	367.2	3933.66
1119.51	367.1	3172.8
1119.61	367	2655.87
1119.71	366.9	2330.29
1119.81	366.8	2092.34
1119.91	366.7	1869.48
1120.01	366.6	1749.67
1120.11	366.5	1653.92
1120.21	366.4	1567.82
1120.31	366.3	1514.78
1120.41	366.2	1423.24
1120.51	366.1	1377.66
1120.61	366	1360.03
1120.71	365.9	1294.85
1120.81	365.8	1271.22
1120.91	365.7	1231.54
1121.01	365.6	1224.37
1121.11	365.5	1207.97
1121.21	365.4	1145.24
1121.31	365.3	1142.46
1121.41	365.2	1121.02
1121.51	365.1	1111.28
1121.61	365	1102.49
1121.71	364.9	1075.15
1121.81	364.8	1077.34
1121.91	364.7	1047.07
1122.01	364.6	1054.69
1122.11	364.5	1035.51
1122.21	364.4	1018.68
1122.31	364.3	1011.01
1122.41	364.2	990.325
1122.51	364.1	982.243
1122.61	364	985.419
1122.71	363.9	975.155
1122.81	363.8	983.704
1122.91	363.7	968.992
1123.01	363.6	938.52
1123.11	363.5	928.539
1123.21	363.4	966.488
1123.31	363.3	949.678
1123.41	363.2	952.556
1123.51	363.1	924.262
1123.61	363	911.577
1123.71	362.9	907.241
1123.81	362.8	946.721
1123.91	362.7	956.755
1124.01	362.6	938.801
1124.11	362.5	930.027
1124.21	362.4	948.601
1124.31	362.3	941.011
1124.41	362.2	913.706
1124.51	362.1	929.568
1124.61	362	919.316
1124.71	361.9	923.686
1124.81	361.8	911.055
1124.91	361.7	920.091
1125.01	361.6	870.712
1125.11	361.5	881.674
1125.21	361.4	890.59
1125.31	361.3	895.207
1125.41	361.2	882.486
1125.51	361.1	906.256
1125.61	361	897.071
1125.71	360.9	892.343
1125.81	360.8	864.646
1125.91	360.7	876.139
1126.01	360.6	884.591
1126.11	360.5	899.861
1126.21	360.4	882.857
1126.31	360.3	870.512
1126.41	360.2	856.173
1126.51	360.1	849.199
1126.61	360	878.266
1126.71	359.9	881.373
1126.81	359.8	866.031
1126.91	359.7	884.009
1127.01	359.6	880.762
1127.11	359.5	895.538
1127.21	359.4	887.055
1127.31	359.3	878.026
1127.41	359.2	866.149
1127.51	359.1	831.17
1127.61	359	869.636
1127.71	358.9	878.371
1127.81	358.8	890.349
1127.91	358.7	861.654
1128.01	358.6	888.032
1128.11	358.5	853.798
1128.21	358.4	849.712
1128.31	358.3	847.705
1128.41	358.2	877.313
1128.51	358.1	878.141
1128.61	358	893.653
1128.71	357.9	894.386
1128.81	357.8	874.343
1128.91	357.7	865.278
1129.01	357.6	853.554
1129.11	357.5	890.964
1129.21	357.4	859.319
1129.31	357.3	873.364
1129.41	357.2	854.02
1129.51	357.1	884.082
1129.61	357	875.751
1129.71	356.9	862.826
1129.81	356.8	868.641
1129.91	356.7	862.616
1130.01	356.6	878.155
1130.11	356.5	887.184
1130.21	356.4	878.313
1130.31	356.3	874.774
1130.41	356.2	868.165
1130.51	356.1	857.749
1130.61	356	856.696
1130.71	355.9	877.593
1130.81	355.8	867.473
1130.91	355.7	880.971
1131.01	355.6	865.22
1131.11	355.5	871.666
1131.21	355.4	883.757
1131.31	355.3	882.109
1131.41	355.2	865.832
1131.51	355.1	883.989
1131.61	355	870.156
1131.71	354.9	855.038
1131.81	354.8	850.106
1131.91	354.7	863.376
1132.01	354.6	848.598
1132.11	354.5	861.492
1132.21	354.4	851.808
1132.31	354.3	866.727
1132.41	354.2	866.998
1132.51	354.1	852.625
1132.61	354	874.072
1132.71	353.9	869.542
1132.81	353.8	843.938
1132.91	353.7	853.431
1133.01	353.6	851.102
1133.11	353.5	872.738
1133.21	353.4	883.348
1133.31	353.3	859.368
1133.41	353.2	856.924
1133.51	353.1	868.636
1133.61	353	866.432
1133.71	352.9	835.497
1133.81	352.8	836.556
1133.91	352.7	830.855
1134.01	352.6	888.557
1134.11	352.5	875.895
1134.21	352.4	877.441
1134.31	352.3	877.986
1134.41	352.2	873.877
1134.51	352.1	887.867
1134.61	352	899.25
1134.71	351.9	878.288
1134.81	351.8	884.098
1134.91	351.7	862.584
1135.01	351.6	861.25
1135.11	351.5	842.216
1135.21	351.4	878.619
1135.31	351.3	886.758
1135.41	351.2	871.161
1135.51	351.1	887.508
1135.61	351	880.236
1135.71	350.9	871.526
1135.81	350.8	866.058
1135.91	350.7	830.495
1136.01	350.6	850.131
1136.11	350.5	873.055
1136.21	350.4	846.392
1136.31	350.3	841.78
1136.41	350.2	847.14
1136.51	350.1	860.117
1136.61	350	855.225