C:\Users\Mark\ownCloud\Muelheim Group\Projects\Gas phase background\EX321_CEC356_Au Ag and Cu in O2_clean.vms
Ag3p
	Characteristic Energy eV	1486.61	Acquisition Time s	0.1
KE_Ag3p	BE_Ag3p	CPS_Ag3p	Background_Ag3p
641.61	845	8665.64	8665.64
642.11	844.5	8785.44	8785.44
642.61	844	8729.23	8729.23
643.11	843.5	8582.08	8582.08
643.61	843	8838.53	8838.53
644.11	842.5	8738.32	8738.32
644.61	842	9007.95	9007.95
645.11	841.5	8880.55	8880.55
645.61	841	8556.01	8556.01
646.11	840.5	8834.63	8834.63
646.61	840	8940.06	8940.06
647.11	839.5	9016.05	9016.05
647.61	839	9073.72	9073.72
648.11	838.5	8957.89	8957.89
648.61	838	9051.76	9051.76
649.11	837.5	9145.74	9145.74
649.61	837	8942.02	8942.02
650.11	836.5	8910.62	8910.62
650.61	836	9363.56	9363.56
651.11	835.5	9189.1	9189.1
651.61	835	9131.22	9131.22
652.11	834.5	9022.54	9022.54
652.61	834	9083.32	9083.32
653.11	833.5	8935.97	8935.97
653.61	833	8968.97	8968.97
654.11	832.5	8992.48	8992.48
654.61	832	8955.97	8955.97
655.11	831.5	9359.16	9359.16
655.61	831	9393.26	9393.26
656.11	830.5	9264.93	9264.93
656.61	830	9070.46	9070.46
657.11	829.5	9296.66	9296.66
657.61	829	9516.78	9516.78
658.11	828.5	9241.62	9241.62
658.61	828	9185.37	9185.37
659.11	827.5	9190.34	9190.34
659.61	827	9289.51	9289.51
660.11	826.5	9451.78	9451.78
660.61	826	9422.56	9422.56
661.11	825.5	9474.33	9474.33
661.61	825	9470.63	9470.63
662.11	824.5	9337.58	9337.58
662.61	824	9137.31	9137.31
663.11	823.5	9233.25	9233.25
663.61	823	9295.66	9295.66
664.11	822.5	9524.44	9524.44
664.61	822	9361.61	9361.61
665.11	821.5	9468.48	9468.48
665.61	821	9418.94	9418.94
666.11	820.5	9543.49	9543.49
666.61	820	9544.04	9544.04
667.11	819.5	9762.02	9762.02
667.61	819	9518.03	9518.03
668.11	818.5	9733.97	9733.97
668.61	818	9529.81	9529.81
669.11	817.5	9613.18	9613.18
669.61	817	9848.76	9848.76
670.11	816.5	9735.98	9735.98
670.61	816	9692.94	9692.94
671.11	815.5	9632.4	9632.4
671.61	815	9904.49	9904.49
672.11	814.5	9673.04	9673.04
672.61	814	9770.85	9770.85
673.11	813.5	9752.4	9752.4
673.61	813	10019.5	10019.5
674.11	812.5	10032.5	10032.5
674.61	812	10138.2	10138.2
675.11	811.5	9860.95	9860.95
675.61	811	9888.94	9888.94
676.11	810.5	9931.46	9931.46
676.61	810	9849.47	9849.47
677.11	809.5	9745.22	9745.22
677.61	809	9858.5	9858.5
678.11	808.5	9966.77	9966.77
678.61	808	10117.4	10117.4
679.11	807.5	9992.19	9992.19
679.61	807	10123.7	10123.7
680.11	806.5	10087.2	10087.2
680.61	806	9837.18	9837.18
681.11	805.5	10020	10020
681.61	805	10070.1	10070.1
682.11	804.5	10029.7	10029.7
682.61	804	9967.87	9967.87
683.11	803.5	9940.33	9940.33
683.61	803	10078	10078
684.11	802.5	10147.7	10147.7
684.61	802	10119.5	10119.5
685.11	801.5	10338.6	10338.6
685.61	801	10267	10267
686.11	800.5	10274.5	10274.5
686.61	800	10058.2	10058.2
687.11	799.5	10441.2	10441.2
687.61	799	10214.2	10214.2
688.11	798.5	10465.5	10465.5
688.61	798	10463.2	10463.2
689.11	797.5	10499.3	10499.3
689.61	797	10544.2	10544.2
690.11	796.5	10418.4	10418.4
690.61	796	10654.3	10654.3
691.11	795.5	10528.6	10528.6
691.61	795	10439.6	10439.6
692.11	794.5	10685.8	10685.8
692.61	794	10391.6	10391.6
693.11	793.5	10253.5	10253.5
693.61	793	10319.7	10319.7
694.11	792.5	10299.7	10299.7
694.61	792	10401.5	10401.5
695.11	791.5	10453.6	10453.6
695.61	791	10564.3	10564.3
696.11	790.5	10612.5	10612.5
696.61	790	10642.9	10642.9
697.11	789.5	10733.6	10733.6
697.61	789	10757.4	10757.4
698.11	788.5	10399.5	10399.5
698.61	788	10622.6	10622.6
699.11	787.5	10786.8	10786.8
699.61	787	10751.5	10751.5
700.11	786.5	10637.1	10637.1
700.61	786	10856.1	10856.1
701.11	785.5	10886.1	10886.1
701.61	785	10821.4	10821.4
702.11	784.5	10647.5	10647.5
702.61	784	10811.4	10811.4
703.11	783.5	10748.7	10748.7
703.61	783	10765.7	10765.7
704.11	782.5	10775.3	10775.3
704.61	782	10675.3	10675.3
705.11	781.5	10985.8	10985.8
705.61	781	10968.3	10968.3
706.11	780.5	10854.1	10854.1
706.61	780	10909.1	10909.1
707.11	779.5	11178.2	11178.2
707.61	779	10775	10775
708.11	778.5	11199.5	11199.5
708.61	778	11150.9	11150.9
709.11	777.5	10973.8	10973.8
709.61	777	10918.9	10918.9
710.11	776.5	10941	10941
710.61	776	10838.7	10838.7
711.11	775.5	10928.6	10928.6
711.61	775	11293	11293
712.11	774.5	11197.9	11197.9
712.61	774	11138.3	11138.3
713.11	773.5	11351.6	11351.6
713.61	773	11341.2	11341.2
714.11	772.5	11329.3	11329.3
714.61	772	11262	11262
715.11	771.5	11222.5	11222.5
715.61	771	11390.2	11390.2
716.11	770.5	11157.1	11157.1
716.61	770	11203	11203
717.11	769.5	11190.3	11190.3
717.61	769	11545.3	11545.3
718.11	768.5	11345.7	11345.7
718.61	768	11364.3	11364.3
719.11	767.5	11235.1	11235.1
719.61	767	11531.8	11531.8
720.11	766.5	11485.8	11485.8
720.61	766	11330.2	11330.2
721.11	765.5	11200.1	11200.1
721.61	765	11547.1	11547.1
722.11	764.5	11559.8	11559.8
722.61	764	11718.9	11718.9
723.11	763.5	11671.4	11671.4
723.61	763	11520.5	11520.5
724.11	762.5	11439.4	11439.4
724.61	762	11497.8	11497.8
725.11	761.5	11615.4	11615.4
725.61	761	11566.9	11566.9
726.11	760.5	11556.3	11556.3
726.61	760	11549.9	11549.9
727.11	759.5	11751.8	11751.8
727.61	759	11578.3	11578.3
728.11	758.5	11576.4	11576.4
728.61	758	11757.5	11757.5
729.11	757.5	11829.4	11829.4
729.61	757	11851.4	11851.4
730.11	756.5	11693.1	11693.1
730.61	756	11674.5	11674.5
731.11	755.5	11634.3	11634.3
731.61	755	11661.5	11661.5
732.11	754.5	11698.7	11698.7
732.61	754	11611.8	11611.8
733.11	753.5	11940.7	11940.7
733.61	753	11911.7	11911.7
734.11	752.5	11798.2	11798.2
734.61	752	11928.6	11928.6
735.11	751.5	11925.9	11925.9
735.61	751	11776.5	11776.5
736.11	750.5	12012.7	12012.7
736.61	750	12140.2	12140.2
737.11	749.5	11999.1	11999.1
737.61	749	12143.5	12143.5
738.11	748.5	12091.7	12091.7
738.61	748	11916.2	11916.2
739.11	747.5	11982.4	11982.4
739.61	747	12157.1	12157.1
740.11	746.5	12273.4	12273.4
740.61	746	11983.1	11983.1
741.11	745.5	12239.5	12239.5
741.61	745	12275.1	12275.1
742.11	744.5	11945.7	11945.7
742.61	744	12112.3	12112.3
743.11	743.5	12243	12243
743.61	743	12415	12415
744.11	742.5	12263.8	12263.8
744.61	742	12098.4	12098.4
745.11	741.5	12267.8	12267.8
745.61	741	12527.1	12527.1
746.11	740.5	12316.7	12316.7
746.61	740	12261.1	12261.1
747.11	739.5	12319.9	12319.9
747.61	739	12553	12553
748.11	738.5	12691.8	12691.8
748.61	738	12432.8	12432.8
749.11	737.5	12554.8	12554.8
749.61	737	12634.5	12634.5
750.11	736.5	12506.4	12506.4
750.61	736	12468	12468
751.11	735.5	12576.3	12576.3
751.61	735	12375.4	12375.4
752.11	734.5	12455.5	12455.5
752.61	734	12457.6	12457.6
753.11	733.5	12367.4	12367.4
753.61	733	12574.4	12574.4
754.11	732.5	12392.7	12392.7
754.61	732	12424.7	12424.7
755.11	731.5	12635.6	12635.6
755.61	731	12502.4	12502.4
756.11	730.5	12450	12450
756.61	730	12303	12303
757.11	729.5	12276.4	12276.4
757.61	729	12258.8	12258.8
758.11	728.5	12439.5	12439.5
758.61	728	12429.4	12429.4
759.11	727.5	12526.2	12526.2
759.61	727	12665.3	12665.3
760.11	726.5	12505.4	12505.4
760.61	726	12836.5	12836.5
761.11	725.5	12748.5	12748.5
761.61	725	12895.6	12895.6
762.11	724.5	12565.6	12565.6
762.61	724	12873.2	12873.2
763.11	723.5	13195	13195
763.61	723	13250.6	13250.6
764.11	722.5	13284.2	13284.2
764.61	722	13336.6	13336.6
765.11	721.5	13500.4	13500.4
765.61	721	13934.5	13934.5
766.11	720.5	13884.6	13884.6
766.61	720	13710.5	13710.5
767.11	719.5	13718.9	13718.9
767.61	719	13974.8	13974.8
768.11	718.5	13454.8	13454.8
768.61	718	13508.6	13508.6
769.11	717.5	13330.4	13330.4
769.61	717	13352.1	13352.1
770.11	716.5	13374.2	13374.2
770.61	716	13410.3	13410.3
771.11	715.5	13407.1	13407.1
771.61	715	13038.4	13038.4
772.11	714.5	12754.8	12754.8
772.61	714	12624.5	12624.5
773.11	713.5	12718.2	12718.2
773.61	713	12648.3	12648.3
774.11	712.5	12547.5	12547.5
774.61	712	12384.6	12384.6
775.11	711.5	12257.8	12257.8
775.61	711	12283.2	12283.2
776.11	710.5	12361.9	12361.9
776.61	710	12253.7	12253.7
777.11	709.5	12350.2	12350.2
777.61	709	12306.2	12306.2
778.11	708.5	12149.1	12149.1
778.61	708	11993.1	11993.1
779.11	707.5	12182.3	12182.3
779.61	707	12022.6	12022.6
780.11	706.5	11976	11976
780.61	706	12051.2	12051.2
781.11	705.5	12049.8	12049.8
781.61	705	12007.2	12007.2
782.11	704.5	11663.2	11663.2
782.61	704	11971.8	11971.8
783.11	703.5	12190.7	12190.7
783.61	703	12029.9	12029.9
784.11	702.5	12190.8	12190.8
784.61	702	12068.6	12068.6
785.11	701.5	11898.7	11898.7
785.61	701	11878	11878
786.11	700.5	11934.6	11934.6
786.61	700	12009.9	12009.9
787.11	699.5	11877.6	11877.6
787.61	699	11956.1	11956.1
788.11	698.5	12099.7	12099.7
788.61	698	11991.5	11991.5
789.11	697.5	12103.1	12103.1
789.61	697	12131.4	12131.4
790.11	696.5	12100	12100
790.61	696	11633.9	11633.9
791.11	695.5	11950.8	11950.8
791.61	695	12017.5	12017.5
792.11	694.5	12173.7	12173.7
792.61	694	12210.2	12210.2
793.11	693.5	12280.8	12280.8
793.61	693	12181.9	12181.9
794.11	692.5	12184.6	12184.6
794.61	692	12373.5	12373.5
795.11	691.5	12092.5	12092.5
795.61	691	11939.7	11939.7
796.11	690.5	12300.3	12300.3
796.61	690	12275.1	12275.1
797.11	689.5	12145.8	12145.8
797.61	689	12484.5	12484.5
798.11	688.5	12421	12421
798.61	688	12136.5	12136.5
799.11	687.5	12388.4	12388.4
799.61	687	12384.8	12384.8
800.11	686.5	12429.9	12429.9
800.61	686	12429.3	12429.3
801.11	685.5	12306.9	12306.9
801.61	685	12369	12369
802.11	684.5	12463.7	12463.7
802.61	684	12458.4	12458.4
803.11	683.5	12451.4	12451.4
803.61	683	12526.2	12526.2
804.11	682.5	12345.7	12345.7
804.61	682	12425.9	12425.9
805.11	681.5	12722.7	12722.7
805.61	681	12450	12450
806.11	680.5	12392.8	12392.8
806.61	680	12448.3	12448.3
807.11	679.5	12739	12739
807.61	679	12743.8	12743.8
808.11	678.5	12998.8	12998.8
808.61	678	12909.2	12909.2
809.11	677.5	12695.6	12695.6
809.61	677	12672.5	12672.5
810.11	676.5	12565.4	12565.4
810.61	676	12709.4	12709.4
811.11	675.5	12647.4	12647.4
811.61	675	12556.1	12556.1
812.11	674.5	12395.5	12395.5
812.61	674	12393.7	12393.7
813.11	673.5	12702.8	12702.8
813.61	673	12920	12920
814.11	672.5	12912.8	12912.8
814.61	672	12932.1	12932.1
815.11	671.5	12988.4	12988.4
815.61	671	13055.9	13055.9
816.11	670.5	13059.7	13059.7
816.61	670	13045.7	13045.7
817.11	669.5	12619.5	12619.5
817.61	669	12712.8	12712.8
818.11	668.5	12988.4	12988.4
818.61	668	12967	12967
819.11	667.5	12844.2	12844.2
819.61	667	13022.8	13022.8
820.11	666.5	12934.3	12934.3
820.61	666	13130.3	13130.3
821.11	665.5	12989.7	12989.7
821.61	665	13171.5	13171.5
822.11	664.5	13105.7	13105.7
822.61	664	13188.9	13188.9
823.11	663.5	12951.1	12951.1
823.61	663	13277.8	13277.8
824.11	662.5	13479.9	13479.9
824.61	662	13382.2	13382.2
825.11	661.5	13210.3	13210.3
825.61	661	13167.4	13167.4
826.11	660.5	13229	13229
826.61	660	13251.2	13251.2
827.11	659.5	13131.1	13131.1
827.61	659	13403	13403
828.11	658.5	13332	13332
828.61	658	13485.6	13485.6
829.11	657.5	13483.7	13483.7
829.61	657	13523.7	13523.7
830.11	656.5	13485.3	13485.3
830.61	656	13429.9	13429.9
831.11	655.5	13442.2	13442.2
831.61	655	13475.4	13475.4
832.11	654.5	13495.1	13495.1
832.61	654	13418.8	13418.8
833.11	653.5	13293.6	13293.6
833.61	653	13413	13413
834.11	652.5	13516.5	13516.5
834.61	652	13310.5	13310.5
835.11	651.5	13332.5	13332.5
835.61	651	13451.9	13451.9
836.11	650.5	13518	13518
836.61	650	13736.8	13736.8
837.11	649.5	13754.3	13754.3
837.61	649	13699.8	13699.8
838.11	648.5	13515.3	13515.3
838.61	648	13909.1	13909.1
839.11	647.5	13848.2	13848.2
839.61	647	13560.5	13560.5
840.11	646.5	13500.5	13500.5
840.61	646	13487.1	13487.1
841.11	645.5	13801.8	13801.8
841.61	645	13772.5	13772.5
842.11	644.5	13939.6	13939.6
842.61	644	13902.6	13902.6
843.11	643.5	13535.3	13535.3
843.61	643	13854.6	13854.6
844.11	642.5	13849.7	13849.7
844.61	642	14096.8	14096.8
845.11	641.5	13841.2	13841.2
845.61	641	14062.4	14062.4
846.11	640.5	13698.4	13698.4
846.61	640	13927.7	13927.7
847.11	639.5	14303.3	14303.3
847.61	639	14063.9	14063.9
848.11	638.5	14023.1	14023.1
848.61	638	14036.4	14036.4
849.11	637.5	14097	14097
849.61	637	13915.9	13915.9
850.11	636.5	13783.2	13783.2
850.61	636	13860.5	13860.5
851.11	635.5	14067.3	14067.3
851.61	635	14268.3	14268.3
852.11	634.5	14100.5	14100.5
852.61	634	13836.4	13836.4
853.11	633.5	13953.3	13953.3
853.61	633	14165.2	14165.2
854.11	632.5	14305.5	14305.5
854.61	632	14212.5	14212.5
855.11	631.5	14207.4	14207.4
855.61	631	14230.9	14230.9
856.11	630.5	14142.8	14142.8
856.61	630	14238.1	14238.1
857.11	629.5	14567.8	14567.8
857.61	629	14620.1	14620.1
858.11	628.5	14341.8	14341.8
858.61	628	14110.4	14110.4
859.11	627.5	14482.2	14482.2
859.61	627	14366.2	14366.2
860.11	626.5	14318.3	14318.3
860.61	626	14366.9	14366.9
861.11	625.5	14440	14440
861.61	625	14592.1	14592.1
862.11	624.5	14558.1	14558.1
862.61	624	14457.2	14457.2
863.11	623.5	14527.9	14527.9
863.61	623	14384.4	14384.4
864.11	622.5	14644.5	14644.5
864.61	622	14437.7	14437.7
865.11	621.5	14437.5	14437.5
865.61	621	14851.4	14851.4
866.11	620.5	14702.8	14702.8
866.61	620	14438.2	14438.2
867.11	619.5	14262.1	14262.1
867.61	619	14005.9	14005.9
868.11	618.5	13739.4	13739.4
868.61	618	13936.4	13936.4
869.11	617.5	13851.4	13851.4
869.61	617	13994.4	13994.4
870.11	616.5	13817.5	13817.5
870.61	616	13604.7	13604.7
871.11	615.5	13632	13632
871.61	615	13543.3	13543.3
872.11	614.5	13834	13834
872.61	614	13956	13956
873.11	613.5	13747.9	13747.9
873.61	613	13694.1	13694.1
874.11	612.5	13679.8	13679.8
874.61	612	13857.2	13857.2
875.11	611.5	13804.8	13804.8
875.61	611	13762.6	13762.6
876.11	610.5	13795	13795
876.61	610	13717	13717
877.11	609.5	13780.6	13780.6
877.61	609	13859.9	13859.9
878.11	608.5	14010.3	14010.3
878.61	608	14434.4	14434.4
879.11	607.5	15081.1	15081.1
879.61	607	15682	15682
880.11	606.5	16712.7	16712.7
880.61	606	17690.9	17690.9
881.11	605.5	19648.2	19648.2
881.61	605	21338.2	21338.2
882.11	604.5	23131.2	23131.2
882.61	604	23890.7	23890.7
883.11	603.5	23345.9	23345.9
883.61	603	21564.3	21564.3
884.11	602.5	19737.7	19737.7
884.61	602	17219.4	17219.4
885.11	601.5	15710	15710
885.61	601	14690.9	14690.9
886.11	600.5	13716	13716
886.61	600	13381.6	13381.6
887.11	599.5	12946	12946
887.61	599	12678.5	12678.5
888.11	598.5	12075.7	12075.7
888.61	598	12181	12181
889.11	597.5	11762.7	11762.7
889.61	597	11625.8	11625.8
890.11	596.5	11864	11864
890.61	596	11927.8	11927.8
891.11	595.5	11587.1	11587.1
891.61	595	11562.8	11562.8
892.11	594.5	11604.4	11604.4
892.61	594	11275.6	11275.6
893.11	593.5	11702.7	11702.7
893.61	593	11354.8	11354.8
894.11	592.5	11418	11418
894.61	592	11285.5	11285.5
895.11	591.5	11494.7	11494.7
895.61	591	11380	11380
896.11	590.5	11142.5	11142.5
896.61	590	11075.6	11075.6
897.11	589.5	11173.5	11173.5
897.61	589	10765.4	10765.4
898.11	588.5	10518	10518
898.61	588	10241.1	10241.1
899.11	587.5	10181.6	10181.6
899.61	587	9803.64	9803.64
900.11	586.5	9591.1	9591.1
900.61	586	9371.51	9371.51
901.11	585.5	9192.67	9192.67
901.61	585	8712.96	8712.96
902.11	584.5	9052.92	9052.92
902.61	584	8920.23	8920.23
903.11	583.5	8896.58	8896.58
903.61	583	9102.26	9102.26
904.11	582.5	9057.75	9057.75
904.61	582	9469.97	9469.97
905.11	581.5	9316.98	9316.98
905.61	581	9070.27	9070.27
906.11	580.5	9066.65	9066.65
906.61	580	9013.06	9013.06
907.11	579.5	8920.79	8920.79
907.61	579	8670	8670
908.11	578.5	8896.79	8896.79
908.61	578	9576.69	9576.69
909.11	577.5	10121.4	10121.4
909.61	577	11131	11131
910.11	576.5	12169.6	12169.6
910.61	576	13778.2	13778.2
911.11	575.5	16042.5	16042.5
911.61	575	18668.8	18668.8
912.11	574.5	22661.8	22661.8
912.61	574	26323.3	26323.3
913.11	573.5	29325.5	29325.5
913.61	573	29990	29990
914.11	572.5	27852.6	27852.6
914.61	572	23799.4	23799.4
915.11	571.5	19377	19377
915.61	571	14903.4	14903.4
916.11	570.5	11657.8	11657.8
916.61	570	9776.35	9776.35
917.11	569.5	7840.78	7840.78
917.61	569	6703.07	6703.07
918.11	568.5	5757.07	5757.07
918.61	568	5100.68	5100.68
919.11	567.5	4647.2	4647.2
919.61	567	4373.27	4373.27
920.11	566.5	3958.69	3958.69
920.61	566	3691.33	3691.33
921.11	565.5	3270.91	3270.91
921.61	565	3215.16	3215.16
922.11	564.5	3243.47	3243.47
922.61	564	2973.18	2973.18
923.11	563.5	2918.1	2918.1
923.61	563	2888.05	2888.05
924.11	562.5	2811.95	2811.95
924.61	562	2786.01	2786.01
925.11	561.5	2607.83	2607.83
925.61	561	2689.09	2689.09
926.11	560.5	2846.11	2846.11
926.61	560	2660.01	2660.01
927.11	559.5	2510.36	2510.36
927.61	559	2284.61	2284.61
928.11	558.5	2328.65	2328.65
928.61	558	2168.15	2168.15
929.11	557.5	2332.82	2332.82
929.61	557	2088.98	2088.98
930.11	556.5	2554.19	2554.19
930.61	556	2354.99	2354.99
931.11	555.5	2341.49	2341.49
931.61	555	2178.95	2178.95
932.11	554.5	2010.69	2010.69
932.61	554	1721.6	1721.6
933.11	553.5	1816.12	1816.12
933.61	553	1372.59	1372.59
934.11	552.5	1773.42	1773.42
934.61	552	1839.1	1839.1
935.11	551.5	1510.24	1510.24
935.61	551	1539.16	1539.16
936.11	550.5	1912.7	1912.7
936.61	550	2220.79	2220.79
937.11	549.5	2176.76	2176.76
937.61	549	2554.38	2554.38
938.11	548.5	2784.04	2784.04
938.61	548	2956.04	2956.04
939.11	547.5	2754.38	2754.38
939.61	547	2843.71	2843.71
940.11	546.5	2447.26	2447.26
940.61	546	1891.25	1891.25
941.11	545.5	1199.33	1199.33
941.61	545	707.179	707.179
942.11	544.5	698.948	698.948
942.61	544	827.112	827.112
943.11	543.5	896.247	896.247
943.61	543	626.636	626.636
944.11	542.5	585.604	585.604
944.61	542	1055.61	1055.61
945.11	541.5	1595.47	1595.47
945.61	541	2908.39	2908.39
946.11	540.5	5197.81	5197.81
946.61	540	9261.72	9261.72
947.11	539.5	13076.5	13076.5
947.61	539	16477	16477
948.11	538.5	16134	16134
948.61	538	12405.3	12405.3
949.11	537.5	7648.98	7648.98
949.61	537	3229.26	3229.26
950.11	536.5	1239.3	1239.3
950.61	536	733.169	733.169
951.11	535.5	586.415	586.415
951.61	535	668.125	668.125
952.11	534.5	466.53	466.53
952.61	534	816.218	816.218
953.11	533.5	715.07	715.07
953.61	533	898.221	898.221
954.11	532.5	1035.39	1035.39
954.61	532	1415.21	1415.21
955.11	531.5	2251.04	2251.04
955.61	531	2914.55	2914.55
956.11	530.5	3142.54	3142.54
956.61	530	2764.45	2764.45
957.11	529.5	1840.52	1840.52
957.61	529	497.232	497.232
958.11	528.5	447.89	447.89
958.61	528	447.123	447.123
959.11	527.5	73.2098	73.2098
959.61	527	43.8779	43.8779
960.11	526.5	320.894	320.894
960.61	526	97.3191	97.3191
961.11	525.5	-127.822	-127.822
961.61	525	46.8256	46.8256
962.11	524.5	188.912	188.912
962.61	524	141.808	141.808
963.11	523.5	4.2258	4.2258
963.61	523	257.906	257.906
964.11	522.5	26.0768	26.0768
964.61	522	-296.745	-296.745
965.11	521.5	-82.5443	-82.5443
965.61	521	171.208	171.208
966.11	520.5	327.999	327.999
966.61	520	103.039	103.039
967.11	519.5	-57.5879	-57.5879
967.61	519	-237.746	-237.746
968.11	518.5	-84.9037	-84.9037
968.61	518	127.791	127.791
969.11	517.5	-54.99	-54.99
969.61	517	101.406	101.406
970.11	516.5	41.0671	41.0671
970.61	516	78.3253	78.3253
971.11	515.5	94.0069	94.0069
971.61	515	-67.6827	-67.6827
972.11	514.5	130.621	130.621
972.61	514	79.8512	79.8512
973.11	513.5	-133.596	-133.596
973.61	513	250.224	250.224
974.11	512.5	391.689	391.689
974.61	512	7.50415	7.50415
975.11	511.5	112.392	112.392
975.61	511	27.7524	27.7524
976.11	510.5	233.899	233.899
976.61	510	20.2386	20.2386
977.11	509.5	-48.0852	-48.0852
977.61	509	9.2356	9.2356
978.11	508.5	207.934	207.934
978.61	508	-6.5291	-6.5291
979.11	507.5	-54.3098	-54.3098
979.61	507	125.322	125.322
980.11	506.5	-77.1309	-77.1309
980.61	506	28.8113	28.8113
981.11	505.5	65.2855	65.2855
981.61	505	151.121	151.121
982.11	504.5	-58.8175	-58.8175
982.61	504	-80.8694	-80.8694
983.11	503.5	-30.1389	-30.1389
983.61	503	82.0869	82.0869
984.11	502.5	271.208	271.208
984.61	502	264.444	264.444
985.11	501.5	128.959	128.959
985.61	501	30.7418	30.7418
986.11	500.5	47.5481	47.5481
986.61	500	225.889	225.889
987.11	499.5	75.3213	75.3213
987.61	499	-173.531	-173.531
988.11	498.5	-11.3287	-11.3287