C:\Users\Mark\ownCloud\Muelheim Group\Projects\Gas phase background\EX321_CEC356_Au Ag and Cu in O2_clean.vms
Ag3p
	Characteristic Energy eV	1486.61	Acquisition Time s	0.1
KE_Ag3p	BE_Ag3p	CPS_Ag3p	Background_Ag3p
641.61	845	30992.7	30992.7
642.11	844.5	30974.5	30974.5
642.61	844	30772	30772
643.11	843.5	30951.4	30951.4
643.61	843	30857.1	30857.1
644.11	842.5	30948	30948
644.61	842	31166.4	31166.4
645.11	841.5	31226.9	31226.9
645.61	841	31080.8	31080.8
646.11	840.5	30851.8	30851.8
646.61	840	31348.8	31348.8
647.11	839.5	31392.7	31392.7
647.61	839	31256	31256
648.11	838.5	31266.2	31266.2
648.61	838	31223.9	31223.9
649.11	837.5	31063	31063
649.61	837	31082.8	31082.8
650.11	836.5	31454.4	31454.4
650.61	836	31288.1	31288.1
651.11	835.5	31668.8	31668.8
651.61	835	31618.7	31618.7
652.11	834.5	31106	31106
652.61	834	31703.1	31703.1
653.11	833.5	31974.7	31974.7
653.61	833	31611.7	31611.7
654.11	832.5	31203.3	31203.3
654.61	832	31712.3	31712.3
655.11	831.5	31808.8	31808.8
655.61	831	31753.9	31753.9
656.11	830.5	31806.9	31806.9
656.61	830	31753.1	31753.1
657.11	829.5	31753	31753
657.61	829	31864.9	31864.9
658.11	828.5	31471.6	31471.6
658.61	828	31619.3	31619.3
659.11	827.5	31997	31997
659.61	827	31727.1	31727.1
660.11	826.5	32057.8	32057.8
660.61	826	32159.7	32159.7
661.11	825.5	32040.2	32040.2
661.61	825	32045	32045
662.11	824.5	31982.6	31982.6
662.61	824	32003.9	32003.9
663.11	823.5	32040.3	32040.3
663.61	823	31814.2	31814.2
664.11	822.5	32142.6	32142.6
664.61	822	32048.1	32048.1
665.11	821.5	31948.6	31948.6
665.61	821	31554.8	31554.8
666.11	820.5	32098.5	32098.5
666.61	820	31983.8	31983.8
667.11	819.5	32228.8	32228.8
667.61	819	31978.4	31978.4
668.11	818.5	31865.5	31865.5
668.61	818	32384.8	32384.8
669.11	817.5	32223.8	32223.8
669.61	817	32093.9	32093.9
670.11	816.5	32010	32010
670.61	816	32750.8	32750.8
671.11	815.5	32715	32715
671.61	815	32567.5	32567.5
672.11	814.5	32160.5	32160.5
672.61	814	32604.5	32604.5
673.11	813.5	32649.6	32649.6
673.61	813	32175	32175
674.11	812.5	32551.9	32551.9
674.61	812	32366.9	32366.9
675.11	811.5	32277.9	32277.9
675.61	811	32399	32399
676.11	810.5	32450.3	32450.3
676.61	810	32410.3	32410.3
677.11	809.5	32770.9	32770.9
677.61	809	32541.4	32541.4
678.11	808.5	32526.9	32526.9
678.61	808	32772.9	32772.9
679.11	807.5	32708.1	32708.1
679.61	807	32989.2	32989.2
680.11	806.5	32923.2	32923.2
680.61	806	33139.6	33139.6
681.11	805.5	33022.3	33022.3
681.61	805	33058.1	33058.1
682.11	804.5	32820.9	32820.9
682.61	804	32945.2	32945.2
683.11	803.5	33275.9	33275.9
683.61	803	33416.8	33416.8
684.11	802.5	33158.3	33158.3
684.61	802	33286.5	33286.5
685.11	801.5	32744.1	32744.1
685.61	801	32874.7	32874.7
686.11	800.5	33239	33239
686.61	800	33033.9	33033.9
687.11	799.5	33220.8	33220.8
687.61	799	33305.8	33305.8
688.11	798.5	33328.1	33328.1
688.61	798	33205	33205
689.11	797.5	33252.9	33252.9
689.61	797	33321.2	33321.2
690.11	796.5	33540.6	33540.6
690.61	796	33539.9	33539.9
691.11	795.5	33741.8	33741.8
691.61	795	33917.9	33917.9
692.11	794.5	33610.8	33610.8
692.61	794	33282.3	33282.3
693.11	793.5	33499.2	33499.2
693.61	793	33247.4	33247.4
694.11	792.5	33724.7	33724.7
694.61	792	33875	33875
695.11	791.5	33535.9	33535.9
695.61	791	33715.5	33715.5
696.11	790.5	33861.3	33861.3
696.61	790	33556.1	33556.1
697.11	789.5	33774.1	33774.1
697.61	789	33741.9	33741.9
698.11	788.5	34186.9	34186.9
698.61	788	33666.8	33666.8
699.11	787.5	33727.6	33727.6
699.61	787	34026.2	34026.2
700.11	786.5	33833.2	33833.2
700.61	786	34066.9	34066.9
701.11	785.5	34001	34001
701.61	785	34011.4	34011.4
702.11	784.5	33795	33795
702.61	784	33873	33873
703.11	783.5	33980.5	33980.5
703.61	783	34032.7	34032.7
704.11	782.5	33926.5	33926.5
704.61	782	34022.9	34022.9
705.11	781.5	34169.6	34169.6
705.61	781	34179	34179
706.11	780.5	34512.2	34512.2
706.61	780	34231.7	34231.7
707.11	779.5	34420.5	34420.5
707.61	779	34624.3	34624.3
708.11	778.5	34536.6	34536.6
708.61	778	34513	34513
709.11	777.5	34711.7	34711.7
709.61	777	34880.6	34880.6
710.11	776.5	34262.3	34262.3
710.61	776	34310.8	34310.8
711.11	775.5	34192.3	34192.3
711.61	775	34698.1	34698.1
712.11	774.5	34597	34597
712.61	774	34189.1	34189.1
713.11	773.5	34444.1	34444.1
713.61	773	34434.4	34434.4
714.11	772.5	35078.7	35078.7
714.61	772	34952.3	34952.3
715.11	771.5	34917.3	34917.3
715.61	771	34860.3	34860.3
716.11	770.5	34752.8	34752.8
716.61	770	34484.3	34484.3
717.11	769.5	35063.8	35063.8
717.61	769	35536.4	35536.4
718.11	768.5	34932.7	34932.7
718.61	768	34924.2	34924.2
719.11	767.5	35005.9	35005.9
719.61	767	35050.6	35050.6
720.11	766.5	35111.6	35111.6
720.61	766	35365.3	35365.3
721.11	765.5	34991	34991
721.61	765	34986.1	34986.1
722.11	764.5	35011.5	35011.5
722.61	764	35138.3	35138.3
723.11	763.5	35008.1	35008.1
723.61	763	35170.1	35170.1
724.11	762.5	35257.5	35257.5
724.61	762	35349.6	35349.6
725.11	761.5	35517.9	35517.9
725.61	761	35339.6	35339.6
726.11	760.5	35466.5	35466.5
726.61	760	35552.5	35552.5
727.11	759.5	35635.9	35635.9
727.61	759	35821.6	35821.6
728.11	758.5	35605	35605
728.61	758	35918.8	35918.8
729.11	757.5	35885.2	35885.2
729.61	757	35581.2	35581.2
730.11	756.5	35846.5	35846.5
730.61	756	36084.6	36084.6
731.11	755.5	36007.7	36007.7
731.61	755	35964.9	35964.9
732.11	754.5	36429.6	36429.6
732.61	754	36397.3	36397.3
733.11	753.5	36557.7	36557.7
733.61	753	36707.1	36707.1
734.11	752.5	36650.5	36650.5
734.61	752	36683.5	36683.5
735.11	751.5	36514	36514
735.61	751	36917.7	36917.7
736.11	750.5	36662.4	36662.4
736.61	750	36918.5	36918.5
737.11	749.5	36924	36924
737.61	749	36821.6	36821.6
738.11	748.5	36835.7	36835.7
738.61	748	36991.3	36991.3
739.11	747.5	37072.3	37072.3
739.61	747	36876.4	36876.4
740.11	746.5	36478.7	36478.7
740.61	746	36968.3	36968.3
741.11	745.5	36915.4	36915.4
741.61	745	37465	37465
742.11	744.5	37392.4	37392.4
742.61	744	37482.5	37482.5
743.11	743.5	37710.9	37710.9
743.61	743	37500	37500
744.11	742.5	37469.1	37469.1
744.61	742	37495.1	37495.1
745.11	741.5	37767.6	37767.6
745.61	741	37452.1	37452.1
746.11	740.5	37142.1	37142.1
746.61	740	37497.1	37497.1
747.11	739.5	37977.2	37977.2
747.61	739	37837.9	37837.9
748.11	738.5	37990.9	37990.9
748.61	738	37903.6	37903.6
749.11	737.5	38099.5	38099.5
749.61	737	37921.7	37921.7
750.11	736.5	37958	37958
750.61	736	37775.6	37775.6
751.11	735.5	38220.6	38220.6
751.61	735	38041.5	38041.5
752.11	734.5	38200.6	38200.6
752.61	734	37818.5	37818.5
753.11	733.5	38284	38284
753.61	733	38642.2	38642.2
754.11	732.5	38383.3	38383.3
754.61	732	38584.4	38584.4
755.11	731.5	38754.8	38754.8
755.61	731	38732.8	38732.8
756.11	730.5	39217.2	39217.2
756.61	730	39099.9	39099.9
757.11	729.5	39113.8	39113.8
757.61	729	38799.3	38799.3
758.11	728.5	39543.9	39543.9
758.61	728	39519.8	39519.8
759.11	727.5	39562.1	39562.1
759.61	727	40096	40096
760.11	726.5	40180.3	40180.3
760.61	726	40388.6	40388.6
761.11	725.5	40971.8	40971.8
761.61	725	42050.3	42050.3
762.11	724.5	42006.1	42006.1
762.61	724	42454.1	42454.1
763.11	723.5	43210.2	43210.2
763.61	723	43956.8	43956.8
764.11	722.5	44519.8	44519.8
764.61	722	45443.4	45443.4
765.11	721.5	45918.8	45918.8
765.61	721	46411.4	46411.4
766.11	720.5	46881.1	46881.1
766.61	720	47446.6	47446.6
767.11	719.5	48127.1	48127.1
767.61	719	48288.4	48288.4
768.11	718.5	47747.7	47747.7
768.61	718	47276.7	47276.7
769.11	717.5	47540.5	47540.5
769.61	717	46227.6	46227.6
770.11	716.5	44931.9	44931.9
770.61	716	44567.4	44567.4
771.11	715.5	43306.6	43306.6
771.61	715	42939.6	42939.6
772.11	714.5	42100.7	42100.7
772.61	714	41395.7	41395.7
773.11	713.5	40318.2	40318.2
773.61	713	39683.9	39683.9
774.11	712.5	39208.4	39208.4
774.61	712	38576	38576
775.11	711.5	38321.4	38321.4
775.61	711	38214.3	38214.3
776.11	710.5	37564.8	37564.8
776.61	710	36960.9	36960.9
777.11	709.5	36818.6	36818.6
777.61	709	36185.5	36185.5
778.11	708.5	36525.7	36525.7
778.61	708	35910.2	35910.2
779.11	707.5	35379.6	35379.6
779.61	707	35206.9	35206.9
780.11	706.5	35427.2	35427.2
780.61	706	34785.6	34785.6
781.11	705.5	35173.1	35173.1
781.61	705	35055.3	35055.3
782.11	704.5	34774.3	34774.3
782.61	704	34793.4	34793.4
783.11	703.5	34836.5	34836.5
783.61	703	34462.4	34462.4
784.11	702.5	34461.6	34461.6
784.61	702	34549.1	34549.1
785.11	701.5	34427.6	34427.6
785.61	701	34238.6	34238.6
786.11	700.5	34096.4	34096.4
786.61	700	34443.6	34443.6
787.11	699.5	34488.8	34488.8
787.61	699	34930	34930
788.11	698.5	34254.4	34254.4
788.61	698	33590.9	33590.9
789.11	697.5	34077.6	34077.6
789.61	697	34446.3	34446.3
790.11	696.5	34332.4	34332.4
790.61	696	33752.5	33752.5
791.11	695.5	33996.6	33996.6
791.61	695	34327.1	34327.1
792.11	694.5	34536.2	34536.2
792.61	694	34079.7	34079.7
793.11	693.5	33926.8	33926.8
793.61	693	34529.6	34529.6
794.11	692.5	34129	34129
794.61	692	34469.5	34469.5
795.11	691.5	34334.1	34334.1
795.61	691	33989.7	33989.7
796.11	690.5	34267.5	34267.5
796.61	690	34395.1	34395.1
797.11	689.5	34630.8	34630.8
797.61	689	34904.3	34904.3
798.11	688.5	34585.2	34585.2
798.61	688	34655.4	34655.4
799.11	687.5	34583.1	34583.1
799.61	687	34797.1	34797.1
800.11	686.5	34681.8	34681.8
800.61	686	34711.8	34711.8
801.11	685.5	34737.6	34737.6
801.61	685	34473.8	34473.8
802.11	684.5	34362.6	34362.6
802.61	684	34571.1	34571.1
803.11	683.5	34766.8	34766.8
803.61	683	34583.1	34583.1
804.11	682.5	34578.5	34578.5
804.61	682	34735.6	34735.6
805.11	681.5	34481.5	34481.5
805.61	681	34978.5	34978.5
806.11	680.5	34946.1	34946.1
806.61	680	34642	34642
807.11	679.5	35082.3	35082.3
807.61	679	35322.4	35322.4
808.11	678.5	35373.7	35373.7
808.61	678	34852.1	34852.1
809.11	677.5	34579.7	34579.7
809.61	677	34779.7	34779.7
810.11	676.5	34845.6	34845.6
810.61	676	34952.7	34952.7
811.11	675.5	34938.6	34938.6
811.61	675	35065.9	35065.9
812.11	674.5	35117.9	35117.9
812.61	674	35122.1	35122.1
813.11	673.5	34889.4	34889.4
813.61	673	34919.3	34919.3
814.11	672.5	35080.1	35080.1
814.61	672	35087.6	35087.6
815.11	671.5	35040.9	35040.9
815.61	671	35231.4	35231.4
816.11	670.5	34984.4	34984.4
816.61	670	35187.2	35187.2
817.11	669.5	35360.6	35360.6
817.61	669	35474.8	35474.8
818.11	668.5	35544.3	35544.3
818.61	668	34872.6	34872.6
819.11	667.5	35641.2	35641.2
819.61	667	35521.5	35521.5
820.11	666.5	35521.1	35521.1
820.61	666	35384.3	35384.3
821.11	665.5	35548.5	35548.5
821.61	665	35430.4	35430.4
822.11	664.5	35586.9	35586.9
822.61	664	35877.4	35877.4
823.11	663.5	35628.8	35628.8
823.61	663	36159.6	36159.6
824.11	662.5	35991.4	35991.4
824.61	662	36244.4	36244.4
825.11	661.5	35762.1	35762.1
825.61	661	36070.2	36070.2
826.11	660.5	36441.8	36441.8
826.61	660	36337.2	36337.2
827.11	659.5	36159.4	36159.4
827.61	659	36051.4	36051.4
828.11	658.5	36176.3	36176.3
828.61	658	36349.4	36349.4
829.11	657.5	36412.3	36412.3
829.61	657	36259.9	36259.9
830.11	656.5	36509.2	36509.2
830.61	656	36661.7	36661.7
831.11	655.5	36498.8	36498.8
831.61	655	36260.6	36260.6
832.11	654.5	36712.5	36712.5
832.61	654	36742.2	36742.2
833.11	653.5	36401.4	36401.4
833.61	653	36457	36457
834.11	652.5	36431.2	36431.2
834.61	652	36540.9	36540.9
835.11	651.5	36649.9	36649.9
835.61	651	36580.3	36580.3
836.11	650.5	36506.9	36506.9
836.61	650	36525.7	36525.7
837.11	649.5	36822	36822
837.61	649	36960.1	36960.1
838.11	648.5	37076.5	37076.5
838.61	648	36679.2	36679.2
839.11	647.5	37044.8	37044.8
839.61	647	36888.3	36888.3
840.11	646.5	36740	36740
840.61	646	36740.6	36740.6
841.11	645.5	37273.2	37273.2
841.61	645	36750.3	36750.3
842.11	644.5	36931.7	36931.7
842.61	644	36648.5	36648.5
843.11	643.5	36849.2	36849.2
843.61	643	36582	36582
844.11	642.5	37520.6	37520.6
844.61	642	37420.4	37420.4
845.11	641.5	37308.1	37308.1
845.61	641	37578.2	37578.2
846.11	640.5	37850.6	37850.6
846.61	640	37916.4	37916.4
847.11	639.5	38087.5	38087.5
847.61	639	37906	37906
848.11	638.5	37957.5	37957.5
848.61	638	38143	38143
849.11	637.5	38031.7	38031.7
849.61	637	38293.3	38293.3
850.11	636.5	38417.4	38417.4
850.61	636	38433.4	38433.4
851.11	635.5	38311.2	38311.2
851.61	635	38367.3	38367.3
852.11	634.5	38872.9	38872.9
852.61	634	39197.7	39197.7
853.11	633.5	38644.1	38644.1
853.61	633	38953.6	38953.6
854.11	632.5	38574.3	38574.3
854.61	632	38721.9	38721.9
855.11	631.5	38953.8	38953.8
855.61	631	39628.4	39628.4
856.11	630.5	39041.9	39041.9
856.61	630	39676	39676
857.11	629.5	40280.6	40280.6
857.61	629	40214.2	40214.2
858.11	628.5	39996	39996
858.61	628	39917.8	39917.8
859.11	627.5	40331.3	40331.3
859.61	627	39700.5	39700.5
860.11	626.5	39832.2	39832.2
860.61	626	39832	39832
861.11	625.5	39804	39804
861.61	625	39726.4	39726.4
862.11	624.5	40029.8	40029.8
862.61	624	39654.4	39654.4
863.11	623.5	40469.2	40469.2
863.61	623	39957.3	39957.3
864.11	622.5	40328.8	40328.8
864.61	622	39719.6	39719.6
865.11	621.5	39571.8	39571.8
865.61	621	39873.4	39873.4
866.11	620.5	40095.5	40095.5
866.61	620	39664.2	39664.2
867.11	619.5	39811	39811
867.61	619	39967.2	39967.2
868.11	618.5	39450.3	39450.3
868.61	618	39757.8	39757.8
869.11	617.5	40344.5	40344.5
869.61	617	39632.5	39632.5
870.11	616.5	40066.9	40066.9
870.61	616	39964.9	39964.9
871.11	615.5	39470.1	39470.1
871.61	615	39627.2	39627.2
872.11	614.5	40048.1	40048.1
872.61	614	40055.4	40055.4
873.11	613.5	40288.3	40288.3
873.61	613	40550	40550
874.11	612.5	40842.9	40842.9
874.61	612	41773.6	41773.6
875.11	611.5	42032.6	42032.6
875.61	611	41732.7	41732.7
876.11	610.5	42913	42913
876.61	610	43218.3	43218.3
877.11	609.5	44248.4	44248.4
877.61	609	45395.9	45395.9
878.11	608.5	46630.6	46630.6
878.61	608	48985.6	48985.6
879.11	607.5	51654.8	51654.8
879.61	607	55187.7	55187.7
880.11	606.5	60142.8	60142.8
880.61	606	66996.5	66996.5
881.11	605.5	76702.6	76702.6
881.61	605	87227.7	87227.7
882.11	604.5	95439.7	95439.7
882.61	604	100468	100468
883.11	603.5	97592.4	97592.4
883.61	603	89233.8	89233.8
884.11	602.5	77597.5	77597.5
884.61	602	65886.3	65886.3
885.11	601.5	56993.1	56993.1
885.61	601	50584.9	50584.9
886.11	600.5	45793.9	45793.9
886.61	600	42329.1	42329.1
887.11	599.5	40237.4	40237.4
887.61	599	38863	38863
888.11	598.5	37760	37760
888.61	598	36299.6	36299.6
889.11	597.5	35647.3	35647.3
889.61	597	35116.3	35116.3
890.11	596.5	34536.1	34536.1
890.61	596	34433.4	34433.4
891.11	595.5	33685.6	33685.6
891.61	595	33393.1	33393.1
892.11	594.5	33357.2	33357.2
892.61	594	32822.7	32822.7
893.11	593.5	32364.6	32364.6
893.61	593	32739.9	32739.9
894.11	592.5	32521.4	32521.4
894.61	592	31968.8	31968.8
895.11	591.5	31632.5	31632.5
895.61	591	31833.8	31833.8
896.11	590.5	31713.4	31713.4
896.61	590	31710.2	31710.2
897.11	589.5	32058.5	32058.5
897.61	589	31349.2	31349.2
898.11	588.5	31135.5	31135.5
898.61	588	30748.7	30748.7
899.11	587.5	30785.1	30785.1
899.61	587	31178.5	31178.5
900.11	586.5	31003.7	31003.7
900.61	586	30919	30919
901.11	585.5	31141.5	31141.5
901.61	585	30656	30656
902.11	584.5	30581.2	30581.2
902.61	584	30173.4	30173.4
903.11	583.5	30587.8	30587.8
903.61	583	30657.5	30657.5
904.11	582.5	31093.7	31093.7
904.61	582	31407	31407
905.11	581.5	31410	31410
905.61	581	32312.6	32312.6
906.11	580.5	33038.5	33038.5
906.61	580	33452.9	33452.9
907.11	579.5	34753.9	34753.9
907.61	579	36189.4	36189.4
908.11	578.5	38462.3	38462.3
908.61	578	41054.8	41054.8
909.11	577.5	44036.3	44036.3
909.61	577	48413.5	48413.5
910.11	576.5	54397	54397
910.61	576	62409	62409
911.11	575.5	73589.3	73589.3
911.61	575	89446	89446
912.11	574.5	108622	108622
912.61	574	128425	128425
913.11	573.5	143191	143191
913.61	573	146313	146313
914.11	572.5	136765	136765
914.61	572	117133	117133
915.11	571.5	92964	92964
915.61	571	70970.3	70970.3
916.11	570.5	54366.9	54366.9
916.61	570	41744.4	41744.4
917.11	569.5	33713.3	33713.3
917.61	569	26935.9	26935.9
918.11	568.5	22228.6	22228.6
918.61	568	18770.7	18770.7
919.11	567.5	16047.1	16047.1
919.61	567	14212.5	14212.5
920.11	566.5	12725.5	12725.5
920.61	566	11002.7	11002.7
921.11	565.5	9930.2	9930.2
921.61	565	9010.36	9010.36
922.11	564.5	8286.57	8286.57
922.61	564	7662.38	7662.38
923.11	563.5	6956.67	6956.67
923.61	563	6937.45	6937.45
924.11	562.5	6438.17	6438.17
924.61	562	6364.89	6364.89
925.11	561.5	5728.33	5728.33
925.61	561	5692.57	5692.57
926.11	560.5	4938.22	4938.22
926.61	560	4518.8	4518.8
927.11	559.5	4615.11	4615.11
927.61	559	4312.49	4312.49
928.11	558.5	4464.67	4464.67
928.61	558	4527.86	4527.86
929.11	557.5	4462.01	4462.01
929.61	557	4309.63	4309.63
930.11	556.5	4065.11	4065.11
930.61	556	3814.55	3814.55
931.11	555.5	3678.74	3678.74
931.61	555	3506.8	3506.8
932.11	554.5	3498.19	3498.19
932.61	554	3445.23	3445.23
933.11	553.5	3302.1	3302.1
933.61	553	3479.08	3479.08
934.11	552.5	3252.04	3252.04
934.61	552	3254.4	3254.4
935.11	551.5	3115.11	3115.11
935.61	551	3141.67	3141.67
936.11	550.5	3099.23	3099.23
936.61	550	3123.6	3123.6
937.11	549.5	2932.52	2932.52
937.61	549	2982.2	2982.2
938.11	548.5	2963.16	2963.16
938.61	548	3013.36	3013.36
939.11	547.5	2565.39	2565.39
939.61	547	2635.85	2635.85
940.11	546.5	2874.9	2874.9
940.61	546	2772.39	2772.39
941.11	545.5	3095.05	3095.05
941.61	545	2980.32	2980.32
942.11	544.5	2512.5	2512.5
942.61	544	2252.86	2252.86
943.11	543.5	2135.55	2135.55
943.61	543	2558	2558
944.11	542.5	2461.02	2461.02
944.61	542	2440.76	2440.76
945.11	541.5	2127.86	2127.86
945.61	541	2423.41	2423.41
946.11	540.5	2631.41	2631.41
946.61	540	2413.14	2413.14
947.11	539.5	2247.19	2247.19
947.61	539	2619.08	2619.08
948.11	538.5	2242.35	2242.35
948.61	538	2222.88	2222.88
949.11	537.5	2076.3	2076.3
949.61	537	1919.08	1919.08
950.11	536.5	2124.1	2124.1
950.61	536	2184.15	2184.15
951.11	535.5	2394.72	2394.72
951.61	535	2469.03	2469.03
952.11	534.5	3002.29	3002.29
952.61	534	3208.78	3208.78
953.11	533.5	3324.25	3324.25
953.61	533	4289.73	4289.73
954.11	532.5	5555.04	5555.04
954.61	532	7726.55	7726.55
955.11	531.5	11356	11356
955.61	531	14189	14189
956.11	530.5	14981.3	14981.3
956.61	530	12579.7	12579.7
957.11	529.5	8512.63	8512.63
957.61	529	4730.2	4730.2
958.11	528.5	2078.68	2078.68
958.61	528	1318.68	1318.68
959.11	527.5	1041.5	1041.5
959.61	527	1211.7	1211.7
960.11	526.5	1137.62	1137.62
960.61	526	1084.93	1084.93
961.11	525.5	878.121	878.121
961.61	525	865.971	865.971
962.11	524.5	851.788	851.788
962.61	524	582.911	582.911
963.11	523.5	647.415	647.415
963.61	523	513.213	513.213
964.11	522.5	545.011	545.011
964.61	522	854.044	854.044
965.11	521.5	1239.88	1239.88
965.61	521	836.456	836.456
966.11	520.5	1028.62	1028.62
966.61	520	604.732	604.732
967.11	519.5	403.565	403.565
967.61	519	430.958	430.958
968.11	518.5	388.624	388.624
968.61	518	710.024	710.024
969.11	517.5	902.127	902.127
969.61	517	739.713	739.713
970.11	516.5	621.763	621.763
970.61	516	540.235	540.235
971.11	515.5	745.911	745.911
971.61	515	430.732	430.732
972.11	514.5	537.922	537.922
972.61	514	950.458	950.458
973.11	513.5	543.111	543.111
973.61	513	562.144	562.144
974.11	512.5	783.081	783.081
974.61	512	717.401	717.401
975.11	511.5	668.808	668.808
975.61	511	788.666	788.666
976.11	510.5	792.252	792.252
976.61	510	324.539	324.539
977.11	509.5	209.398	209.398
977.61	509	731.775	731.775
978.11	508.5	482.32	482.32
978.61	508	468.123	468.123
979.11	507.5	678.404	678.404
979.61	507	350.997	350.997
980.11	506.5	891.579	891.579
980.61	506	646.497	646.497
981.11	505.5	437.097	437.097
981.61	505	931.675	931.675
982.11	504.5	308.963	308.963
982.61	504	552.599	552.599
983.11	503.5	512.305	512.305
983.61	503	333.782	333.782
984.11	502.5	191.004	191.004
984.61	502	84.9704	84.9704
985.11	501.5	63.0359	63.0359
985.61	501	206.779	206.779
986.11	500.5	199.075	199.075
986.61	500	349.079	349.079
987.11	499.5	327.648	327.648
987.61	499	346.357	346.357
988.11	498.5	253.348	253.348