C:\Users\Mark\ownCloud\Muelheim Group\Projects\Gas phase background\EX321_CEC356_Au Ag and Cu in O2_clean.vms
AgMNN
	Characteristic Energy eV	1486.61	Acquisition Time s	0.1
KE_AgMNN	BE_AgMNN	CPS_AgMNN	Background_AgMNN
287.11	1199.5	27207.7	27207.7
287.61	1199	27269	27269
288.11	1198.5	27580.4	27580.4
288.61	1198	27842.7	27842.7
289.11	1197.5	27841.2	27841.2
289.61	1197	27998.1	27998.1
290.11	1196.5	28073.8	28073.8
290.61	1196	28289.8	28289.8
291.11	1195.5	28789.2	28789.2
291.61	1195	28497.3	28497.3
292.11	1194.5	28745.9	28745.9
292.61	1194	28778.3	28778.3
293.11	1193.5	28633.5	28633.5
293.61	1193	28848.9	28848.9
294.11	1192.5	28967.4	28967.4
294.61	1192	29190.2	29190.2
295.11	1191.5	29125.9	29125.9
295.61	1191	29055.9	29055.9
296.11	1190.5	29099.7	29099.7
296.61	1190	28863	28863
297.11	1189.5	28611.2	28611.2
297.61	1189	28630.4	28630.4
298.11	1188.5	28954.9	28954.9
298.61	1188	28685.6	28685.6
299.11	1187.5	28059.2	28059.2
299.61	1187	27728.6	27728.6
300.11	1186.5	27358.6	27358.6
300.61	1186	27884.5	27884.5
301.11	1185.5	27261.3	27261.3
301.61	1185	27329.3	27329.3
302.11	1184.5	26638.1	26638.1
302.61	1184	26172.3	26172.3
303.11	1183.5	25604.9	25604.9
303.61	1183	24747.4	24747.4
304.11	1182.5	24042.3	24042.3
304.61	1182	23631.7	23631.7
305.11	1181.5	23026.8	23026.8
305.61	1181	22548.3	22548.3
306.11	1180.5	22239.3	22239.3
306.61	1180	21678.8	21678.8
307.11	1179.5	21039.2	21039.2
307.61	1179	20266.6	20266.6
308.11	1178.5	19913.2	19913.2
308.61	1178	19502	19502
309.11	1177.5	18895.2	18895.2
309.61	1177	18191.2	18191.2
310.11	1176.5	17863.7	17863.7
310.61	1176	17593.1	17593.1
311.11	1175.5	17135.2	17135.2
311.61	1175	16912.4	16912.4
312.11	1174.5	16623.5	16623.5
312.61	1174	16599	16599
313.11	1173.5	16067.1	16067.1
313.61	1173	16092.2	16092.2
314.11	1172.5	16158.6	16158.6
314.61	1172	15559.7	15559.7
315.11	1171.5	15594	15594
315.61	1171	15607.5	15607.5
316.11	1170.5	15528.5	15528.5
316.61	1170	15731	15731
317.11	1169.5	15740.5	15740.5
317.61	1169	15556.2	15556.2
318.11	1168.5	15647.8	15647.8
318.61	1168	15413	15413
319.11	1167.5	15637.4	15637.4
319.61	1167	15439.3	15439.3
320.11	1166.5	15577.9	15577.9
320.61	1166	15617.9	15617.9
321.11	1165.5	15500.3	15500.3
321.61	1165	15527	15527
322.11	1164.5	15849.4	15849.4
322.61	1164	15828.4	15828.4
323.11	1163.5	15920.4	15920.4
323.61	1163	16242.2	16242.2
324.11	1162.5	16207	16207
324.61	1162	16196.3	16196.3
325.11	1161.5	16248	16248
325.61	1161	16430.2	16430.2
326.11	1160.5	16451	16451
326.61	1160	16534.9	16534.9
327.11	1159.5	16616.3	16616.3
327.61	1159	16696.1	16696.1
328.11	1158.5	16863.4	16863.4
328.61	1158	16823.8	16823.8
329.11	1157.5	16898.7	16898.7
329.61	1157	16627.1	16627.1
330.11	1156.5	16750.5	16750.5
330.61	1156	16872.8	16872.8
331.11	1155.5	17083.9	17083.9
331.61	1155	17158.5	17158.5
332.11	1154.5	17140.5	17140.5
332.61	1154	16816.3	16816.3
333.11	1153.5	17170.6	17170.6
333.61	1153	17269.4	17269.4
334.11	1152.5	17281.4	17281.4
334.61	1152	17365.2	17365.2
335.11	1151.5	17198	17198
335.61	1151	17034.6	17034.6
336.11	1150.5	17466	17466
336.61	1150	17284.6	17284.6
337.11	1149.5	17354.5	17354.5
337.61	1149	17370.1	17370.1
338.11	1148.5	17157.7	17157.7
338.61	1148	17244	17244
339.11	1147.5	17169.5	17169.5
339.61	1147	17100.1	17100.1
340.11	1146.5	17481.9	17481.9
340.61	1146	17651.2	17651.2
341.11	1145.5	17862.2	17862.2
341.61	1145	17685.5	17685.5
342.11	1144.5	18116.7	18116.7
342.61	1144	18379.5	18379.5
343.11	1143.5	18280.7	18280.7
343.61	1143	18697.4	18697.4
344.11	1142.5	19559.5	19559.5
344.61	1142	20030.9	20030.9
345.11	1141.5	20273	20273
345.61	1141	21069.7	21069.7
346.11	1140.5	21810.9	21810.9
346.61	1140	22515.4	22515.4
347.11	1139.5	23328.8	23328.8
347.61	1139	25268.9	25268.9
348.11	1138.5	27466.4	27466.4
348.61	1138	28434.5	28434.5
349.11	1137.5	30143.6	30143.6
349.61	1137	31282.9	31282.9
350.11	1136.5	33738.2	33738.2
350.61	1136	38329	38329
351.11	1135.5	44365.7	44365.7
351.61	1135	49697.8	49697.8
352.11	1134.5	53695.8	53695.8
352.61	1134	54293.3	54293.3
353.11	1133.5	51574.7	51574.7
353.61	1133	47837.1	47837.1
354.11	1132.5	43244.2	43244.2
354.61	1132	38868.6	38868.6
355.11	1131.5	34990.7	34990.7
355.61	1131	32146.3	32146.3
356.11	1130.5	31185.8	31185.8
356.61	1130	32681.4	32681.4
357.11	1129.5	36257.4	36257.4
357.61	1129	38608.3	38608.3
358.11	1128.5	38501.4	38501.4
358.61	1128	35797.3	35797.3
359.11	1127.5	29943.7	29943.7
359.61	1127	23168.7	23168.7
360.11	1126.5	17545.7	17545.7
360.61	1126	13875.4	13875.4
361.11	1125.5	11642.6	11642.6
361.61	1125	9872.52	9872.52
362.11	1124.5	8764.82	8764.82
362.61	1124	8185.46	8185.46
363.11	1123.5	7287.83	7287.83
363.61	1123	6598.75	6598.75
364.11	1122.5	5948.15	5948.15
364.61	1122	5303.54	5303.54
365.11	1121.5	4916.94	4916.94
365.61	1121	4306.87	4306.87
366.11	1120.5	3552.47	3552.47
366.61	1120	3174.09	3174.09
367.11	1119.5	3018.76	3018.76
367.61	1119	2938.13	2938.13
368.11	1118.5	2733.75	2733.75
368.61	1118	2494.15	2494.15
369.11	1117.5	2240.34	2240.34
369.61	1117	1836.11	1836.11
370.11	1116.5	1612.71	1612.71
370.61	1116	1619.85	1619.85
371.11	1115.5	1610.84	1610.84
371.61	1115	1430.68	1430.68
372.11	1114.5	1348.52	1348.52
372.61	1114	1105.45	1105.45
373.11	1113.5	1296.34	1296.34
373.61	1113	1099.21	1099.21
374.11	1112.5	847.759	847.759
374.61	1112	1005.71	1005.71
375.11	1111.5	1020.26	1020.26
375.61	1111	1045.57	1045.57
376.11	1110.5	726.954	726.954
376.61	1110	927.822	927.822
377.11	1109.5	770.891	770.891
377.61	1109	652.91	652.91
378.11	1108.5	576.352	576.352
378.61	1108	635.105	635.105
379.11	1107.5	637.505	637.505
379.61	1107	854.444	854.444
380.11	1106.5	882.565	882.565
380.61	1106	681.773	681.773
381.11	1105.5	565.063	565.063
381.61	1105	766.581	766.581
382.11	1104.5	299.168	299.168
382.61	1104	526.687	526.687
383.11	1103.5	525.913	525.913
383.61	1103	315.706	315.706
384.11	1102.5	627.955	627.955
384.61	1102	584.266	584.266
385.11	1101.5	573.246	573.246
385.61	1101	721.066	721.066
386.11	1100.5	781.596	781.596
386.61	1100	525.383	525.383
387.11	1099.5	368.96	368.96
387.61	1099	147.089	147.089
388.11	1098.5	470.534	470.534
388.61	1098	297.418	297.418
389.11	1097.5	567.057	567.057
389.61	1097	688.922	688.922
390.11	1096.5	679.714	679.714
390.61	1096	386.952	386.952
391.11	1095.5	221.771	221.771
391.61	1095	568.691	568.691
392.11	1094.5	449.933	449.933
392.61	1094	545.432	545.432
393.11	1093.5	524.275	524.275
393.61	1093	649.028	649.028
394.11	1092.5	538.048	538.048
394.61	1092	276.98	276.98
395.11	1091.5	494.429	494.429
395.61	1091	724.484	724.484
396.11	1090.5	303.856	303.856
396.61	1090	203.399	203.399
397.11	1089.5	101.497	101.497
397.61	1089	355.426	355.426
398.11	1088.5	459.992	459.992
398.61	1088	506.688	506.688
399.11	1087.5	520.377	520.377
399.61	1087	326.023	326.023
400.11	1086.5	496.638	496.638
400.61	1086	458.894	458.894
401.11	1085.5	209.281	209.281
401.61	1085	299.633	299.633
402.11	1084.5	433.135	433.135
402.61	1084	575.536	575.536
403.11	1083.5	484.435	484.435
403.61	1083	125.108	125.108
404.11	1082.5	225.734	225.734
404.61	1082	64.8557	64.8557
405.11	1081.5	316.821	316.821
405.61	1081	373.79	373.79
406.11	1080.5	379.764	379.764
406.61	1080	441.846	441.846
407.11	1079.5	371.785	371.785
407.61	1079	386.954	386.954
408.11	1078.5	217.022	217.022
408.61	1078	365.351	365.351
409.11	1077.5	667.792	667.792
409.61	1077	374.028	374.028
410.11	1076.5	160.847	160.847
410.61	1076	480.372	480.372
411.11	1075.5	368.139	368.139
411.61	1075	363.864	363.864
412.11	1074.5	422.114	422.114
412.61	1074	398.212	398.212
413.11	1073.5	198.697	198.697
413.61	1073	436.795	436.795
414.11	1072.5	119.699	119.699
414.61	1072	340.515	340.515
415.11	1071.5	402.179	402.179
415.61	1071	258.728	258.728
416.11	1070.5	-8.81086	-8.81086
416.61	1070	62.8861	62.8861
417.11	1069.5	298.809	298.809
417.61	1069	114.715	114.715
418.11	1068.5	122.556	122.556
418.61	1068	173.757	173.757
419.11	1067.5	421.455	421.455
419.61	1067	81.1345	81.1345
420.11	1066.5	374.387	374.387
420.61	1066	101.567	101.567
421.11	1065.5	166.006	166.006
421.61	1065	330.253	330.253
422.11	1064.5	161.54	161.54
422.61	1064	143.198	143.198
423.11	1063.5	450.246	450.246
423.61	1063	306.905	306.905
424.11	1062.5	161.653	161.653
424.61	1062	329.735	329.735
425.11	1061.5	203.457	203.457
425.61	1061	88.4763	88.4763
426.11	1060.5	469.701	469.701
426.61	1060	299.679	299.679
427.11	1059.5	183.667	183.667
427.61	1059	621.733	621.733
428.11	1058.5	402.234	402.234
428.61	1058	303.949	303.949
429.11	1057.5	83.0226	83.0226
429.61	1057	190.172	190.172
430.11	1056.5	386.824	386.824
430.61	1056	202.023	202.023
431.11	1055.5	466.584	466.584
431.61	1055	437.01	437.01
432.11	1054.5	314.844	314.844
432.61	1054	360.552	360.552
433.11	1053.5	546.558	546.558
433.61	1053	248.942	248.942
434.11	1052.5	227.596	227.596
434.61	1052	450.239	450.239
435.11	1051.5	389.004	389.004
435.61	1051	334.751	334.751
436.11	1050.5	319.484	319.484
436.61	1050	630.799	630.799
437.11	1049.5	388.24	388.24
437.61	1049	324.005	324.005
438.11	1048.5	254.238	254.238
438.61	1048	142.231	142.231
439.11	1047.5	295.402	295.402
439.61	1047	39.5418	39.5418
440.11	1046.5	287.326	287.326
440.61	1046	265.519	265.519
441.11	1045.5	323.33	323.33
441.61	1045	432.05	432.05
442.11	1044.5	247.962	247.962
442.61	1044	229.786	229.786
443.11	1043.5	162.7	162.7
443.61	1043	292.616	292.616
444.11	1042.5	200.597	200.597
444.61	1042	325.365	325.365
445.11	1041.5	201.624	201.624
445.61	1041	225.556	225.556
446.11	1040.5	407.389	407.389
446.61	1040	392.289	392.289
447.11	1039.5	191.849	191.849
447.61	1039	-100.509	-100.509
448.11	1038.5	153.047	153.047
448.61	1038	318.721	318.721
449.11	1037.5	-9.41387	-9.41387
449.61	1037	113.742	113.742
450.11	1036.5	344.799	344.799
450.61	1036	229.957	229.957
451.11	1035.5	58.4125	58.4125
451.61	1035	271.123	271.123
452.11	1034.5	134.351	134.351
452.61	1034	16.5726	16.5726
453.11	1033.5	126.064	126.064
453.61	1033	141.176	141.176
454.11	1032.5	219.232	219.232
454.61	1032	107.731	107.731
455.11	1031.5	135.189	135.189
455.61	1031	-20.1046	-20.1046
456.11	1030.5	8.61728	8.61728
456.61	1030	199.859	199.859
457.11	1029.5	412.559	412.559
457.61	1029	-33.7411	-33.7411
458.11	1028.5	-88.5344	-88.5344
458.61	1028	-265.341	-265.341
459.11	1027.5	-309.139	-309.139
459.61	1027	54.4029	54.4029
460.11	1026.5	-6.78264	-6.78264
460.61	1026	2.98969	2.98969
461.11	1025.5	-129.597	-129.597
461.61	1025	218.626	218.626
462.11	1024.5	-242.357	-242.357
462.61	1024	-125.779	-125.779
463.11	1023.5	22.3033	22.3033
463.61	1023	-124.582	-124.582
464.11	1022.5	-130.931	-130.931
464.61	1022	-262.899	-262.899
465.11	1021.5	-71.2433	-71.2433
465.61	1021	-25.8836	-25.8836
466.11	1020.5	-349.243	-349.243
466.61	1020	-25.7442	-25.7442
467.11	1019.5	48.9036	48.9036
467.61	1019	13.9329	13.9329
468.11	1018.5	-254.88	-254.88
468.61	1018	-5.17366	-5.17366
469.11	1017.5	163.787	163.787
469.61	1017	-169.585	-169.585
470.11	1016.5	-164.96	-164.96
470.61	1016	-191.38	-191.38
471.11	1015.5	-183.833	-183.833
471.61	1015	106.641	106.641
472.11	1014.5	-125.107	-125.107
472.61	1014	88.0724	88.0724
473.11	1013.5	207.058	207.058
473.61	1013	-4.50371	-4.50371
474.11	1012.5	-202.633	-202.633
474.61	1012	-301.417	-301.417
475.11	1011.5	-141.791	-141.791
475.61	1011	-191.728	-191.728
476.11	1010.5	-168.213	-168.213
476.61	1010	-373.551	-373.551
477.11	1009.5	-385.431	-385.431
477.61	1009	-173.97	-173.97
478.11	1008.5	-164.415	-164.415
478.61	1008	-277.884	-277.884
479.11	1007.5	-186.752	-186.752
479.61	1007	-160.001	-160.001
480.11	1006.5	-72.7505	-72.7505
480.61	1006	163.883	163.883
481.11	1005.5	-171.609	-171.609
481.61	1005	-80.2803	-80.2803
482.11	1004.5	38.9279	38.9279
482.61	1004	88.3366	88.3366
483.11	1003.5	-125.369	-125.369
483.61	1003	-46.6302	-46.6302
484.11	1002.5	229.852	229.852
484.61	1002	-185.861	-185.861
485.11	1001.5	-90.3563	-90.3563
485.61	1001	72.4236	72.4236
486.11	1000.5	316.939	316.939
486.61	1000	35.8335	35.8335
487.11	999.5	332.52	332.52
487.61	999	370.83	370.83
488.11	998.5	305.854	305.854
488.61	998	271.233	271.233