C:\Users\Mark\ownCloud\Muelheim Group\Projects\Gas phase background\EX321_CEC356_Au Ag and Cu in O2_clean.vms
AgMNN
	Characteristic Energy eV	1486.61	Acquisition Time s	0.1
KE_AgMNN	BE_AgMNN	CPS_AgMNN	Background_AgMNN
287.11	1199.5	2052.46	2052.46
287.61	1199	2143.43	2143.43
288.11	1198.5	2153.1	2153.1
288.61	1198	2201.35	2201.35
289.11	1197.5	2053.79	2053.79
289.61	1197	2116.55	2116.55
290.11	1196.5	2191.18	2191.18
290.61	1196	2114.54	2114.54
291.11	1195.5	2245.2	2245.2
291.61	1195	2193.41	2193.41
292.11	1194.5	2033.16	2033.16
292.61	1194	2102.13	2102.13
293.11	1193.5	2104.89	2104.89
293.61	1193	2194.73	2194.73
294.11	1192.5	2095.12	2095.12
294.61	1192	2027.03	2027.03
295.11	1191.5	2127.48	2127.48
295.61	1191	2189.06	2189.06
296.11	1190.5	2141.48	2141.48
296.61	1190	2107.41	2107.41
297.11	1189.5	2194.69	2194.69
297.61	1189	2109.99	2109.99
298.11	1188.5	2053	2053
298.61	1188	2142.01	2142.01
299.11	1187.5	2171.19	2171.19
299.61	1187	2085.86	2085.86
300.11	1186.5	2190.99	2190.99
300.61	1186	2054.26	2054.26
301.11	1185.5	2078	2078
301.61	1185	2105.35	2105.35
302.11	1184.5	2129.6	2129.6
302.61	1184	2180.66	2180.66
303.11	1183.5	2139.51	2139.51
303.61	1183	2068.32	2068.32
304.11	1182.5	2023.99	2023.99
304.61	1182	2047.41	2047.41
305.11	1181.5	1917.52	1917.52
305.61	1181	1983.12	1983.12
306.11	1180.5	1910.18	1910.18
306.61	1180	1919.54	1919.54
307.11	1179.5	1937.79	1937.79
307.61	1179	1836.9	1836.9
308.11	1178.5	1897.35	1897.35
308.61	1178	2032.51	2032.51
309.11	1177.5	1892.24	1892.24
309.61	1177	1828.93	1828.93
310.11	1176.5	1829.52	1829.52
310.61	1176	1774.66	1774.66
311.11	1175.5	1760.63	1760.63
311.61	1175	1728.52	1728.52
312.11	1174.5	1818.08	1818.08
312.61	1174	1847.89	1847.89
313.11	1173.5	1807.49	1807.49
313.61	1173	1803.32	1803.32
314.11	1172.5	1693.64	1693.64
314.61	1172	1738.83	1738.83
315.11	1171.5	1926.2	1926.2
315.61	1171	1828.14	1828.14
316.11	1170.5	1864.31	1864.31
316.61	1170	1871.66	1871.66
317.11	1169.5	1732	1732
317.61	1169	1790.34	1790.34
318.11	1168.5	1754.83	1754.83
318.61	1168	1734.85	1734.85
319.11	1167.5	1873.02	1873.02
319.61	1167	1793.3	1793.3
320.11	1166.5	1714.17	1714.17
320.61	1166	1800.82	1800.82
321.11	1165.5	1823.66	1823.66
321.61	1165	1687.11	1687.11
322.11	1164.5	1789.41	1789.41
322.61	1164	1860.21	1860.21
323.11	1163.5	1797.01	1797.01
323.61	1163	1785.46	1785.46
324.11	1162.5	1778.75	1778.75
324.61	1162	1819.92	1819.92
325.11	1161.5	1881.74	1881.74
325.61	1161	1923.13	1923.13
326.11	1160.5	1906.73	1906.73
326.61	1160	1836.39	1836.39
327.11	1159.5	1885.78	1885.78
327.61	1159	1850.81	1850.81
328.11	1158.5	1946.36	1946.36
328.61	1158	1835.04	1835.04
329.11	1157.5	1831.7	1831.7
329.61	1157	1898.81	1898.81
330.11	1156.5	1881.15	1881.15
330.61	1156	1891.53	1891.53
331.11	1155.5	1844.87	1844.87
331.61	1155	1845.54	1845.54
332.11	1154.5	1800.56	1800.56
332.61	1154	1867.06	1867.06
333.11	1153.5	1891.22	1891.22
333.61	1153	1933.1	1933.1
334.11	1152.5	1946.77	1946.77
334.61	1152	1841.74	1841.74
335.11	1151.5	1826.6	1826.6
335.61	1151	1841	1841
336.11	1150.5	1811.01	1811.01
336.61	1150	1844.25	1844.25
337.11	1149.5	1811.72	1811.72
337.61	1149	1729.67	1729.67
338.11	1148.5	1750.62	1750.62
338.61	1148	1631.7	1631.7
339.11	1147.5	1760.4	1760.4
339.61	1147	1844.13	1844.13
340.11	1146.5	1676.51	1676.51
340.61	1146	1665.86	1665.86
341.11	1145.5	1728.41	1728.41
341.61	1145	1684.11	1684.11
342.11	1144.5	1616.97	1616.97
342.61	1144	1570	1570
343.11	1143.5	1557.12	1557.12
343.61	1143	1613.61	1613.61
344.11	1142.5	1573.43	1573.43
344.61	1142	1551.46	1551.46
345.11	1141.5	1656.84	1656.84
345.61	1141	1576.06	1576.06
346.11	1140.5	1583.79	1583.79
346.61	1140	1470.08	1470.08
347.11	1139.5	1591.57	1591.57
347.61	1139	1720.96	1720.96
348.11	1138.5	1706.38	1706.38
348.61	1138	1751.88	1751.88
349.11	1137.5	1745.6	1745.6
349.61	1137	1873.76	1873.76
350.11	1136.5	1892.82	1892.82
350.61	1136	2184.06	2184.06
351.11	1135.5	2446.94	2446.94
351.61	1135	2598.7	2598.7
352.11	1134.5	2769.82	2769.82
352.61	1134	2711.55	2711.55
353.11	1133.5	2500.06	2500.06
353.61	1133	2393.46	2393.46
354.11	1132.5	2164.64	2164.64
354.61	1132	2078.92	2078.92
355.11	1131.5	1801.58	1801.58
355.61	1131	1657.05	1657.05
356.11	1130.5	1801.67	1801.67
356.61	1130	1839.08	1839.08
357.11	1129.5	1917.59	1917.59
357.61	1129	1991.56	1991.56
358.11	1128.5	2032.64	2032.64
358.61	1128	1865.82	1865.82
359.11	1127.5	1585	1585
359.61	1127	1222.49	1222.49
360.11	1126.5	965.471	965.471
360.61	1126	859.149	859.149
361.11	1125.5	692.115	692.115
361.61	1125	676.643	676.643
362.11	1124.5	566.949	566.949
362.61	1124	585.335	585.335
363.11	1123.5	520.749	520.749
363.61	1123	493.063	493.063
364.11	1122.5	436.039	436.039
364.61	1122	435.861	435.861
365.11	1121.5	431.639	431.639
365.61	1121	408.923	408.923
366.11	1120.5	357.616	357.616
366.61	1120	305.21	305.21
367.11	1119.5	242.905	242.905
367.61	1119	240.038	240.038
368.11	1118.5	362.243	362.243
368.61	1118	304.663	304.663
369.11	1117.5	295.701	295.701
369.61	1117	354.606	354.606
370.11	1116.5	228.201	228.201
370.61	1116	235.827	235.827
371.11	1115.5	233.29	233.29
371.61	1115	294.924	294.924
372.11	1114.5	308.919	308.919
372.61	1114	237.695	237.695
373.11	1113.5	256.041	256.041
373.61	1113	242.55	242.55
374.11	1112.5	231.225	231.225
374.61	1112	214.515	214.515
375.11	1111.5	237.694	237.694
375.61	1111	218.747	218.747
376.11	1110.5	50.0502	50.0502
376.61	1110	41.1878	41.1878
377.11	1109.5	72.6128	72.6128
377.61	1109	104.711	104.711
378.11	1108.5	84.1525	84.1525
378.61	1108	243.981	243.981
379.11	1107.5	305.822	305.822
379.61	1107	246.062	246.062
380.11	1106.5	148.201	148.201
380.61	1106	97.4286	97.4286
381.11	1105.5	107.804	107.804
381.61	1105	286.726	286.726
382.11	1104.5	228.516	228.516
382.61	1104	-60.2147	-60.2147
383.11	1103.5	31.9941	31.9941
383.61	1103	75.3738	75.3738
384.11	1102.5	63.0111	63.0111
384.61	1102	71.8913	71.8913
385.11	1101.5	158.161	158.161
385.61	1101	126.452	126.452
386.11	1100.5	36.8707	36.8707
386.61	1100	36.933	36.933
387.11	1099.5	96.0363	96.0363
387.61	1099	179.938	179.938
388.11	1098.5	228.056	228.056
388.61	1098	194.855	194.855
389.11	1097.5	171.255	171.255
389.61	1097	59.1157	59.1157
390.11	1096.5	100.202	100.202
390.61	1096	52.9823	52.9823
391.11	1095.5	224.651	224.651
391.61	1095	84.5726	84.5726
392.11	1094.5	222.428	222.428
392.61	1094	205.2	205.2
393.11	1093.5	207.46	207.46
393.61	1093	79.0397	79.0397
394.11	1092.5	99.7203	99.7203
394.61	1092	133.927	133.927
395.11	1091.5	71.3059	71.3059
395.61	1091	4.53226	4.53226
396.11	1090.5	129.718	129.718
396.61	1090	164.325	164.325
397.11	1089.5	170.898	170.898
397.61	1089	161.741	161.741
398.11	1088.5	97.9697	97.9697
398.61	1088	135.138	135.138
399.11	1087.5	113.212	113.212
399.61	1087	-16.6095	-16.6095
400.11	1086.5	-29.2356	-29.2356
400.61	1086	214.917	214.917
401.11	1085.5	138.534	138.534
401.61	1085	19.6818	19.6818
402.11	1084.5	91.162	91.162
402.61	1084	74.8861	74.8861
403.11	1083.5	96.2659	96.2659
403.61	1083	98.8798	98.8798
404.11	1082.5	157.297	157.297
404.61	1082	44.2483	44.2483
405.11	1081.5	-45.2724	-45.2724
405.61	1081	-23.7124	-23.7124
406.11	1080.5	-29.7816	-29.7816
406.61	1080	115.704	115.704
407.11	1079.5	16.1438	16.1438
407.61	1079	117.667	117.667
408.11	1078.5	6.79316	6.79316
408.61	1078	51.9592	51.9592
409.11	1077.5	62.4874	62.4874
409.61	1077	186.297	186.297
410.11	1076.5	221.465	221.465
410.61	1076	62.6406	62.6406
411.11	1075.5	-27.5393	-27.5393
411.61	1075	92.4728	92.4728
412.11	1074.5	262.944	262.944
412.61	1074	202.916	202.916
413.11	1073.5	127.611	127.611
413.61	1073	130.944	130.944
414.11	1072.5	63.9556	63.9556
414.61	1072	24.1293	24.1293
415.11	1071.5	62.9531	62.9531
415.61	1071	229.347	229.347
416.11	1070.5	212.159	212.159
416.61	1070	106.567	106.567
417.11	1069.5	106.686	106.686
417.61	1069	72.293	72.293
418.11	1068.5	-7.55812	-7.55812
418.61	1068	153.986	153.986
419.11	1067.5	126.278	126.278
419.61	1067	80.9272	80.9272
420.11	1066.5	58.3617	58.3617
420.61	1066	77.5383	77.5383
421.11	1065.5	128.161	128.161
421.61	1065	19.4354	19.4354
422.11	1064.5	138.186	138.186
422.61	1064	15.9091	15.9091
423.11	1063.5	89.1126	89.1126
423.61	1063	160.429	160.429
424.11	1062.5	41.4294	41.4294
424.61	1062	7.04484	7.04484
425.11	1061.5	175.731	175.731
425.61	1061	143.903	143.903
426.11	1060.5	108.9	108.9
426.61	1060	32.7435	32.7435
427.11	1059.5	35.1632	35.1632
427.61	1059	-11.8611	-11.8611
428.11	1058.5	104.99	104.99
428.61	1058	131.848	131.848
429.11	1057.5	57.5669	57.5669
429.61	1057	64.8643	64.8643
430.11	1056.5	192.638	192.638
430.61	1056	121.319	121.319
431.11	1055.5	130.676	130.676
431.61	1055	19.8525	19.8525
432.11	1054.5	126.131	126.131
432.61	1054	121.875	121.875
433.11	1053.5	104.857	104.857
433.61	1053	56.6303	56.6303
434.11	1052.5	114.517	114.517
434.61	1052	128.257	128.257
435.11	1051.5	10.9058	10.9058
435.61	1051	235.142	235.142
436.11	1050.5	209.646	209.646
436.61	1050	141.696	141.696
437.11	1049.5	158.723	158.723
437.61	1049	153.685	153.685
438.11	1048.5	246.864	246.864
438.61	1048	99.762	99.762
439.11	1047.5	84.1036	84.1036
439.61	1047	181.949	181.949
440.11	1046.5	158.953	158.953
440.61	1046	108.755	108.755
441.11	1045.5	230.673	230.673
441.61	1045	99.5335	99.5335
442.11	1044.5	68.9605	68.9605
442.61	1044	5.79977	5.79977
443.11	1043.5	164.384	164.384
443.61	1043	82.1942	82.1942
444.11	1042.5	285.483	285.483
444.61	1042	233.243	233.243
445.11	1041.5	200.983	200.983
445.61	1041	66.9053	66.9053
446.11	1040.5	98.2143	98.2143
446.61	1040	130.605	130.605
447.11	1039.5	215.521	215.521
447.61	1039	235.56	235.56
448.11	1038.5	146.944	146.944
448.61	1038	186.428	186.428
449.11	1037.5	181.879	181.879
449.61	1037	204.354	204.354
450.11	1036.5	157.292	157.292
450.61	1036	143.652	143.652
451.11	1035.5	207.09	207.09
451.61	1035	189.295	189.295
452.11	1034.5	169.484	169.484
452.61	1034	193.438	193.438
453.11	1033.5	319.732	319.732
453.61	1033	229.582	229.582
454.11	1032.5	311.407	311.407
454.61	1032	190.965	190.965
455.11	1031.5	79.983	79.983
455.61	1031	113.234	113.234
456.11	1030.5	228.645	228.645
456.61	1030	243.396	243.396
457.11	1029.5	313.823	313.823
457.61	1029	207.131	207.131
458.11	1028.5	45.9873	45.9873
458.61	1028	94.2288	94.2288
459.11	1027.5	261.312	261.312
459.61	1027	294.78	294.78
460.11	1026.5	350.77	350.77
460.61	1026	224.547	224.547
461.11	1025.5	169.614	169.614
461.61	1025	95.2817	95.2817
462.11	1024.5	122.435	122.435
462.61	1024	197.787	197.787
463.11	1023.5	188.427	188.427
463.61	1023	274.84	274.84
464.11	1022.5	189.448	189.448
464.61	1022	360.169	360.169
465.11	1021.5	307.494	307.494
465.61	1021	136.51	136.51
466.11	1020.5	165.97	165.97
466.61	1020	263.084	263.084
467.11	1019.5	302.381	302.381
467.61	1019	387.485	387.485
468.11	1018.5	264.728	264.728
468.61	1018	122.945	122.945
469.11	1017.5	-9.3367	-9.3367
469.61	1017	168.467	168.467
470.11	1016.5	187.572	187.572
470.61	1016	246.087	246.087
471.11	1015.5	274.075	274.075
471.61	1015	234.216	234.216
472.11	1014.5	368.092	368.092
472.61	1014	286.329	286.329
473.11	1013.5	246.814	246.814
473.61	1013	194.767	194.767
474.11	1012.5	233.469	233.469
474.61	1012	124.879	124.879
475.11	1011.5	256.02	256.02
475.61	1011	292.355	292.355
476.11	1010.5	313.247	313.247
476.61	1010	127.143	127.143
477.11	1009.5	55.9437	55.9437
477.61	1009	97.538	97.538
478.11	1008.5	338.608	338.608
478.61	1008	347.374	347.374
479.11	1007.5	306.84	306.84
479.61	1007	212.585	212.585
480.11	1006.5	202.835	202.835
480.61	1006	77.3642	77.3642
481.11	1005.5	113.625	113.625
481.61	1005	261.46	261.46
482.11	1004.5	157.775	157.775
482.61	1004	166.79	166.79
483.11	1003.5	108.439	108.439
483.61	1003	130.907	130.907
484.11	1002.5	-4.05886	-4.05886
484.61	1002	-71.4232	-71.4232
485.11	1001.5	-4.20964	-4.20964
485.61	1001	25.0499	25.0499
486.11	1000.5	35.9017	35.9017
486.61	1000	-22.403	-22.403
487.11	999.5	154.819	154.819
487.61	999	43.7503	43.7503
488.11	998.5	38.2121	38.2121
488.61	998	0	0