C:\Users\Mark\ownCloud\Muelheim Group\Projects\Gas phase background\EX321_CEC356_Au Ag and Cu in O2_clean.vms
Ag4d
	Characteristic Energy eV	1486.61	Acquisition Time s	0.1
KE_Ag4d	BE_Ag4d	CPS_Ag4d	Background_Ag4d
1316.11	170.5	17060.9	17060.9
1316.61	170	17114.7	17114.7
1317.11	169.5	17397.7	17397.7
1317.61	169	17405.1	17405.1
1318.11	168.5	17524.3	17524.3
1318.61	168	17524.9	17524.9
1319.11	167.5	17775.3	17775.3
1319.61	167	17432.2	17432.2
1320.11	166.5	17218	17218
1320.61	166	17294.8	17294.8
1321.11	165.5	17184.3	17184.3
1321.61	165	17305.8	17305.8
1322.11	164.5	17336	17336
1322.61	164	17211	17211
1323.11	163.5	17309.2	17309.2
1323.61	163	17453.3	17453.3
1324.11	162.5	17408	17408
1324.61	162	17435.4	17435.4
1325.11	161.5	17233.2	17233.2
1325.61	161	17179	17179
1326.11	160.5	17316.2	17316.2
1326.61	160	17542.2	17542.2
1327.11	159.5	17370.6	17370.6
1327.61	159	17426.9	17426.9
1328.11	158.5	17330.3	17330.3
1328.61	158	17506.3	17506.3
1329.11	157.5	17503.5	17503.5
1329.61	157	17624.7	17624.7
1330.11	156.5	17612.2	17612.2
1330.61	156	17597.2	17597.2
1331.11	155.5	17579.1	17579.1
1331.61	155	17535.9	17535.9
1332.11	154.5	17690.2	17690.2
1332.61	154	17718.8	17718.8
1333.11	153.5	17601	17601
1333.61	153	17496.8	17496.8
1334.11	152.5	17715.4	17715.4
1334.61	152	17794.7	17794.7
1335.11	151.5	18051.9	18051.9
1335.61	151	17703.8	17703.8
1336.11	150.5	17835.9	17835.9
1336.61	150	17915.3	17915.3
1337.11	149.5	17804.8	17804.8
1337.61	149	17970.5	17970.5
1338.11	148.5	17997.8	17997.8
1338.61	148	18117.6	18117.6
1339.11	147.5	18044.6	18044.6
1339.61	147	17911.1	17911.1
1340.11	146.5	18062.9	18062.9
1340.61	146	18099.8	18099.8
1341.11	145.5	18109.7	18109.7
1341.61	145	18248.4	18248.4
1342.11	144.5	18123.1	18123.1
1342.61	144	18263.2	18263.2
1343.11	143.5	17983.3	17983.3
1343.61	143	17981.6	17981.6
1344.11	142.5	17993.4	17993.4
1344.61	142	18108.8	18108.8
1345.11	141.5	18342.3	18342.3
1345.61	141	18262.4	18262.4
1346.11	140.5	18467.2	18467.2
1346.61	140	18391.9	18391.9
1347.11	139.5	18355	18355
1347.61	139	18271.6	18271.6
1348.11	138.5	18488.6	18488.6
1348.61	138	18439.8	18439.8
1349.11	137.5	18611.9	18611.9
1349.61	137	18655.4	18655.4
1350.11	136.5	18570.5	18570.5
1350.61	136	18454.4	18454.4
1351.11	135.5	18568.6	18568.6
1351.61	135	18492.2	18492.2
1352.11	134.5	18408.3	18408.3
1352.61	134	18509.5	18509.5
1353.11	133.5	18569.4	18569.4
1353.61	133	18866.6	18866.6
1354.11	132.5	18703.9	18703.9
1354.61	132	18818.1	18818.1
1355.11	131.5	19003.8	19003.8
1355.61	131	18846.6	18846.6
1356.11	130.5	18842.2	18842.2
1356.61	130	18937.5	18937.5
1357.11	129.5	19038	19038
1357.61	129	18864.5	18864.5
1358.11	128.5	18760.5	18760.5
1358.61	128	19009.5	19009.5
1359.11	127.5	18967.7	18967.7
1359.61	127	18921.9	18921.9
1360.11	126.5	19011.3	19011.3
1360.61	126	19130.8	19130.8
1361.11	125.5	19217.8	19217.8
1361.61	125	19054.7	19054.7
1362.11	124.5	19095.6	19095.6
1362.61	124	19397.7	19397.7
1363.11	123.5	19300.4	19300.4
1363.61	123	19013.7	19013.7
1364.11	122.5	19312.4	19312.4
1364.61	122	19402.1	19402.1
1365.11	121.5	19496.1	19496.1
1365.61	121	19514.4	19514.4
1366.11	120.5	19453.1	19453.1
1366.61	120	19812.5	19812.5
1367.11	119.5	19514.3	19514.3
1367.61	119	19450.4	19450.4
1368.11	118.5	19684.1	19684.1
1368.61	118	19766.5	19766.5
1369.11	117.5	19569.5	19569.5
1369.61	117	19603.4	19603.4
1370.11	116.5	19775.6	19775.6
1370.61	116	19746.3	19746.3
1371.11	115.5	19461.9	19461.9
1371.61	115	19705.3	19705.3
1372.11	114.5	20050.2	20050.2
1372.61	114	19722.7	19722.7
1373.11	113.5	19693.4	19693.4
1373.61	113	19856.6	19856.6
1374.11	112.5	19916.5	19916.5
1374.61	112	20004.3	20004.3
1375.11	111.5	20011.6	20011.6
1375.61	111	20032	20032
1376.11	110.5	20015.4	20015.4
1376.61	110	19871.5	19871.5
1377.11	109.5	20044.4	20044.4
1377.61	109	20027.8	20027.8
1378.11	108.5	20281.7	20281.7
1378.61	108	19988.6	19988.6
1379.11	107.5	19981.4	19981.4
1379.61	107	20260.2	20260.2
1380.11	106.5	20533.6	20533.6
1380.61	106	20563.2	20563.2
1381.11	105.5	20814	20814
1381.61	105	20799.4	20799.4
1382.11	104.5	20969.3	20969.3
1382.61	104	21141.6	21141.6
1383.11	103.5	21210.4	21210.4
1383.61	103	21340.1	21340.1
1384.11	102.5	21734.3	21734.3
1384.61	102	22292.8	22292.8
1385.11	101.5	22535	22535
1385.61	101	23211.6	23211.6
1386.11	100.5	23613.3	23613.3
1386.61	100	24332.4	24332.4
1387.11	99.5	25083.5	25083.5
1387.61	99	26070.8	26070.8
1388.11	98.5	27182.4	27182.4
1388.61	98	28025.3	28025.3
1389.11	97.5	28703.5	28703.5
1389.61	97	28793	28793
1390.11	96.5	28231.4	28231.4
1390.61	96	27514.9	27514.9
1391.11	95.5	26309	26309
1391.61	95	25087.4	25087.4
1392.11	94.5	23796.9	23796.9
1392.61	94	22844.8	22844.8
1393.11	93.5	22017.7	22017.7
1393.61	93	21289.9	21289.9
1394.11	92.5	20836	20836
1394.61	92	20595.2	20595.2
1395.11	91.5	20050.5	20050.5
1395.61	91	20076.5	20076.5
1396.11	90.5	20091.7	20091.7
1396.61	90	19916	19916
1397.11	89.5	19771.1	19771.1
1397.61	89	19737.2	19737.2
1398.11	88.5	19640.5	19640.5
1398.61	88	19715.9	19715.9
1399.11	87.5	19647.3	19647.3
1399.61	87	19802.2	19802.2
1400.11	86.5	19747.1	19747.1
1400.61	86	19607.5	19607.5
1401.11	85.5	19504.8	19504.8
1401.61	85	19731.5	19731.5
1402.11	84.5	19612.9	19612.9
1402.61	84	19637.3	19637.3
1403.11	83.5	19577.1	19577.1
1403.61	83	19640.2	19640.2
1404.11	82.5	19697.3	19697.3
1404.61	82	19616.8	19616.8
1405.11	81.5	19684.4	19684.4
1405.61	81	19836.5	19836.5
1406.11	80.5	19708	19708
1406.61	80	19777.5	19777.5
1407.11	79.5	19920.4	19920.4
1407.61	79	19849.8	19849.8
1408.11	78.5	20035.2	20035.2
1408.61	78	19888.7	19888.7
1409.11	77.5	19912.2	19912.2
1409.61	77	20040.6	20040.6
1410.11	76.5	20102.6	20102.6
1410.61	76	20243.4	20243.4
1411.11	75.5	20236.3	20236.3
1411.61	75	20473.2	20473.2
1412.11	74.5	20579.8	20579.8
1412.61	74	20685.3	20685.3
1413.11	73.5	20607.1	20607.1
1413.61	73	20931.8	20931.8
1414.11	72.5	21204	21204
1414.61	72	21161.7	21161.7
1415.11	71.5	21278.1	21278.1
1415.61	71	21753.7	21753.7
1416.11	70.5	22005	22005
1416.61	70	22423.5	22423.5
1417.11	69.5	22848.5	22848.5
1417.61	69	23185.8	23185.8
1418.11	68.5	24169.7	24169.7
1418.61	68	24753.7	24753.7
1419.11	67.5	25459.8	25459.8
1419.61	67	26512.7	26512.7
1420.11	66.5	27421.2	27421.2
1420.61	66	28030.2	28030.2
1421.11	65.5	28989.7	28989.7
1421.61	65	29686.7	29686.7
1422.11	64.5	29975.7	29975.7
1422.61	64	30659.6	30659.6
1423.11	63.5	31359.5	31359.5
1423.61	63	31582	31582
1424.11	62.5	31877.3	31877.3
1424.61	62	32470.3	32470.3
1425.11	61.5	32857.6	32857.6
1425.61	61	33157.1	33157.1
1426.11	60.5	33532.8	33532.8
1426.61	60	33811.8	33811.8
1427.11	59.5	34047.9	34047.9
1427.61	59	34090.4	34090.4
1428.11	58.5	34092.9	34092.9
1428.61	58	33978.1	33978.1
1429.11	57.5	33016.5	33016.5
1429.61	57	31949.2	31949.2
1430.11	56.5	30493.6	30493.6
1430.61	56	28420.1	28420.1
1431.11	55.5	26790	26790
1431.61	55	24886	24886
1432.11	54.5	22876.6	22876.6
1432.61	54	20961	20961
1433.11	53.5	19474.8	19474.8
1433.61	53	18101.9	18101.9
1434.11	52.5	16729.9	16729.9
1434.61	52	15752.5	15752.5
1435.11	51.5	14882.2	14882.2
1435.61	51	13971.7	13971.7
1436.11	50.5	13278.8	13278.8
1436.61	50	12385.8	12385.8
1437.11	49.5	11848.8	11848.8
1437.61	49	11454.3	11454.3
1438.11	48.5	11155.1	11155.1
1438.61	48	10795.4	10795.4
1439.11	47.5	10436.5	10436.5
1439.61	47	10290.7	10290.7
1440.11	46.5	10006.1	10006.1
1440.61	46	9802.6	9802.6
1441.11	45.5	9801.01	9801.01
1441.61	45	9792.65	9792.65
1442.11	44.5	9470.11	9470.11
1442.61	44	9591.22	9591.22
1443.11	43.5	9509.31	9509.31
1443.61	43	9464.05	9464.05
1444.11	42.5	9416.4	9416.4
1444.61	42	9544.12	9544.12
1445.11	41.5	9456.18	9456.18
1445.61	41	9467.82	9467.82
1446.11	40.5	9276.51	9276.51
1446.61	40	9284.22	9284.22
1447.11	39.5	9383.13	9383.13
1447.61	39	9398.11	9398.11
1448.11	38.5	9253.94	9253.94
1448.61	38	9352.4	9352.4
1449.11	37.5	9269.97	9269.97
1449.61	37	9130.02	9130.02
1450.11	36.5	9407.38	9407.38
1450.61	36	9298.02	9298.02
1451.11	35.5	9338.83	9338.83
1451.61	35	9399.81	9399.81
1452.11	34.5	9550.77	9550.77
1452.61	34	9648.27	9648.27
1453.11	33.5	9550.77	9550.77
1453.61	33	9776.88	9776.88
1454.11	32.5	9790.35	9790.35
1454.61	32	9872.15	9872.15
1455.11	31.5	10010.1	10010.1
1455.61	31	10122.4	10122.4
1456.11	30.5	10201	10201
1456.61	30	10072	10072
1457.11	29.5	10142.5	10142.5
1457.61	29	10079.6	10079.6
1458.11	28.5	9954.44	9954.44
1458.61	28	9801.71	9801.71
1459.11	27.5	9682.49	9682.49
1459.61	27	9783.89	9783.89
1460.11	26.5	9830.57	9830.57
1460.61	26	9798.97	9798.97
1461.11	25.5	9929.36	9929.36
1461.61	25	9857.66	9857.66
1462.11	24.5	9806.02	9806.02
1462.61	24	9998.64	9998.64
1463.11	23.5	9946.85	9946.85
1463.61	23	9972.25	9972.25
1464.11	22.5	9944.57	9944.57
1464.61	22	9859.68	9859.68
1465.11	21.5	9660.41	9660.41
1465.61	21	9660.26	9660.26
1466.11	20.5	9608.3	9608.3
1466.61	20	9664.18	9664.18
1467.11	19.5	9438.61	9438.61
1467.61	19	9359.05	9359.05
1468.11	18.5	9417.46	9417.46
1468.61	18	9379.82	9379.82
1469.11	17.5	9539.62	9539.62
1469.61	17	9498.38	9498.38
1470.11	16.5	9614.48	9614.48
1470.61	16	9613.87	9613.87
1471.11	15.5	9686.27	9686.27
1471.61	15	9893.23	9893.23
1472.11	14.5	10052.9	10052.9
1472.61	14	10130.3	10130.3
1473.11	13.5	10123.3	10123.3
1473.61	13	10196	10196
1474.11	12.5	9998.73	9998.73
1474.61	12	10152.3	10152.3
1475.11	11.5	10443.6	10443.6
1475.61	11	10719.1	10719.1
1476.11	10.5	11222	11222
1476.61	10	11859.2	11859.2
1477.11	9.5	13063.4	13063.4
1477.61	9	15013	15013
1478.11	8.5	18937.9	18937.9
1478.61	8	26708	26708
1479.11	7.5	37763.7	37763.7
1479.61	7	50079.1	50079.1
1480.11	6.5	61134.6	61134.6
1480.61	6	68430	68430
1481.11	5.5	71846.9	71846.9
1481.61	5	71373.8	71373.8
1482.11	4.5	63766	63766
1482.61	4	49239.7	49239.7
1483.11	3.5	31371.8	31371.8
1483.61	3	16107.5	16107.5
1484.11	2.5	8107.94	8107.94
1484.61	2	5365.34	5365.34
1485.11	1.5	4347.34	4347.34
1485.61	1	3684.12	3684.12
1486.11	0.5	2915.23	2915.23
1486.61	0	2116.93	2116.93