C:\Users\Mark\ownCloud\Muelheim Group\Projects\Gas phase background\EX321_CEC356_Au Ag and Cu in O2_clean.vms
Au4d
	Characteristic Energy eV	1486.61	Acquisition Time s	0.1
KE_Au4d	BE_Au4d	CPS_Au4d	Background_Au4d
960.61	526	50392.6	50392.6
961.11	525.5	50246.9	50246.9
961.61	525	49953.3	49953.3
962.11	524.5	50330.4	50330.4
962.61	524	50793.8	50793.8
963.11	523.5	50095.2	50095.2
963.61	523	50108.9	50108.9
964.11	522.5	50075.1	50075.1
964.61	522	50250.1	50250.1
965.11	521.5	50332.9	50332.9
965.61	521	50064.1	50064.1
966.11	520.5	50503.2	50503.2
966.61	520	50401.7	50401.7
967.11	519.5	50303.7	50303.7
967.61	519	49972.9	49972.9
968.11	518.5	50120.1	50120.1
968.61	518	50368.3	50368.3
969.11	517.5	50253.7	50253.7
969.61	517	50432.9	50432.9
970.11	516.5	50272.7	50272.7
970.61	516	50189.9	50189.9
971.11	515.5	50336.4	50336.4
971.61	515	50558.7	50558.7
972.11	514.5	50312.4	50312.4
972.61	514	50340.8	50340.8
973.11	513.5	50803.7	50803.7
973.61	513	50978.9	50978.9
974.11	512.5	51094.2	51094.2
974.61	512	50985.4	50985.4
975.11	511.5	50710	50710
975.61	511	50508.7	50508.7
976.11	510.5	50552.5	50552.5
976.61	510	51276.5	51276.5
977.11	509.5	51162.5	51162.5
977.61	509	50685.4	50685.4
978.11	508.5	51189.8	51189.8
978.61	508	51088.2	51088.2
979.11	507.5	51402.5	51402.5
979.61	507	51178.9	51178.9
980.11	506.5	51112.1	51112.1
980.61	506	51300.6	51300.6
981.11	505.5	51331.1	51331.1
981.61	505	51291.9	51291.9
982.11	504.5	51474.5	51474.5
982.61	504	51470.4	51470.4
983.11	503.5	52144.6	52144.6
983.61	503	51602.1	51602.1
984.11	502.5	51942.6	51942.6
984.61	502	51975.2	51975.2
985.11	501.5	51781.8	51781.8
985.61	501	51819.3	51819.3
986.11	500.5	52115.2	52115.2
986.61	500	52313.5	52313.5
987.11	499.5	52281.7	52281.7
987.61	499	52698.5	52698.5
988.11	498.5	52460.4	52460.4
988.61	498	52195.3	52195.3
989.11	497.5	52515.9	52515.9
989.61	497	52382	52382
990.11	496.5	52529	52529
990.61	496	52546.6	52546.6
991.11	495.5	51918.8	51918.8
991.61	495	52166.9	52166.9
992.11	494.5	52029.8	52029.8
992.61	494	52513	52513
993.11	493.5	52952.1	52952.1
993.61	493	53221.3	53221.3
994.11	492.5	53160.3	53160.3
994.61	492	52570.4	52570.4
995.11	491.5	52970.4	52970.4
995.61	491	53228.3	53228.3
996.11	490.5	53391.4	53391.4
996.61	490	52642.4	52642.4
997.11	489.5	53161.1	53161.1
997.61	489	53665.1	53665.1
998.11	488.5	53632.9	53632.9
998.61	488	53944.2	53944.2
999.11	487.5	53586.1	53586.1
999.61	487	53493.6	53493.6
1000.11	486.5	53534.5	53534.5
1000.61	486	53819.8	53819.8
1001.11	485.5	54038.5	54038.5
1001.61	485	53754.2	53754.2
1002.11	484.5	54208.3	54208.3
1002.61	484	54066.5	54066.5
1003.11	483.5	54191.7	54191.7
1003.61	483	54176.4	54176.4
1004.11	482.5	54047.4	54047.4
1004.61	482	54208.6	54208.6
1005.11	481.5	54836.9	54836.9
1005.61	481	54421.9	54421.9
1006.11	480.5	54306.7	54306.7
1006.61	480	54675.8	54675.8
1007.11	479.5	55235.4	55235.4
1007.61	479	54885.7	54885.7
1008.11	478.5	55382.4	55382.4
1008.61	478	55050.6	55050.6
1009.11	477.5	54978.1	54978.1
1009.61	477	55534.2	55534.2
1010.11	476.5	55284.5	55284.5
1010.61	476	55332.2	55332.2
1011.11	475.5	55073.2	55073.2
1011.61	475	55547.3	55547.3
1012.11	474.5	55387.6	55387.6
1012.61	474	55431.2	55431.2
1013.11	473.5	55634.3	55634.3
1013.61	473	55783.1	55783.1
1014.11	472.5	56063.7	56063.7
1014.61	472	56118.7	56118.7
1015.11	471.5	56205.7	56205.7
1015.61	471	56032	56032
1016.11	470.5	56388.5	56388.5
1016.61	470	56531.4	56531.4
1017.11	469.5	56428.1	56428.1
1017.61	469	56312	56312
1018.11	468.5	56488.9	56488.9
1018.61	468	56951.5	56951.5
1019.11	467.5	57058.6	57058.6
1019.61	467	57384	57384
1020.11	466.5	57096.1	57096.1
1020.61	466	57081.9	57081.9
1021.11	465.5	57248.1	57248.1
1021.61	465	56756.8	56756.8
1022.11	464.5	57163	57163
1022.61	464	57705.6	57705.6
1023.11	463.5	57392.7	57392.7
1023.61	463	57257	57257
1024.11	462.5	58012.4	58012.4
1024.61	462	57969.3	57969.3
1025.11	461.5	57901.2	57901.2
1025.61	461	57725.8	57725.8
1026.11	460.5	57711.2	57711.2
1026.61	460	58021.9	58021.9
1027.11	459.5	58113.3	58113.3
1027.61	459	58225.8	58225.8
1028.11	458.5	58570.5	58570.5
1028.61	458	58809.1	58809.1
1029.11	457.5	58447.8	58447.8
1029.61	457	58694.8	58694.8
1030.11	456.5	58886.3	58886.3
1030.61	456	58827.4	58827.4
1031.11	455.5	59144.8	59144.8
1031.61	455	58943.6	58943.6
1032.11	454.5	58822.2	58822.2
1032.61	454	59149.6	59149.6
1033.11	453.5	59258.7	59258.7
1033.61	453	59398	59398
1034.11	452.5	59700.9	59700.9
1034.61	452	59271.5	59271.5
1035.11	451.5	59713.3	59713.3
1035.61	451	60142.3	60142.3
1036.11	450.5	60412.6	60412.6
1036.61	450	60074.7	60074.7
1037.11	449.5	60204.5	60204.5
1037.61	449	60294.9	60294.9
1038.11	448.5	59793.9	59793.9
1038.61	448	60269.1	60269.1
1039.11	447.5	60374.7	60374.7
1039.61	447	60831.6	60831.6
1040.11	446.5	60366	60366
1040.61	446	60708.8	60708.8
1041.11	445.5	60839.9	60839.9
1041.61	445	61754.7	61754.7
1042.11	444.5	61569.2	61569.2
1042.61	444	61466.8	61466.8
1043.11	443.5	61486.9	61486.9
1043.61	443	61736.9	61736.9
1044.11	442.5	62030.1	62030.1
1044.61	442	62043.6	62043.6
1045.11	441.5	62137.8	62137.8
1045.61	441	62178.1	62178.1
1046.11	440.5	62606.8	62606.8
1046.61	440	62305.1	62305.1
1047.11	439.5	62078	62078
1047.61	439	62074.9	62074.9
1048.11	438.5	62769.9	62769.9
1048.61	438	62847.9	62847.9
1049.11	437.5	62614.6	62614.6
1049.61	437	62852.5	62852.5
1050.11	436.5	63574.1	63574.1
1050.61	436	63420.3	63420.3
1051.11	435.5	63100.7	63100.7
1051.61	435	63203.6	63203.6
1052.11	434.5	63880.8	63880.8
1052.61	434	63515.1	63515.1
1053.11	433.5	63798.1	63798.1
1053.61	433	63701.3	63701.3
1054.11	432.5	64344.4	64344.4
1054.61	432	64222.3	64222.3
1055.11	431.5	63667.3	63667.3
1055.61	431	64590.5	64590.5
1056.11	430.5	64722.4	64722.4
1056.61	430	64447	64447
1057.11	429.5	64775.3	64775.3
1057.61	429	64347.2	64347.2
1058.11	428.5	65598.4	65598.4
1058.61	428	65075.6	65075.6
1059.11	427.5	65266.7	65266.7
1059.61	427	65495.8	65495.8
1060.11	426.5	65745.4	65745.4
1060.61	426	65330.5	65330.5
1061.11	425.5	66005	66005
1061.61	425	66225.7	66225.7
1062.11	424.5	65966.6	65966.6
1062.61	424	66204.8	66204.8
1063.11	423.5	66033.4	66033.4
1063.61	423	66226.4	66226.4
1064.11	422.5	66686.7	66686.7
1064.61	422	66820.4	66820.4
1065.11	421.5	66979.6	66979.6
1065.61	421	67603	67603
1066.11	420.5	67206.6	67206.6
1066.61	420	67301.4	67301.4
1067.11	419.5	67810.1	67810.1
1067.61	419	67891.1	67891.1
1068.11	418.5	67659.7	67659.7
1068.61	418	67738.1	67738.1
1069.11	417.5	68283.7	68283.7
1069.61	417	68309.2	68309.2
1070.11	416.5	68487.5	68487.5
1070.61	416	68440.7	68440.7
1071.11	415.5	68481.2	68481.2
1071.61	415	69108.7	69108.7
1072.11	414.5	68842	68842
1072.61	414	68614	68614
1073.11	413.5	69556.1	69556.1
1073.61	413	69709.8	69709.8
1074.11	412.5	69500.3	69500.3
1074.61	412	69311.4	69311.4
1075.11	411.5	69847.6	69847.6
1075.61	411	69986.6	69986.6
1076.11	410.5	70526.1	70526.1
1076.61	410	70045.6	70045.6
1077.11	409.5	70529	70529
1077.61	409	70334.2	70334.2
1078.11	408.5	70084.9	70084.9
1078.61	408	70505	70505
1079.11	407.5	70780.3	70780.3
1079.61	407	70930.9	70930.9
1080.11	406.5	71392	71392
1080.61	406	71615.4	71615.4
1081.11	405.5	72310.6	72310.6
1081.61	405	71967.4	71967.4
1082.11	404.5	72460	72460
1082.61	404	72351.5	72351.5
1083.11	403.5	72402	72402
1083.61	403	72797.7	72797.7
1084.11	402.5	72412.6	72412.6
1084.61	402	73004.7	73004.7
1085.11	401.5	73026.8	73026.8
1085.61	401	73995.7	73995.7
1086.11	400.5	74634.2	74634.2
1086.61	400	74649.3	74649.3
1087.11	399.5	74397.6	74397.6
1087.61	399	74416.2	74416.2
1088.11	398.5	74676.9	74676.9
1088.61	398	74934.2	74934.2
1089.11	397.5	75843.1	75843.1
1089.61	397	75282	75282
1090.11	396.5	74985.6	74985.6
1090.61	396	75506.8	75506.8
1091.11	395.5	76028.1	76028.1
1091.61	395	76184.9	76184.9
1092.11	394.5	76352	76352
1092.61	394	76654.3	76654.3
1093.11	393.5	76656.9	76656.9
1093.61	393	76601.9	76601.9
1094.11	392.5	77071	77071
1094.61	392	77777.4	77777.4
1095.11	391.5	77947.8	77947.8
1095.61	391	78595.7	78595.7
1096.11	390.5	78307.2	78307.2
1096.61	390	78322.2	78322.2
1097.11	389.5	79334.4	79334.4
1097.61	389	79292.2	79292.2
1098.11	388.5	78962.3	78962.3
1098.61	388	79382.9	79382.9
1099.11	387.5	80286.8	80286.8
1099.61	387	80354.8	80354.8
1100.11	386.5	80699.3	80699.3
1100.61	386	80723.3	80723.3
1101.11	385.5	81299.9	81299.9
1101.61	385	81113.1	81113.1
1102.11	384.5	81497.5	81497.5
1102.61	384	81283.5	81283.5
1103.11	383.5	81483.7	81483.7
1103.61	383	81917.4	81917.4
1104.11	382.5	82334	82334
1104.61	382	81982.3	81982.3
1105.11	381.5	82807.7	82807.7
1105.61	381	82521.3	82521.3
1106.11	380.5	83196.6	83196.6
1106.61	380	83256	83256
1107.11	379.5	84233.2	84233.2
1107.61	379	83961.9	83961.9
1108.11	378.5	84128.5	84128.5
1108.61	378	84487.2	84487.2
1109.11	377.5	84417.5	84417.5
1109.61	377	84491.2	84491.2
1110.11	376.5	84545.9	84545.9
1110.61	376	85117.6	85117.6
1111.11	375.5	85064.1	85064.1
1111.61	375	85203.8	85203.8
1112.11	374.5	84765	84765
1112.61	374	84802.9	84802.9
1113.11	373.5	85653.6	85653.6
1113.61	373	86431.8	86431.8
1114.11	372.5	86327.1	86327.1
1114.61	372	86905.9	86905.9
1115.11	371.5	87043.7	87043.7
1115.61	371	87279.6	87279.6
1116.11	370.5	87835.3	87835.3
1116.61	370	88756.7	88756.7
1117.11	369.5	88783.4	88783.4
1117.61	369	89102.9	89102.9
1118.11	368.5	89445.3	89445.3
1118.61	368	89701.4	89701.4
1119.11	367.5	89584.5	89584.5
1119.61	367	89844.3	89844.3
1120.11	366.5	89887.8	89887.8
1120.61	366	90433.2	90433.2
1121.11	365.5	90942.7	90942.7
1121.61	365	91445.7	91445.7
1122.11	364.5	91862.3	91862.3
1122.61	364	92468.7	92468.7
1123.11	363.5	92663.6	92663.6
1123.61	363	93407.4	93407.4
1124.11	362.5	94336.9	94336.9
1124.61	362	94762.5	94762.5
1125.11	361.5	96025.7	96025.7
1125.61	361	97333.6	97333.6
1126.11	360.5	98803.1	98803.1
1126.61	360	100500	100500
1127.11	359.5	102691	102691
1127.61	359	105871	105871
1128.11	358.5	108528	108528
1128.61	358	112475	112475
1129.11	357.5	117641	117641
1129.61	357	123905	123905
1130.11	356.5	132588	132588
1130.61	356	143596	143596
1131.11	355.5	156969	156969
1131.61	355	171724	171724
1132.11	354.5	186727	186727
1132.61	354	200693	200693
1133.11	353.5	208866	208866
1133.61	353	209071	209071
1134.11	352.5	202128	202128
1134.61	352	187831	187831
1135.11	351.5	169789	169789
1135.61	351	150936	150936
1136.11	350.5	133750	133750
1136.61	350	119186	119186
1137.11	349.5	108371	108371
1137.61	349	99814.4	99814.4
1138.11	348.5	92794.1	92794.1
1138.61	348	87095.7	87095.7
1139.11	347.5	83058.4	83058.4
1139.61	347	79416	79416
1140.11	346.5	76810.9	76810.9
1140.61	346	75368.1	75368.1
1141.11	345.5	73176	73176
1141.61	345	71736.9	71736.9
1142.11	344.5	71120.7	71120.7
1142.61	344	70449.6	70449.6
1143.11	343.5	70698.5	70698.5
1143.61	343	72067.7	72067.7
1144.11	342.5	72709.2	72709.2
1144.61	342	74930.2	74930.2
1145.11	341.5	77297.9	77297.9
1145.61	341	80920.9	80920.9
1146.11	340.5	84502.9	84502.9
1146.61	340	90200.4	90200.4
1147.11	339.5	97252.2	97252.2
1147.61	339	106546	106546
1148.11	338.5	119974	119974
1148.61	338	137011	137011
1149.11	337.5	157017	157017
1149.61	337	181171	181171
1150.11	336.5	208263	208263
1150.61	336	231865	231865
1151.11	335.5	249258	249258
1151.61	335	251409	251409
1152.11	334.5	239448	239448
1152.61	334	213778	213778
1153.11	333.5	182257	182257
1153.61	333	149639	149639
1154.11	332.5	120782	120782
1154.61	332	97909.5	97909.5
1155.11	331.5	80186.9	80186.9
1155.61	331	65564.2	65564.2
1156.11	330.5	54123.1	54123.1
1156.61	330	45819.8	45819.8
1157.11	329.5	38440.8	38440.8
1157.61	329	32962.7	32962.7
1158.11	328.5	29147.7	29147.7
1158.61	328	25463.7	25463.7
1159.11	327.5	22190.3	22190.3
1159.61	327	19429.1	19429.1
1160.11	326.5	17301.1	17301.1
1160.61	326	16047.6	16047.6
1161.11	325.5	14232.6	14232.6
1161.61	325	12664.9	12664.9
1162.11	324.5	11757.3	11757.3
1162.61	324	10847.4	10847.4
1163.11	323.5	10137.4	10137.4
1163.61	323	9139.29	9139.29
1164.11	322.5	8432.1	8432.1
1164.61	322	7490.45	7490.45
1165.11	321.5	7150.24	7150.24
1165.61	321	6905.13	6905.13
1166.11	320.5	6705.91	6705.91
1166.61	320	5569.4	5569.4
1167.11	319.5	5611.48	5611.48
1167.61	319	5333.26	5333.26
1168.11	318.5	4857.62	4857.62
1168.61	318	4795.17	4795.17
1169.11	317.5	4174.57	4174.57
1169.61	317	4179.44	4179.44
1170.11	316.5	4151.38	4151.38
1170.61	316	3315.38	3315.38
1171.11	315.5	3287.86	3287.86
1171.61	315	3207.78	3207.78
1172.11	314.5	3108.68	3108.68
1172.61	314	2370.17	2370.17
1173.11	313.5	2365.39	2365.39
1173.61	313	2029.29	2029.29
1174.11	312.5	1959.37	1959.37
1174.61	312	1883.15	1883.15
1175.11	311.5	1650.56	1650.56
1175.61	311	1578.18	1578.18
1176.11	310.5	1671.72	1671.72
1176.61	310	1379.83	1379.83
1177.11	309.5	1204.61	1204.61
1177.61	309	1375.7	1375.7
1178.11	308.5	1110.83	1110.83
1178.61	308	1000.02	1000.02
1179.11	307.5	1244.9	1244.9
1179.61	307	1043.22	1043.22
1180.11	306.5	865.193	865.193
1180.61	306	712.243	712.243
1181.11	305.5	867.967	867.967
1181.61	305	903.092	903.092
1182.11	304.5	657.371	657.371
1182.61	304	576.969	576.969
1183.11	303.5	592.134	592.134
1183.61	303	308.4	308.4
1184.11	302.5	376.651	376.651
1184.61	302	399.253	399.253
1185.11	301.5	299.571	299.571
1185.61	301	190.933	190.933
1186.11	300.5	252.59	252.59
1186.61	300	194.216	194.216
1187.11	299.5	60.5987	60.5987
1187.61	299	169.19	169.19
1188.11	298.5	220.499	220.499
1188.61	298	329.433	329.433
1189.11	297.5	48.3159	48.3159
1189.61	297	-11.2892	-11.2892
1190.11	296.5	-46.6514	-46.6514
1190.61	296	-143.367	-143.367
1191.11	295.5	-302.48	-302.48
1191.61	295	-220.669	-220.669
1192.11	294.5	-395.157	-395.157
1192.61	294	-168.866	-168.866
1193.11	293.5	-64.6453	-64.6453
1193.61	293	-154.47	-154.47
1194.11	292.5	-16.3049	-16.3049
1194.61	292	-130.51	-130.51
1195.11	291.5	38.7281	38.7281
1195.61	291	157.683	157.683
1196.11	290.5	193.241	193.241
1196.61	290	342.987	342.987
1197.11	289.5	652.96	652.96
1197.61	289	812.053	812.053
1198.11	288.5	1128.41	1128.41
1198.61	288	2014.98	2014.98
1199.11	287.5	1853.58	1853.58
1199.61	287	2083.8	2083.8
1200.11	286.5	2386.77	2386.77
1200.61	286	2818.42	2818.42
1201.11	285.5	4633.86	4633.86
1201.61	285	6846.77	6846.77
1202.11	284.5	8113.67	8113.67
1202.61	284	8260.08	8260.08
1203.11	283.5	6877.2	6877.2
1203.61	283	4050.89	4050.89
1204.11	282.5	1556.66	1556.66
1204.61	282	438.812	438.812
1205.11	281.5	-288.752	-288.752
1205.61	281	-826.092	-826.092
1206.11	280.5	-921.174	-921.174
1206.61	280	-604.816	-604.816
1207.11	279.5	-900.702	-900.702
1207.61	279	-738.973	-738.973
1208.11	278.5	-639.822	-639.822
1208.61	278	-638.211	-638.211
1209.11	277.5	-441.867	-441.867
1209.61	277	-934.167	-934.167
1210.11	276.5	-1272.38	-1272.38
1210.61	276	-788.902	-788.902
1211.11	275.5	-817.117	-817.117
1211.61	275	-749.136	-749.136
1212.11	274.5	-113.734	-113.734
1212.61	274	-770.261	-770.261
1213.11	273.5	-521.563	-521.563
1213.61	273	-625.756	-625.756
1214.11	272.5	-615.279	-615.279
1214.61	272	-699.379	-699.379
1215.11	271.5	-812.15	-812.15
1215.61	271	-382.806	-382.806
1216.11	270.5	-439.634	-439.634
1216.61	270	-374.16	-374.16
1217.11	269.5	-425.5	-425.5
1217.61	269	-245.783	-245.783
1218.11	268.5	-332.655	-332.655
1218.61	268	-180.024	-180.024
1219.11	267.5	-581.627	-581.627
1219.61	267	-612.969	-612.969
1220.11	266.5	-274.403	-274.403
1220.61	266	121.217	121.217
1221.11	265.5	-518.2	-518.2
1221.61	265	-279.552	-279.552
1222.11	264.5	-79.2313	-79.2313
1222.61	264	-244.403	-244.403
1223.11	263.5	-147.075	-147.075
1223.61	263	-38.9109	-38.9109
1224.11	262.5	-464.018	-464.018
1224.61	262	-514.982	-514.982