C:\Users\Mark\ownCloud\Muelheim Group\Projects\Gas phase background\EX321_CEC356_Au Ag and Cu in O2_clean.vms
Au4d
	Characteristic Energy eV	1486.61	Acquisition Time s	0.1
KE_Au4d	BE_Au4d	CPS_Au4d	Background_Au4d
960.61	526	23481.8	23481.8
961.11	525.5	23343.9	23343.9
961.61	525	23401.8	23401.8
962.11	524.5	23566	23566
962.61	524	23888.1	23888.1
963.11	523.5	23687.6	23687.6
963.61	523	23731.7	23731.7
964.11	522.5	23955.9	23955.9
964.61	522	23984.6	23984.6
965.11	521.5	23711.3	23711.3
965.61	521	23676.2	23676.2
966.11	520.5	23940.6	23940.6
966.61	520	24004.1	24004.1
967.11	519.5	23986.6	23986.6
967.61	519	23883.5	23883.5
968.11	518.5	23918.3	23918.3
968.61	518	23966.7	23966.7
969.11	517.5	23826.9	23826.9
969.61	517	24212.1	24212.1
970.11	516.5	24215.9	24215.9
970.61	516	24306.1	24306.1
971.11	515.5	24249.2	24249.2
971.61	515	24246.4	24246.4
972.11	514.5	24207.9	24207.9
972.61	514	24480.6	24480.6
973.11	513.5	24504.8	24504.8
973.61	513	24321.5	24321.5
974.11	512.5	24234	24234
974.61	512	24211.8	24211.8
975.11	511.5	24432.9	24432.9
975.61	511	24677.9	24677.9
976.11	510.5	24311.7	24311.7
976.61	510	24890.7	24890.7
977.11	509.5	24389.6	24389.6
977.61	509	24280.6	24280.6
978.11	508.5	24487.6	24487.6
978.61	508	24540	24540
979.11	507.5	24805.4	24805.4
979.61	507	24639.7	24639.7
980.11	506.5	24674	24674
980.61	506	24938.4	24938.4
981.11	505.5	25166.9	25166.9
981.61	505	24885.8	24885.8
982.11	504.5	25006.1	25006.1
982.61	504	24971.4	24971.4
983.11	503.5	25132.6	25132.6
983.61	503	25665.7	25665.7
984.11	502.5	25255.4	25255.4
984.61	502	24917.2	24917.2
985.11	501.5	25192.1	25192.1
985.61	501	25049.6	25049.6
986.11	500.5	25169.5	25169.5
986.61	500	25146.2	25146.2
987.11	499.5	25270.9	25270.9
987.61	499	25472.1	25472.1
988.11	498.5	25267.3	25267.3
988.61	498	25201	25201
989.11	497.5	25563.1	25563.1
989.61	497	25654.8	25654.8
990.11	496.5	25469.2	25469.2
990.61	496	25487.5	25487.5
991.11	495.5	25297.3	25297.3
991.61	495	25644.4	25644.4
992.11	494.5	25664.2	25664.2
992.61	494	25553.8	25553.8
993.11	493.5	25828.8	25828.8
993.61	493	25706.6	25706.6
994.11	492.5	25839.4	25839.4
994.61	492	26050	26050
995.11	491.5	26012.7	26012.7
995.61	491	25861.3	25861.3
996.11	490.5	25971.3	25971.3
996.61	490	26068.7	26068.7
997.11	489.5	26310.9	26310.9
997.61	489	26405.1	26405.1
998.11	488.5	26187.4	26187.4
998.61	488	26363.6	26363.6
999.11	487.5	26585.3	26585.3
999.61	487	26454.9	26454.9
1000.11	486.5	26481.2	26481.2
1000.61	486	26225.6	26225.6
1001.11	485.5	26032.5	26032.5
1001.61	485	26463	26463
1002.11	484.5	26721.3	26721.3
1002.61	484	26817.2	26817.2
1003.11	483.5	26752.2	26752.2
1003.61	483	26324.2	26324.2
1004.11	482.5	26526.3	26526.3
1004.61	482	26906	26906
1005.11	481.5	26677.9	26677.9
1005.61	481	26797.6	26797.6
1006.11	480.5	26867.1	26867.1
1006.61	480	27088.1	27088.1
1007.11	479.5	27092.2	27092.2
1007.61	479	27272.9	27272.9
1008.11	478.5	27104.6	27104.6
1008.61	478	27063.4	27063.4
1009.11	477.5	27514.5	27514.5
1009.61	477	27215.4	27215.4
1010.11	476.5	27390.2	27390.2
1010.61	476	27056.8	27056.8
1011.11	475.5	27511.7	27511.7
1011.61	475	27517.7	27517.7
1012.11	474.5	27425.1	27425.1
1012.61	474	27374.7	27374.7
1013.11	473.5	27256.6	27256.6
1013.61	473	27695.4	27695.4
1014.11	472.5	27582.6	27582.6
1014.61	472	27509.4	27509.4
1015.11	471.5	27952	27952
1015.61	471	27670.6	27670.6
1016.11	470.5	27674.4	27674.4
1016.61	470	27728.8	27728.8
1017.11	469.5	27822.5	27822.5
1017.61	469	27900.9	27900.9
1018.11	468.5	27809.8	27809.8
1018.61	468	28252.6	28252.6
1019.11	467.5	28362	28362
1019.61	467	28272	28272
1020.11	466.5	28366.7	28366.7
1020.61	466	28277	28277
1021.11	465.5	28234.9	28234.9
1021.61	465	28297.6	28297.6
1022.11	464.5	28547.5	28547.5
1022.61	464	28705.1	28705.1
1023.11	463.5	28368.6	28368.6
1023.61	463	28842	28842
1024.11	462.5	28583.4	28583.4
1024.61	462	28806.7	28806.7
1025.11	461.5	28799.4	28799.4
1025.61	461	29083.2	29083.2
1026.11	460.5	29117.9	29117.9
1026.61	460	29220.9	29220.9
1027.11	459.5	29113.7	29113.7
1027.61	459	29041.7	29041.7
1028.11	458.5	29644.4	29644.4
1028.61	458	29269.3	29269.3
1029.11	457.5	29147.2	29147.2
1029.61	457	29535.7	29535.7
1030.11	456.5	29907.4	29907.4
1030.61	456	29976.2	29976.2
1031.11	455.5	29787.8	29787.8
1031.61	455	29897.5	29897.5
1032.11	454.5	29687.7	29687.7
1032.61	454	29168.1	29168.1
1033.11	453.5	29436.1	29436.1
1033.61	453	29848.1	29848.1
1034.11	452.5	29963.6	29963.6
1034.61	452	30163.5	30163.5
1035.11	451.5	30091.4	30091.4
1035.61	451	29770.5	29770.5
1036.11	450.5	30096	30096
1036.61	450	30354.2	30354.2
1037.11	449.5	29739.2	29739.2
1037.61	449	30020.8	30020.8
1038.11	448.5	30412	30412
1038.61	448	30335.3	30335.3
1039.11	447.5	30473.4	30473.4
1039.61	447	30387.3	30387.3
1040.11	446.5	30532.1	30532.1
1040.61	446	30761.8	30761.8
1041.11	445.5	30749.2	30749.2
1041.61	445	30696.3	30696.3
1042.11	444.5	30681.4	30681.4
1042.61	444	30732.9	30732.9
1043.11	443.5	31090.5	31090.5
1043.61	443	30751.8	30751.8
1044.11	442.5	30841.7	30841.7
1044.61	442	31295.1	31295.1
1045.11	441.5	31188.1	31188.1
1045.61	441	31345.5	31345.5
1046.11	440.5	31693.8	31693.8
1046.61	440	31670.1	31670.1
1047.11	439.5	31464.4	31464.4
1047.61	439	31455	31455
1048.11	438.5	31571.6	31571.6
1048.61	438	31825.2	31825.2
1049.11	437.5	31633	31633
1049.61	437	31553.8	31553.8
1050.11	436.5	31426.5	31426.5
1050.61	436	31711.2	31711.2
1051.11	435.5	31709.6	31709.6
1051.61	435	31964.7	31964.7
1052.11	434.5	32167.6	32167.6
1052.61	434	32284.9	32284.9
1053.11	433.5	32149.8	32149.8
1053.61	433	32019.7	32019.7
1054.11	432.5	31979.9	31979.9
1054.61	432	31974.1	31974.1
1055.11	431.5	32273.1	32273.1
1055.61	431	32230.2	32230.2
1056.11	430.5	32456.8	32456.8
1056.61	430	32551	32551
1057.11	429.5	32567.6	32567.6
1057.61	429	32702.8	32702.8
1058.11	428.5	32784.6	32784.6
1058.61	428	32845.2	32845.2
1059.11	427.5	33254.2	33254.2
1059.61	427	33156.8	33156.8
1060.11	426.5	33000.3	33000.3
1060.61	426	33078.3	33078.3
1061.11	425.5	33102.2	33102.2
1061.61	425	33211.9	33211.9
1062.11	424.5	33484.9	33484.9
1062.61	424	33677.5	33677.5
1063.11	423.5	33510.8	33510.8
1063.61	423	33652.4	33652.4
1064.11	422.5	33773.4	33773.4
1064.61	422	34046.4	34046.4
1065.11	421.5	33594.8	33594.8
1065.61	421	34241.8	34241.8
1066.11	420.5	33937.9	33937.9
1066.61	420	33681.7	33681.7
1067.11	419.5	33731.3	33731.3
1067.61	419	33709.7	33709.7
1068.11	418.5	33676.9	33676.9
1068.61	418	34142.6	34142.6
1069.11	417.5	34370.9	34370.9
1069.61	417	34191.9	34191.9
1070.11	416.5	34154.9	34154.9
1070.61	416	33823.2	33823.2
1071.11	415.5	33951.9	33951.9
1071.61	415	34199.3	34199.3
1072.11	414.5	34149.4	34149.4
1072.61	414	34269.3	34269.3
1073.11	413.5	34701.9	34701.9
1073.61	413	34944.5	34944.5
1074.11	412.5	34820	34820
1074.61	412	34960.6	34960.6
1075.11	411.5	35077.6	35077.6
1075.61	411	35409.7	35409.7
1076.11	410.5	35030	35030
1076.61	410	35027.2	35027.2
1077.11	409.5	34701.2	34701.2
1077.61	409	34888.9	34888.9
1078.11	408.5	35241	35241
1078.61	408	35274.3	35274.3
1079.11	407.5	35167	35167
1079.61	407	35469.6	35469.6
1080.11	406.5	35804.8	35804.8
1080.61	406	35962	35962
1081.11	405.5	35683.3	35683.3
1081.61	405	35093.3	35093.3
1082.11	404.5	35706.5	35706.5
1082.61	404	35679.5	35679.5
1083.11	403.5	36078.8	36078.8
1083.61	403	35987.3	35987.3
1084.11	402.5	35906.9	35906.9
1084.61	402	35983.4	35983.4
1085.11	401.5	36274	36274
1085.61	401	36678.8	36678.8
1086.11	400.5	36285	36285
1086.61	400	36601.9	36601.9
1087.11	399.5	36701	36701
1087.61	399	36508.8	36508.8
1088.11	398.5	36707.6	36707.6
1088.61	398	36898.4	36898.4
1089.11	397.5	37221.3	37221.3
1089.61	397	36908.2	36908.2
1090.11	396.5	37313.3	37313.3
1090.61	396	36970.5	36970.5
1091.11	395.5	36943	36943
1091.61	395	36598.8	36598.8
1092.11	394.5	36904.4	36904.4
1092.61	394	37116.9	37116.9
1093.11	393.5	37199.8	37199.8
1093.61	393	37271.5	37271.5
1094.11	392.5	37401.7	37401.7
1094.61	392	37631.4	37631.4
1095.11	391.5	37418.4	37418.4
1095.61	391	37608.2	37608.2
1096.11	390.5	37744	37744
1096.61	390	37587.3	37587.3
1097.11	389.5	37446.8	37446.8
1097.61	389	37739.7	37739.7
1098.11	388.5	37837.1	37837.1
1098.61	388	37508.2	37508.2
1099.11	387.5	38066.9	38066.9
1099.61	387	38394.8	38394.8
1100.11	386.5	38300.1	38300.1
1100.61	386	38271.3	38271.3
1101.11	385.5	38751.3	38751.3
1101.61	385	38517.2	38517.2
1102.11	384.5	38449.3	38449.3
1102.61	384	38623.2	38623.2
1103.11	383.5	38916.5	38916.5
1103.61	383	38481.6	38481.6
1104.11	382.5	38931.9	38931.9
1104.61	382	38771.7	38771.7
1105.11	381.5	38745.8	38745.8
1105.61	381	38922.8	38922.8
1106.11	380.5	39417.3	39417.3
1106.61	380	39479.3	39479.3
1107.11	379.5	39135.4	39135.4
1107.61	379	39777.6	39777.6
1108.11	378.5	39387.3	39387.3
1108.61	378	39332.1	39332.1
1109.11	377.5	39495.1	39495.1
1109.61	377	39467.3	39467.3
1110.11	376.5	39685.2	39685.2
1110.61	376	39811.1	39811.1
1111.11	375.5	39914.2	39914.2
1111.61	375	39862.5	39862.5
1112.11	374.5	39809.9	39809.9
1112.61	374	39399.8	39399.8
1113.11	373.5	39650.4	39650.4
1113.61	373	39591.5	39591.5
1114.11	372.5	39655.7	39655.7
1114.61	372	39614.5	39614.5
1115.11	371.5	39923.9	39923.9
1115.61	371	39631.6	39631.6
1116.11	370.5	39903.9	39903.9
1116.61	370	39751.9	39751.9
1117.11	369.5	39583	39583
1117.61	369	39650.8	39650.8
1118.11	368.5	39174.2	39174.2
1118.61	368	38842	38842
1119.11	367.5	39144.4	39144.4
1119.61	367	38433.4	38433.4
1120.11	366.5	38331.7	38331.7
1120.61	366	38220.6	38220.6
1121.11	365.5	38192.2	38192.2
1121.61	365	37852.2	37852.2
1122.11	364.5	37900.5	37900.5
1122.61	364	37426.4	37426.4
1123.11	363.5	37806.8	37806.8
1123.61	363	38115.6	38115.6
1124.11	362.5	38218.7	38218.7
1124.61	362	38542.7	38542.7
1125.11	361.5	38597.9	38597.9
1125.61	361	39195.3	39195.3
1126.11	360.5	39067.8	39067.8
1126.61	360	39353.7	39353.7
1127.11	359.5	39645.3	39645.3
1127.61	359	40174.4	40174.4
1128.11	358.5	40478.8	40478.8
1128.61	358	41509.5	41509.5
1129.11	357.5	42316.5	42316.5
1129.61	357	44200.3	44200.3
1130.11	356.5	46615.4	46615.4
1130.61	356	49162.6	49162.6
1131.11	355.5	52673.6	52673.6
1131.61	355	56298	56298
1132.11	354.5	59870.4	59870.4
1132.61	354	63896	63896
1133.11	353.5	65758.8	65758.8
1133.61	353	66166.2	66166.2
1134.11	352.5	63817.2	63817.2
1134.61	352	59714.6	59714.6
1135.11	351.5	54426	54426
1135.61	351	49050.2	49050.2
1136.11	350.5	44054.4	44054.4
1136.61	350	40496.9	40496.9
1137.11	349.5	37019.8	37019.8
1137.61	349	34125.6	34125.6
1138.11	348.5	31652.7	31652.7
1138.61	348	29656.5	29656.5
1139.11	347.5	27858.9	27858.9
1139.61	347	26784.1	26784.1
1140.11	346.5	26035.9	26035.9
1140.61	346	25588.6	25588.6
1141.11	345.5	24683.6	24683.6
1141.61	345	24667.1	24667.1
1142.11	344.5	24286.9	24286.9
1142.61	344	24177.2	24177.2
1143.11	343.5	23796.4	23796.4
1143.61	343	23362	23362
1144.11	342.5	23348.4	23348.4
1144.61	342	23488.5	23488.5
1145.11	341.5	23614.3	23614.3
1145.61	341	24278.2	24278.2
1146.11	340.5	24901.2	24901.2
1146.61	340	25964.5	25964.5
1147.11	339.5	27910.1	27910.1
1147.61	339	30501.3	30501.3
1148.11	338.5	33850.9	33850.9
1148.61	338	38344.7	38344.7
1149.11	337.5	43514.5	43514.5
1149.61	337	49859.7	49859.7
1150.11	336.5	57296.8	57296.8
1150.61	336	63196.3	63196.3
1151.11	335.5	67757.1	67757.1
1151.61	335	67980.2	67980.2
1152.11	334.5	65095.6	65095.6
1152.61	334	57959.5	57959.5
1153.11	333.5	49842.7	49842.7
1153.61	333	41216.4	41216.4
1154.11	332.5	33271	33271
1154.61	332	26844.6	26844.6
1155.11	331.5	22239	22239
1155.61	331	18206.4	18206.4
1156.11	330.5	15148	15148
1156.61	330	12896	12896
1157.11	329.5	10929.8	10929.8
1157.61	329	9695.41	9695.41
1158.11	328.5	8325.13	8325.13
1158.61	328	7261.25	7261.25
1159.11	327.5	6508.72	6508.72
1159.61	327	5420.17	5420.17
1160.11	326.5	5085.75	5085.75
1160.61	326	4710.38	4710.38
1161.11	325.5	3934.73	3934.73
1161.61	325	3687.64	3687.64
1162.11	324.5	3380.65	3380.65
1162.61	324	3017.78	3017.78
1163.11	323.5	2901.04	2901.04
1163.61	323	2565.96	2565.96
1164.11	322.5	2460.21	2460.21
1164.61	322	2302.77	2302.77
1165.11	321.5	2201.66	2201.66
1165.61	321	2300.42	2300.42
1166.11	320.5	2172.31	2172.31
1166.61	320	1849.92	1849.92
1167.11	319.5	1648.94	1648.94
1167.61	319	1511.29	1511.29
1168.11	318.5	1675.09	1675.09
1168.61	318	1669.91	1669.91
1169.11	317.5	1490.66	1490.66
1169.61	317	1334.22	1334.22
1170.11	316.5	1267.74	1267.74
1170.61	316	1120.17	1120.17
1171.11	315.5	1264.4	1264.4
1171.61	315	1200.21	1200.21
1172.11	314.5	1025.89	1025.89
1172.61	314	1068.51	1068.51
1173.11	313.5	823.721	823.721
1173.61	313	745.256	745.256
1174.11	312.5	738.062	738.062
1174.61	312	950.527	950.527
1175.11	311.5	621.027	621.027
1175.61	311	855.835	855.835
1176.11	310.5	985.561	985.561
1176.61	310	549.31	549.31
1177.11	309.5	523.263	523.263
1177.61	309	535.744	535.744
1178.11	308.5	780.922	780.922
1178.61	308	816.474	816.474
1179.11	307.5	752.221	752.221
1179.61	307	485.863	485.863
1180.11	306.5	469.265	469.265
1180.61	306	611.637	611.637
1181.11	305.5	707.064	707.064
1181.61	305	550.516	550.516
1182.11	304.5	370.347	370.347
1182.61	304	471.732	471.732
1183.11	303.5	609.612	609.612
1183.61	303	574.453	574.453
1184.11	302.5	460.605	460.605
1184.61	302	290.917	290.917
1185.11	301.5	4.7245	4.7245
1185.61	301	537.38	537.38
1186.11	300.5	66.3918	66.3918
1186.61	300	450.021	450.021
1187.11	299.5	316.748	316.748
1187.61	299	192.062	192.062
1188.11	298.5	30.1618	30.1618
1188.61	298	53.3189	53.3189
1189.11	297.5	310.553	310.553
1189.61	297	19.386	19.386
1190.11	296.5	276.475	276.475
1190.61	296	126.944	126.944
1191.11	295.5	269.428	269.428
1191.61	295	107.978	107.978
1192.11	294.5	162.389	162.389
1192.61	294	129.333	129.333
1193.11	293.5	346.626	346.626
1193.61	293	280.349	280.349
1194.11	292.5	421.884	421.884
1194.61	292	388.138	388.138
1195.11	291.5	167.959	167.959
1195.61	291	159.252	159.252
1196.11	290.5	368.888	368.888
1196.61	290	85.7521	85.7521
1197.11	289.5	412.531	412.531
1197.61	289	300.835	300.835
1198.11	288.5	579.89	579.89
1198.61	288	752.8	752.8
1199.11	287.5	859.219	859.219
1199.61	287	942.994	942.994
1200.11	286.5	1168	1168
1200.61	286	1501.74	1501.74
1201.11	285.5	1575.46	1575.46
1201.61	285	2087.78	2087.78
1202.11	284.5	2404.08	2404.08
1202.61	284	2531.32	2531.32
1203.11	283.5	1959.78	1959.78
1203.61	283	1206.37	1206.37
1204.11	282.5	461.014	461.014
1204.61	282	-18.7724	-18.7724
1205.11	281.5	6.40756	6.40756
1205.61	281	96.8699	96.8699
1206.11	280.5	256.013	256.013
1206.61	280	236.605	236.605
1207.11	279.5	31.7371	31.7371
1207.61	279	-106.036	-106.036
1208.11	278.5	206.751	206.751
1208.61	278	272.194	272.194
1209.11	277.5	-85.1077	-85.1077
1209.61	277	19.6247	19.6247
1210.11	276.5	356.999	356.999
1210.61	276	94.2951	94.2951
1211.11	275.5	334.571	334.571
1211.61	275	11.5688	11.5688
1212.11	274.5	309.528	309.528
1212.61	274	161.6	161.6
1213.11	273.5	204.295	204.295
1213.61	273	115.901	115.901
1214.11	272.5	66.5965	66.5965
1214.61	272	31.8741	31.8741
1215.11	271.5	331.231	331.231
1215.61	271	-26.9228	-26.9228
1216.11	270.5	188.306	188.306
1216.61	270	277.787	277.787
1217.11	269.5	238.664	238.664
1217.61	269	35.8046	35.8046
1218.11	268.5	256.151	256.151
1218.61	268	384.626	384.626
1219.11	267.5	180.062	180.062
1219.61	267	431.897	431.897
1220.11	266.5	404.468	404.468
1220.61	266	498.987	498.987
1221.11	265.5	338.555	338.555
1221.61	265	103.923	103.923
1222.11	264.5	135.871	135.871
1222.61	264	472.456	472.456
1223.11	263.5	233.914	233.914
1223.61	263	80.7172	80.7172
1224.11	262.5	183.049	183.049
1224.61	262	348.114	348.114