C:\Users\Mark\ownCloud\Muelheim Group\Projects\Gas phase background\EX321_CEC356_Au Ag and Cu in O2_clean.vms
Au4f
	Characteristic Energy eV	1486.61	Acquisition Time s	0.9
KE_Au4f	BE_Au4f	CPS_Au4f
1311.61	175	10593.3
1311.71	174.9	10602.5
1311.81	174.8	10608.1
1311.91	174.7	10713.4
1312.01	174.6	10651.1
1312.11	174.5	10672.3
1312.21	174.4	10628.8
1312.31	174.3	10652.4
1312.41	174.2	10597
1312.51	174.1	10667
1312.61	174	10742.7
1312.71	173.9	10698.5
1312.81	173.8	10728.5
1312.91	173.7	10671.5
1313.01	173.6	10639.8
1313.11	173.5	10624.1
1313.21	173.4	10647.6
1313.31	173.3	10646.5
1313.41	173.2	10744.5
1313.51	173.1	10650.1
1313.61	173	10601.7
1313.71	172.9	10641.2
1313.81	172.8	10683.5
1313.91	172.7	10676.1
1314.01	172.6	10719.1
1314.11	172.5	10674.1
1314.21	172.4	10592.3
1314.31	172.3	10606.1
1314.41	172.2	10616.3
1314.51	172.1	10625.6
1314.61	172	10669.1
1314.71	171.9	10638
1314.81	171.8	10761.3
1314.91	171.7	10710.2
1315.01	171.6	10677.6
1315.11	171.5	10733.6
1315.21	171.4	10661.8
1315.31	171.3	10752.9
1315.41	171.2	10715.9
1315.51	171.1	10758.3
1315.61	171	10709.6
1315.71	170.9	10640.1
1315.81	170.8	10766.1
1315.91	170.7	10771.5
1316.01	170.6	10795.1
1316.11	170.5	10760.3
1316.21	170.4	10817.4
1316.31	170.3	10664.9
1316.41	170.2	10675.2
1316.51	170.1	10688.1
1316.61	170	10690.7
1316.71	169.9	10784.4
1316.81	169.8	10750.2
1316.91	169.7	10710.9
1317.01	169.6	10801.6
1317.11	169.5	10778.5
1317.21	169.4	10638.8
1317.31	169.3	10603.6
1317.41	169.2	10744.5
1317.51	169.1	10838.8
1317.61	169	10778.1
1317.71	168.9	10761.7
1317.81	168.8	10726.6
1317.91	168.7	10783.7
1318.01	168.6	10775.4
1318.11	168.5	10871.7
1318.21	168.4	10792.3
1318.31	168.3	10798.5
1318.41	168.2	10707
1318.51	168.1	10826.2
1318.61	168	10819.9
1318.71	167.9	10815.4
1318.81	167.8	10737.8
1318.91	167.7	10853.1
1319.01	167.6	10838.1
1319.11	167.5	10805.7
1319.21	167.4	10759.5
1319.31	167.3	10811.3
1319.41	167.2	10893
1319.51	167.1	10782.5
1319.61	167	10890.3
1319.71	166.9	10875.7
1319.81	166.8	10708.8
1319.91	166.7	10763.9
1320.01	166.6	10811.1
1320.11	166.5	10800.5
1320.21	166.4	10838.7
1320.31	166.3	10790.4
1320.41	166.2	10893.7
1320.51	166.1	10772.2
1320.61	166	10790.2
1320.71	165.9	10806
1320.81	165.8	10829.9
1320.91	165.7	10858.6
1321.01	165.6	10889.6
1321.11	165.5	10918.3
1321.21	165.4	10935.1
1321.31	165.3	10901
1321.41	165.2	10876.1
1321.51	165.1	10821.4
1321.61	165	10898.2
1321.71	164.9	10880.4
1321.81	164.8	10743.8
1321.91	164.7	10840.2
1322.01	164.6	10876.3
1322.11	164.5	10852.9
1322.21	164.4	10848.3
1322.31	164.3	10955.1
1322.41	164.2	10920.6
1322.51	164.1	10927.9
1322.61	164	10977.5
1322.71	163.9	10871.5
1322.81	163.8	10902.2
1322.91	163.7	10970.4
1323.01	163.6	10920.7
1323.11	163.5	10849.9
1323.21	163.4	10888
1323.31	163.3	10874.9
1323.41	163.2	10925.1
1323.51	163.1	10900.3
1323.61	163	10898.6
1323.71	162.9	10893.1
1323.81	162.8	10961.9
1323.91	162.7	10985.9
1324.01	162.6	10917.3
1324.11	162.5	10890
1324.21	162.4	10971.2
1324.31	162.3	10946.4
1324.41	162.2	10977.7
1324.51	162.1	10994.1
1324.61	162	11001.2
1324.71	161.9	10967.9
1324.81	161.8	11002.5
1324.91	161.7	11012.2
1325.01	161.6	11041.3
1325.11	161.5	10973.3
1325.21	161.4	10934.8
1325.31	161.3	11004.1
1325.41	161.2	10981.3
1325.51	161.1	11004.5
1325.61	161	11055
1325.71	160.9	10961
1325.81	160.8	11045.6
1325.91	160.7	10942.9
1326.01	160.6	11029.6
1326.11	160.5	10974.7
1326.21	160.4	11024.8
1326.31	160.3	11065.6
1326.41	160.2	10993.8
1326.51	160.1	11041.8
1326.61	160	11104.1
1326.71	159.9	11044.1
1326.81	159.8	11073.9
1326.91	159.7	11206.7
1327.01	159.6	11121.3
1327.11	159.5	11138.8
1327.21	159.4	11017.5
1327.31	159.3	11058.5
1327.41	159.2	11054
1327.51	159.1	11076.8
1327.61	159	11048
1327.71	158.9	11064.4
1327.81	158.8	11082.6
1327.91	158.7	11052.3
1328.01	158.6	11137.7
1328.11	158.5	11069.9
1328.21	158.4	11109.6
1328.31	158.3	11109.7
1328.41	158.2	11075.7
1328.51	158.1	11083.5
1328.61	158	11124.6
1328.71	157.9	11027.1
1328.81	157.8	11098.2
1328.91	157.7	11136.2
1329.01	157.6	11156.1
1329.11	157.5	11144
1329.21	157.4	11207.2
1329.31	157.3	11103.8
1329.41	157.2	11086.1
1329.51	157.1	11171.5
1329.61	157	11148.2
1329.71	156.9	11161.4
1329.81	156.8	11189.9
1329.91	156.7	11137.3
1330.01	156.6	11203.8
1330.11	156.5	11209.6
1330.21	156.4	11112.5
1330.31	156.3	11183.2
1330.41	156.2	11237.3
1330.51	156.1	11184.7
1330.61	156	11108.9
1330.71	155.9	11124.8
1330.81	155.8	11266.4
1330.91	155.7	11167
1331.01	155.6	11207.8
1331.11	155.5	11270.8
1331.21	155.4	11316.8
1331.31	155.3	11149.7
1331.41	155.2	11253.3
1331.51	155.1	11205.9
1331.61	155	11331.7
1331.71	154.9	11238.1
1331.81	154.8	11281.6
1331.91	154.7	11191.2
1332.01	154.6	11225.3
1332.11	154.5	11294.7
1332.21	154.4	11376
1332.31	154.3	11340.3
1332.41	154.2	11321.3
1332.51	154.1	11315.9
1332.61	154	11373.2
1332.71	153.9	11276.5
1332.81	153.8	11283.3
1332.91	153.7	11402.7
1333.01	153.6	11362.1
1333.11	153.5	11369.4
1333.21	153.4	11389.8
1333.31	153.3	11452
1333.41	153.2	11373.7
1333.51	153.1	11396.9
1333.61	153	11322.6
1333.71	152.9	11350
1333.81	152.8	11349.1
1333.91	152.7	11338.5
1334.01	152.6	11435.5
1334.11	152.5	11425.7
1334.21	152.4	11355.2
1334.31	152.3	11458.1
1334.41	152.2	11430.8
1334.51	152.1	11452.6
1334.61	152	11404.5
1334.71	151.9	11414.4
1334.81	151.8	11487.4
1334.91	151.7	11566.2
1335.01	151.6	11482.6
1335.11	151.5	11492.7
1335.21	151.4	11426.5
1335.31	151.3	11468.6
1335.41	151.2	11365.1
1335.51	151.1	11419.4
1335.61	151	11552.7
1335.71	150.9	11547.7
1335.81	150.8	11454.3
1335.91	150.7	11484
1336.01	150.6	11558.3
1336.11	150.5	11584.4
1336.21	150.4	11603.4
1336.31	150.3	11497.1
1336.41	150.2	11571.9
1336.51	150.1	11453.1
1336.61	150	11522.3
1336.71	149.9	11615.6
1336.81	149.8	11599.8
1336.91	149.7	11489.5
1337.01	149.6	11556.6
1337.11	149.5	11496.9
1337.21	149.4	11511.2
1337.31	149.3	11496.5
1337.41	149.2	11559.2
1337.51	149.1	11558.8
1337.61	149	11547
1337.71	148.9	11505.2
1337.81	148.8	11399
1337.91	148.7	11573.3
1338.01	148.6	11582.8
1338.11	148.5	11581
1338.21	148.4	11464.3
1338.31	148.3	11592.5
1338.41	148.2	11674.9
1338.51	148.1	11587.5
1338.61	148	11630.1
1338.71	147.9	11574.9
1338.81	147.8	11602.5
1338.91	147.7	11562.3
1339.01	147.6	11600
1339.11	147.5	11557.1
1339.21	147.4	11560.4
1339.31	147.3	11663.2
1339.41	147.2	11540.6
1339.51	147.1	11622.8
1339.61	147	11682
1339.71	146.9	11775.6
1339.81	146.8	11678.5
1339.91	146.7	11629
1340.01	146.6	11632.3
1340.11	146.5	11679.9
1340.21	146.4	11642.7
1340.31	146.3	11549.8
1340.41	146.2	11597.8
1340.51	146.1	11544
1340.61	146	11640.6
1340.71	145.9	11674.9
1340.81	145.8	11732.3
1340.91	145.7	11597.1
1341.01	145.6	11578.1
1341.11	145.5	11549.3
1341.21	145.4	11573.1
1341.31	145.3	11682.6
1341.41	145.2	11637.8
1341.51	145.1	11646.7
1341.61	145	11672.6
1341.71	144.9	11641.3
1341.81	144.8	11689.8
1341.91	144.7	11700.9
1342.01	144.6	11701.1
1342.11	144.5	11712.7
1342.21	144.4	11732.6
1342.31	144.3	11673.6
1342.41	144.2	11660
1342.51	144.1	11701.3
1342.61	144	11700.6
1342.71	143.9	11577.5
1342.81	143.8	11615.4
1342.91	143.7	11765.6
1343.01	143.6	11669.3
1343.11	143.5	11714.7
1343.21	143.4	11739.9
1343.31	143.3	11676.3
1343.41	143.2	11692.6
1343.51	143.1	11731.6
1343.61	143	11714.8
1343.71	142.9	11712.7
1343.81	142.8	11771.9
1343.91	142.7	11807.7
1344.01	142.6	11781.9
1344.11	142.5	11654.6
1344.21	142.4	11773
1344.31	142.3	11703.6
1344.41	142.2	11788.5
1344.51	142.1	11710.6
1344.61	142	11732.8
1344.71	141.9	11710.4
1344.81	141.8	11728.3
1344.91	141.7	11730.5
1345.01	141.6	11724.9
1345.11	141.5	11846.9
1345.21	141.4	11790.9
1345.31	141.3	11746
1345.41	141.2	11722.1
1345.51	141.1	11743.9
1345.61	141	11761.8
1345.71	140.9	11700.8
1345.81	140.8	11799.7
1345.91	140.7	11818.6
1346.01	140.6	11793.8
1346.11	140.5	11711.8
1346.21	140.4	11669.1
1346.31	140.3	11789.3
1346.41	140.2	11858.5
1346.51	140.1	11927.4
1346.61	140	11846.3
1346.71	139.9	11800.8
1346.81	139.8	11730.4
1346.91	139.7	11838.2
1347.01	139.6	11844.1
1347.11	139.5	11772.7
1347.21	139.4	11801.9
1347.31	139.3	11792.8
1347.41	139.2	11772.1
1347.51	139.1	11809.9
1347.61	139	11870.4
1347.71	138.9	11826.3
1347.81	138.8	11764.4
1347.91	138.7	11864.1
1348.01	138.6	11928.7
1348.11	138.5	11914.1
1348.21	138.4	11941.1
1348.31	138.3	11954
1348.41	138.2	11953.6
1348.51	138.1	11843.5
1348.61	138	11901.7
1348.71	137.9	11896.4
1348.81	137.8	11852.3
1348.91	137.7	11934.1
1349.01	137.6	11900.4
1349.11	137.5	11936.4
1349.21	137.4	11985.4
1349.31	137.3	11933.2
1349.41	137.2	11894.4
1349.51	137.1	11971.1
1349.61	137	11986.2
1349.71	136.9	12074.4
1349.81	136.8	11984.2
1349.91	136.7	12018.9
1350.01	136.6	12110.6
1350.11	136.5	12123.2
1350.21	136.4	12033.1
1350.31	136.3	12056.2
1350.41	136.2	12027.2
1350.51	136.1	11915.7
1350.61	136	11948.8
1350.71	135.9	12029.5
1350.81	135.8	11991.9
1350.91	135.7	11997.8
1351.01	135.6	12010.6
1351.11	135.5	12141.2
1351.21	135.4	12146.5
1351.31	135.3	12000.1
1351.41	135.2	12076.5
1351.51	135.1	12062.4
1351.61	135	12051.1
1351.71	134.9	12078.5
1351.81	134.8	12133.4
1351.91	134.7	12165.7
1352.01	134.6	12181.5
1352.11	134.5	12191.8
1352.21	134.4	12084.2
1352.31	134.3	12164.2
1352.41	134.2	12145.2
1352.51	134.1	12105.7
1352.61	134	12137.8
1352.71	133.9	12143.6
1352.81	133.8	12220.6
1352.91	133.7	12226.3
1353.01	133.6	12102.5
1353.11	133.5	12050.7
1353.21	133.4	12120
1353.31	133.3	12179.1
1353.41	133.2	12155.6
1353.51	133.1	12241.3
1353.61	133	12181.6
1353.71	132.9	12143.4
1353.81	132.8	12221.6
1353.91	132.7	12214
1354.01	132.6	12164.8
1354.11	132.5	12182.4
1354.21	132.4	12150.7
1354.31	132.3	12191.6
1354.41	132.2	12199.3
1354.51	132.1	12176.7
1354.61	132	12187
1354.71	131.9	12215.7
1354.81	131.8	12159.7
1354.91	131.7	12321.5
1355.01	131.6	12305.4
1355.11	131.5	12324.5
1355.21	131.4	12271.6
1355.31	131.3	12243.6
1355.41	131.2	12348.7
1355.51	131.1	12271.2
1355.61	131	12352.2
1355.71	130.9	12206.5
1355.81	130.8	12206.4
1355.91	130.7	12187.6
1356.01	130.6	12252.4
1356.11	130.5	12303.5
1356.21	130.4	12316.4
1356.31	130.3	12271.3
1356.41	130.2	12320.7
1356.51	130.1	12352.2
1356.61	130	12347.8
1356.71	129.9	12348.6
1356.81	129.8	12443.6
1356.91	129.7	12336.2
1357.01	129.6	12451
1357.11	129.5	12408.3
1357.21	129.4	12451.8
1357.31	129.3	12484.5
1357.41	129.2	12394.7
1357.51	129.1	12394
1357.61	129	12367.6
1357.71	128.9	12397
1357.81	128.8	12477.7
1357.91	128.7	12476.4
1358.01	128.6	12466.7
1358.11	128.5	12458.1
1358.21	128.4	12531.5
1358.31	128.3	12504.1
1358.41	128.2	12524.8
1358.51	128.1	12663.2
1358.61	128	12585
1358.71	127.9	12568.7
1358.81	127.8	12443.9
1358.91	127.7	12513.4
1359.01	127.6	12571.1
1359.11	127.5	12560.2
1359.21	127.4	12592
1359.31	127.3	12521.3
1359.41	127.2	12566.5
1359.51	127.1	12514
1359.61	127	12584.1
1359.71	126.9	12662.7
1359.81	126.8	12700.5
1359.91	126.7	12630.3
1360.01	126.6	12516
1360.11	126.5	12594.5
1360.21	126.4	12673.7
1360.31	126.3	12746.6
1360.41	126.2	12607.8
1360.51	126.1	12669.6
1360.61	126	12696.6
1360.71	125.9	12703.3
1360.81	125.8	12734.8
1360.91	125.7	12786.2
1361.01	125.6	12825.1
1361.11	125.5	12792
1361.21	125.4	12800.8
1361.31	125.3	12885.9
1361.41	125.2	12820.9
1361.51	125.1	12788.4
1361.61	125	12806.1
1361.71	124.9	12853.9
1361.81	124.8	12773.1
1361.91	124.7	12871.2
1362.01	124.6	12890.6
1362.11	124.5	12788.1
1362.21	124.4	12789.7
1362.31	124.3	12831.8
1362.41	124.2	12980.2
1362.51	124.1	13033.9
1362.61	124	12984.9
1362.71	123.9	12967.2
1362.81	123.8	12955.4
1362.91	123.7	13007.5
1363.01	123.6	12975.7
1363.11	123.5	12937.9
1363.21	123.4	13047.2
1363.31	123.3	13095.7
1363.41	123.2	13096.9
1363.51	123.1	13076.7
1363.61	123	13146
1363.71	122.9	13122.9
1363.81	122.8	13094.2
1363.91	122.7	13109.3
1364.01	122.6	13143.9
1364.11	122.5	13204
1364.21	122.4	13212
1364.31	122.3	13271.5
1364.41	122.2	13277.1
1364.51	122.1	13242
1364.61	122	13311.9
1364.71	121.9	13275.6
1364.81	121.8	13297.9
1364.91	121.7	13357.9
1365.01	121.6	13377.3
1365.11	121.5	13344.5
1365.21	121.4	13231
1365.31	121.3	13383.6
1365.41	121.2	13385.5
1365.51	121.1	13405.6
1365.61	121	13441.1
1365.71	120.9	13446.4
1365.81	120.8	13470.5
1365.91	120.7	13444.3
1366.01	120.6	13410.5
1366.11	120.5	13465.6
1366.21	120.4	13494.3
1366.31	120.3	13511.3
1366.41	120.2	13548.7
1366.51	120.1	13454
1366.61	120	13472.9
1366.71	119.9	13535.6
1366.81	119.8	13393.6
1366.91	119.7	13492.8
1367.01	119.6	13545.6
1367.11	119.5	13676.6
1367.21	119.4	13575.9
1367.31	119.3	13556.1
1367.41	119.2	13552.5
1367.51	119.1	13639.5
1367.61	119	13666.3
1367.71	118.9	13515.5
1367.81	118.8	13612.4
1367.91	118.7	13654.4
1368.01	118.6	13580.3
1368.11	118.5	13578.2
1368.21	118.4	13643.8
1368.31	118.3	13547.3
1368.41	118.2	13615.9
1368.51	118.1	13698.5
1368.61	118	13713.9
1368.71	117.9	13724
1368.81	117.8	13713.2
1368.91	117.7	13663.4
1369.01	117.6	13684.3
1369.11	117.5	13661.6
1369.21	117.4	13664.3
1369.31	117.3	13577.8
1369.41	117.2	13610.3
1369.51	117.1	13670.5
1369.61	117	13771.8
1369.71	116.9	13851.2
1369.81	116.8	13742
1369.91	116.7	13737.7
1370.01	116.6	13801.4
1370.11	116.5	13682.1
1370.21	116.4	13763.7
1370.31	116.3	13756.6
1370.41	116.2	13791.4
1370.51	116.1	13895.1
1370.61	116	13801.5
1370.71	115.9	13808.4
1370.81	115.8	13738.1
1370.91	115.7	13824.3
1371.01	115.6	13875.1
1371.11	115.5	13818.5
1371.21	115.4	13948
1371.31	115.3	13937.5
1371.41	115.2	13832.4
1371.51	115.1	13872
1371.61	115	13963
1371.71	114.9	14034.2
1371.81	114.8	13879.4
1371.91	114.7	13903.1
1372.01	114.6	13991.5
1372.11	114.5	13864.7
1372.21	114.4	13979.6
1372.31	114.3	13888.2
1372.41	114.2	14053.8
1372.51	114.1	14056
1372.61	114	14015.7
1372.71	113.9	14026.2
1372.81	113.8	14046.5
1372.91	113.7	14073.5
1373.01	113.6	14162.1
1373.11	113.5	14151.4
1373.21	113.4	14107.2
1373.31	113.3	14134.4
1373.41	113.2	14183.4
1373.51	113.1	14092
1373.61	113	14111.9
1373.71	112.9	14243.2
1373.81	112.8	14310
1373.91	112.7	14226.1
1374.01	112.6	14220.9
1374.11	112.5	14157.7
1374.21	112.4	14234
1374.31	112.3	14320
1374.41	112.2	14368.3
1374.51	112.1	14286
1374.61	112	14382.8
1374.71	111.9	14432.6
1374.81	111.8	14473.8
1374.91	111.7	14457.2
1375.01	111.6	14394.6
1375.11	111.5	14379.6
1375.21	111.4	14411.1
1375.31	111.3	14515.5
1375.41	111.2	14444.3
1375.51	111.1	14462.7
1375.61	111	14485.1
1375.71	110.9	14395.4
1375.81	110.8	14386.4
1375.91	110.7	14408.8
1376.01	110.6	14401.8
1376.11	110.5	14457
1376.21	110.4	14328.5
1376.31	110.3	14243.6
1376.41	110.2	14268.6
1376.51	110.1	14269.5
1376.61	110	14357.1
1376.71	109.9	14302.3
1376.81	109.8	14281.2
1376.91	109.7	14300.5
1377.01	109.6	14379.4
1377.11	109.5	14339.8
1377.21	109.4	14229
1377.31	109.3	14229.9
1377.41	109.2	14201
1377.51	109.1	14190.2
1377.61	109	14171.8
1377.71	108.9	14139.5
1377.81	108.8	14049.3
1377.91	108.7	14068.6
1378.01	108.6	14076.6
1378.11	108.5	14018.5
1378.21	108.4	14018.9
1378.31	108.3	14008.7
1378.41	108.2	13871.8
1378.51	108.1	13898.7
1378.61	108	13890.5
1378.71	107.9	13798.4
1378.81	107.8	13797.7
1378.91	107.7	13829.6
1379.01	107.6	13832.2
1379.11	107.5	13765.5
1379.21	107.4	13733.9
1379.31	107.3	13722.8
1379.41	107.2	13604.8
1379.51	107.1	13572.9
1379.61	107	13504
1379.71	106.9	13499.5
1379.81	106.8	13407.7
1379.91	106.7	13546.5
1380.01	106.6	13478.5
1380.11	106.5	13347.3
1380.21	106.4	13472.9
1380.31	106.3	13268.2
1380.41	106.2	13224.5
1380.51	106.1	13198.8
1380.61	106	13259.7
1380.71	105.9	13161.1
1380.81	105.8	13229.5
1380.91	105.7	13145.2
1381.01	105.6	13093.6
1381.11	105.5	13130.6
1381.21	105.4	13187.2
1381.31	105.3	13137.6
1381.41	105.2	13179
1381.51	105.1	13204.1
1381.61	105	13073.6
1381.71	104.9	13053.4
1381.81	104.8	13025.6
1381.91	104.7	13113.4
1382.01	104.6	13114.6
1382.11	104.5	13050.8
1382.21	104.4	12972.5
1382.31	104.3	13098.3
1382.41	104.2	13129.2
1382.51	104.1	12965.8
1382.61	104	12964.2
1382.71	103.9	13036.7
1382.81	103.8	13032.9
1382.91	103.7	13073.5
1383.01	103.6	13108.1
1383.11	103.5	13039.6
1383.21	103.4	12996.3
1383.31	103.3	13011.9
1383.41	103.2	13046.9
1383.51	103.1	12978.9
1383.61	103	13058.1
1383.71	102.9	13057.8
1383.81	102.8	13049.1
1383.91	102.7	13082.4
1384.01	102.6	12972.7
1384.11	102.5	13008.4
1384.21	102.4	12943.2
1384.31	102.3	13005.7
1384.41	102.2	13147.6
1384.51	102.1	13098.6
1384.61	102	13042.1
1384.71	101.9	13143
1384.81	101.8	13072.7
1384.91	101.7	13043.6
1385.01	101.6	13056.3
1385.11	101.5	13030.6
1385.21	101.4	13159.6
1385.31	101.3	13128.6
1385.41	101.2	13121.2
1385.51	101.1	13171.2
1385.61	101	13100.4
1385.71	100.9	13137.5
1385.81	100.8	13057.6
1385.91	100.7	13152.9
1386.01	100.6	13184
1386.11	100.5	13157.4
1386.21	100.4	13161.5
1386.31	100.3	13088
1386.41	100.2	13205.9
1386.51	100.1	13164.3
1386.61	100	13102.8
1386.71	99.9	13061.5
1386.81	99.8	13121.5
1386.91	99.7	13083.4
1387.01	99.6	13161.4
1387.11	99.5	13244.7
1387.21	99.4	13223.4
1387.31	99.3	13255.9
1387.41	99.2	13204
1387.51	99.1	13120.9
1387.61	99	13094.4
1387.71	98.9	13196.2
1387.81	98.8	13296.3
1387.91	98.7	13230.1
1388.01	98.6	13162.9
1388.11	98.5	13175.2
1388.21	98.4	13220
1388.31	98.3	13159.9
1388.41	98.2	13087.4
1388.51	98.1	13212.1
1388.61	98	13159.4
1388.71	97.9	13138.5
1388.81	97.8	13079.7
1388.91	97.7	13069
1389.01	97.6	13063.3
1389.11	97.5	13051.5
1389.21	97.4	13047.9
1389.31	97.3	12901.8
1389.41	97.2	12892.6
1389.51	97.1	12918
1389.61	97	12794.9
1389.71	96.9	12773.5
1389.81	96.8	12764.4
1389.91	96.7	12584.9
1390.01	96.6	12553.3
1390.11	96.5	12550.6
1390.21	96.4	12441.6
1390.31	96.3	12431
1390.41	96.2	12484
1390.51	96.1	12431.2
1390.61	96	12369.4
1390.71	95.9	12375.5
1390.81	95.8	12406.4
1390.91	95.7	12293.5
1391.01	95.6	12249.2
1391.11	95.5	12386.4
1391.21	95.4	12423
1391.31	95.3	12435.3
1391.41	95.2	12499.8
1391.51	95.1	12503.2
1391.61	95	12574.1
1391.71	94.9	12578.2
1391.81	94.8	12623.1
1391.91	94.7	12722.1
1392.01	94.6	12717.8
1392.11	94.5	12758.3
1392.21	94.4	12663.1
1392.31	94.3	12746.1
1392.41	94.2	12739.5
1392.51	94.1	12772.1
1392.61	94	12750
1392.71	93.9	12803.9
1392.81	93.8	12746.9
1392.91	93.7	12742.9
1393.01	93.6	12737.6
1393.11	93.5	12675.7
1393.21	93.4	12664.7
1393.31	93.3	12632.1
1393.41	93.2	12568
1393.51	93.1	12450.4
1393.61	93	12446.4
1393.71	92.9	12343.8
1393.81	92.8	12313
1393.91	92.7	12217.8
1394.01	92.6	12292.1
1394.11	92.5	12201.3
1394.21	92.4	12167.9
1394.31	92.3	12130.2
1394.41	92.2	12257
1394.51	92.1	12196.8
1394.61	92	12243.8
1394.71	91.9	12296.2
1394.81	91.8	12397.3
1394.91	91.7	12424.7
1395.01	91.6	12510.6
1395.11	91.5	12630.3
1395.21	91.4	12718.6
1395.31	91.3	12831.1
1395.41	91.2	12919.8
1395.51	91.1	13128.8
1395.61	91	13284.9
1395.71	90.9	13413.9
1395.81	90.8	13464.3
1395.91	90.7	13644.5
1396.01	90.6	13712.5
1396.11	90.5	13890.8
1396.21	90.4	13849.6
1396.31	90.3	13891.1
1396.41	90.2	14082.3
1396.51	90.1	14090.8
1396.61	90	14137.4
1396.71	89.9	14036.5
1396.81	89.8	14104.6
1396.91	89.7	14156.3
1397.01	89.6	14323.1
1397.11	89.5	14626.7
1397.21	89.4	14931.4
1397.31	89.3	15447.2
1397.41	89.2	15993.5
1397.51	89.1	16883.1
1397.61	89	17796.9
1397.71	88.9	19027.3
1397.81	88.8	20571.3
1397.91	88.7	22714.2
1398.01	88.6	25865.5
1398.11	88.5	30223.9
1398.21	88.4	36658.5
1398.31	88.3	45754.4
1398.41	88.2	58550.5
1398.51	88.1	75504.6
1398.61	88	95662.6
1398.71	87.9	117102
1398.81	87.8	135691
1398.91	87.7	146142
1399.01	87.6	145832
1399.11	87.5	134928
1399.21	87.4	116243
1399.31	87.3	93984.5
1399.41	87.2	72436.7
1399.51	87.1	55243.1
1399.61	87	42428.8
1399.71	86.9	33150.4
1399.81	86.8	26674.5
1399.91	86.7	22208.7
1400.01	86.6	19364.6
1400.11	86.5	17311.1
1400.21	86.4	15982
1400.31	86.3	14959.3
1400.41	86.2	14191.9
1400.51	86.1	13705.8
1400.61	86	13445.8
1400.71	85.9	13237.8
1400.81	85.8	13192.6
1400.91	85.7	13463.5
1401.01	85.6	13854.4
1401.11	85.5	14456.5
1401.21	85.4	15276.9
1401.31	85.3	16288.3
1401.41	85.2	17865.4
1401.51	85.1	19978.6
1401.61	85	22622.9
1401.71	84.9	26779.9
1401.81	84.8	32730.3
1401.91	84.7	41366
1402.01	84.6	53984.4
1402.11	84.5	71732.4
1402.21	84.4	94953.3
1402.31	84.3	122011
1402.41	84.2	149914
1402.51	84.1	173203
1402.61	84	184005
1402.71	83.9	179702
1402.81	83.8	162506
1402.91	83.7	135611
1403.01	83.6	105418
1403.11	83.5	78269.5
1403.21	83.4	56824.7
1403.31	83.3	41107.9
1403.41	83.2	30013.7
1403.51	83.1	22315.7
1403.61	83	17194.3
1403.71	82.9	13850.9
1403.81	82.8	11504.6
1403.91	82.7	9946.2
1404.01	82.6	8736.27
1404.11	82.5	7809.04
1404.21	82.4	7151.94
1404.31	82.3	6543.3
1404.41	82.2	6177.08
1404.51	82.1	5853.44
1404.61	82	5498.55
1404.71	81.9	5212.07
1404.81	81.8	4975.91
1404.91	81.7	4823.82
1405.01	81.6	4603.47
1405.11	81.5	4443.53
1405.21	81.4	4252.67
1405.31	81.3	4123.72
1405.41	81.2	4039.45
1405.51	81.1	3857.83
1405.61	81	3814.88
1405.71	80.9	3684.68
1405.81	80.8	3611.37
1405.91	80.7	3572
1406.01	80.6	3495.43
1406.11	80.5	3480.06
1406.21	80.4	3433.51
1406.31	80.3	3329.32
1406.41	80.2	3291.01
1406.51	80.1	3326.63
1406.61	80	3259.17
1406.71	79.9	3228.6
1406.81	79.8	3186.25
1406.91	79.7	3180.48
1407.01	79.6	3093.28
1407.11	79.5	3097.58
1407.21	79.4	3062.89
1407.31	79.3	3085.93
1407.41	79.2	3039.94
1407.51	79.1	3016.46
1407.61	79	3016.74
1407.71	78.9	2970.34
1407.81	78.8	2984.13
1407.91	78.7	3019.12
1408.01	78.6	2997.3
1408.11	78.5	2950.44
1408.21	78.4	3028.35
1408.31	78.3	2971.51
1408.41	78.2	2961.97
1408.51	78.1	2933.8
1408.61	78	2948.17
1408.71	77.9	2948.09
1408.81	77.8	2923.47
1408.91	77.7	2938.36
1409.01	77.6	2929.7
1409.11	77.5	2945.8
1409.21	77.4	2908.17
1409.31	77.3	2901.84
1409.41	77.2	2942.29
1409.51	77.1	2957.08
1409.61	77	2960.85
1409.71	76.9	2951.88
1409.81	76.8	2958.59
1409.91	76.7	2984.1
1410.01	76.6	2989.89
1410.11	76.5	3027.33
1410.21	76.4	3052.83
1410.31	76.3	3015.09
1410.41	76.2	3035.14
1410.51	76.1	3058.55
1410.61	76	3086.27
1410.71	75.9	3089.88
1410.81	75.8	3107.38
1410.91	75.7	3133.44
1411.01	75.6	3186.68
1411.11	75.5	3161.33
1411.21	75.4	3212.63
1411.31	75.3	3237.12
1411.41	75.2	3313.36
1411.51	75.1	3265.58
1411.61	75	3293.2