C:\Users\Mark\ownCloud\Muelheim Group\Projects\Gas phase background\EX321_CEC356_Au Ag and Cu in O2_clean.vms
Au4f
	Characteristic Energy eV	1486.61	Acquisition Time s	0.9
KE_Au4f	BE_Au4f	CPS_Au4f
1311.61	175	5814.78
1311.71	174.9	5807.98
1311.81	174.8	5851.93
1311.91	174.7	5886.19
1312.01	174.6	5828.36
1312.11	174.5	5899
1312.21	174.4	5867.44
1312.31	174.3	5845.71
1312.41	174.2	5875.22
1312.51	174.1	5923.41
1312.61	174	5896.55
1312.71	173.9	5838.08
1312.81	173.8	5857.97
1312.91	173.7	5900.5
1313.01	173.6	5886.09
1313.11	173.5	5842.18
1313.21	173.4	5894.52
1313.31	173.3	5867.74
1313.41	173.2	5866.81
1313.51	173.1	5942.21
1313.61	173	5863.19
1313.71	172.9	5880.96
1313.81	172.8	5910.33
1313.91	172.7	5882.41
1314.01	172.6	5949.19
1314.11	172.5	5910.36
1314.21	172.4	5907.02
1314.31	172.3	5912.28
1314.41	172.2	5923.63
1314.51	172.1	5935.95
1314.61	172	5870.34
1314.71	171.9	5849.18
1314.81	171.8	5889.87
1314.91	171.7	5877.73
1315.01	171.6	5900.12
1315.11	171.5	5863.16
1315.21	171.4	5954.51
1315.31	171.3	5918.28
1315.41	171.2	5921.79
1315.51	171.1	5901.68
1315.61	171	5878.3
1315.71	170.9	5900.79
1315.81	170.8	5950.16
1315.91	170.7	5920.26
1316.01	170.6	5954.9
1316.11	170.5	6002.69
1316.21	170.4	5943.76
1316.31	170.3	5958.58
1316.41	170.2	5894.28
1316.51	170.1	5945.16
1316.61	170	5916.26
1316.71	169.9	5961.83
1316.81	169.8	5966.56
1316.91	169.7	5958.07
1317.01	169.6	5960.37
1317.11	169.5	5980.1
1317.21	169.4	5948.17
1317.31	169.3	5926.39
1317.41	169.2	5973.98
1317.51	169.1	5952.72
1317.61	169	5944.68
1317.71	168.9	5979.41
1317.81	168.8	5975.92
1317.91	168.7	5995.04
1318.01	168.6	5986.22
1318.11	168.5	5933.94
1318.21	168.4	5952.7
1318.31	168.3	5984
1318.41	168.2	5982.29
1318.51	168.1	5948.03
1318.61	168	5973.15
1318.71	167.9	5893.81
1318.81	167.8	5923.84
1318.91	167.7	5944.99
1319.01	167.6	5964.94
1319.11	167.5	6009.14
1319.21	167.4	6029.1
1319.31	167.3	5948.09
1319.41	167.2	6006.09
1319.51	167.1	5997.36
1319.61	167	5958.73
1319.71	166.9	5976.6
1319.81	166.8	5991.45
1319.91	166.7	5980.75
1320.01	166.6	5996.39
1320.11	166.5	5969.58
1320.21	166.4	5946.07
1320.31	166.3	5906.36
1320.41	166.2	6015.11
1320.51	166.1	6014.92
1320.61	166	6040.74
1320.71	165.9	6075.32
1320.81	165.8	6050.31
1320.91	165.7	6034.43
1321.01	165.6	6021.53
1321.11	165.5	5964.62
1321.21	165.4	5996.3
1321.31	165.3	6008.3
1321.41	165.2	5983.43
1321.51	165.1	6041.39
1321.61	165	6024.97
1321.71	164.9	6069.1
1321.81	164.8	6110.18
1321.91	164.7	6040.89
1322.01	164.6	6042.02
1322.11	164.5	5943.49
1322.21	164.4	5997.3
1322.31	164.3	6040.77
1322.41	164.2	5984.46
1322.51	164.1	6020.33
1322.61	164	6031.78
1322.71	163.9	6084.38
1322.81	163.8	6040.1
1322.91	163.7	5956.37
1323.01	163.6	5991.29
1323.11	163.5	5992.47
1323.21	163.4	6074.11
1323.31	163.3	6081.39
1323.41	163.2	6093.47
1323.51	163.1	6153.7
1323.61	163	6100.99
1323.71	162.9	6071.96
1323.81	162.8	6049.39
1323.91	162.7	6099.73
1324.01	162.6	6051.58
1324.11	162.5	6035.63
1324.21	162.4	5989.92
1324.31	162.3	6032.91
1324.41	162.2	6008.33
1324.51	162.1	6046.24
1324.61	162	6032.92
1324.71	161.9	6117.82
1324.81	161.8	6072.42
1324.91	161.7	6008.71
1325.01	161.6	6031.88
1325.11	161.5	6085.37
1325.21	161.4	6062.69
1325.31	161.3	6050.46
1325.41	161.2	6041.65
1325.51	161.1	6062.1
1325.61	161	6083.14
1325.71	160.9	6112.58
1325.81	160.8	6059.08
1325.91	160.7	6027.18
1326.01	160.6	6090.93
1326.11	160.5	6108.85
1326.21	160.4	6113.42
1326.31	160.3	6102.17
1326.41	160.2	6112.09
1326.51	160.1	6158.25
1326.61	160	6105.27
1326.71	159.9	6095.75
1326.81	159.8	6139.57
1326.91	159.7	6093.46
1327.01	159.6	6125.16
1327.11	159.5	6118.42
1327.21	159.4	6139.07
1327.31	159.3	6133.07
1327.41	159.2	6134.81
1327.51	159.1	6163.22
1327.61	159	6124.08
1327.71	158.9	6130.59
1327.81	158.8	6079.79
1327.91	158.7	6187.12
1328.01	158.6	6122.67
1328.11	158.5	6101.14
1328.21	158.4	6130.3
1328.31	158.3	6163.7
1328.41	158.2	6126.36
1328.51	158.1	6113.55
1328.61	158	6166.03
1328.71	157.9	6185.63
1328.81	157.8	6204.7
1328.91	157.7	6208.32
1329.01	157.6	6219.98
1329.11	157.5	6178.46
1329.21	157.4	6223.65
1329.31	157.3	6242.58
1329.41	157.2	6185.07
1329.51	157.1	6214.15
1329.61	157	6177.37
1329.71	156.9	6179.5
1329.81	156.8	6211.75
1329.91	156.7	6164.42
1330.01	156.6	6187.23
1330.11	156.5	6176.97
1330.21	156.4	6198.7
1330.31	156.3	6210.61
1330.41	156.2	6279.15
1330.51	156.1	6209.39
1330.61	156	6223.3
1330.71	155.9	6135.42
1330.81	155.8	6174.99
1330.91	155.7	6162.28
1331.01	155.6	6193.41
1331.11	155.5	6166.22
1331.21	155.4	6162.6
1331.31	155.3	6232.56
1331.41	155.2	6185.01
1331.51	155.1	6178.65
1331.61	155	6220.26
1331.71	154.9	6232.94
1331.81	154.8	6144.78
1331.91	154.7	6221.16
1332.01	154.6	6238.29
1332.11	154.5	6179.91
1332.21	154.4	6234.1
1332.31	154.3	6211.16
1332.41	154.2	6213.65
1332.51	154.1	6194.4
1332.61	154	6232.89
1332.71	153.9	6210.19
1332.81	153.8	6217.12
1332.91	153.7	6234.25
1333.01	153.6	6293.67
1333.11	153.5	6254.16
1333.21	153.4	6309.34
1333.31	153.3	6328.71
1333.41	153.2	6267.59
1333.51	153.1	6290.93
1333.61	153	6288.78
1333.71	152.9	6344.92
1333.81	152.8	6367.19
1333.91	152.7	6383.57
1334.01	152.6	6279.6
1334.11	152.5	6226.69
1334.21	152.4	6224.04
1334.31	152.3	6290.45
1334.41	152.2	6281.18
1334.51	152.1	6278.63
1334.61	152	6253.61
1334.71	151.9	6308.27
1334.81	151.8	6281.28
1334.91	151.7	6318.45
1335.01	151.6	6227.41
1335.11	151.5	6229.05
1335.21	151.4	6284.85
1335.31	151.3	6277.36
1335.41	151.2	6290.51
1335.51	151.1	6328.09
1335.61	151	6334.68
1335.71	150.9	6342.99
1335.81	150.8	6305.73
1335.91	150.7	6295.27
1336.01	150.6	6228.11
1336.11	150.5	6291.24
1336.21	150.4	6315.78
1336.31	150.3	6339.59
1336.41	150.2	6306.87
1336.51	150.1	6361.73
1336.61	150	6380.1
1336.71	149.9	6328.02
1336.81	149.8	6374.52
1336.91	149.7	6341.47
1337.01	149.6	6347.17
1337.11	149.5	6399.13
1337.21	149.4	6384.59
1337.31	149.3	6421.71
1337.41	149.2	6348.92
1337.51	149.1	6298.89
1337.61	149	6269.39
1337.71	148.9	6303.01
1337.81	148.8	6320.06
1337.91	148.7	6397.56
1338.01	148.6	6377.66
1338.11	148.5	6350
1338.21	148.4	6378.54
1338.31	148.3	6413.25
1338.41	148.2	6400.45
1338.51	148.1	6411.91
1338.61	148	6384.66
1338.71	147.9	6339.34
1338.81	147.8	6402.87
1338.91	147.7	6370.25
1339.01	147.6	6354.43
1339.11	147.5	6372.86
1339.21	147.4	6386.81
1339.31	147.3	6364.44
1339.41	147.2	6422.12
1339.51	147.1	6423.79
1339.61	147	6386.4
1339.71	146.9	6355.19
1339.81	146.8	6411.43
1339.91	146.7	6394.6
1340.01	146.6	6428.24
1340.11	146.5	6445.74
1340.21	146.4	6403.07
1340.31	146.3	6417.35
1340.41	146.2	6409.06
1340.51	146.1	6398.04
1340.61	146	6449.11
1340.71	145.9	6362.74
1340.81	145.8	6369.11
1340.91	145.7	6423.19
1341.01	145.6	6393.43
1341.11	145.5	6345.63
1341.21	145.4	6434.01
1341.31	145.3	6444.75
1341.41	145.2	6423.58
1341.51	145.1	6392.19
1341.61	145	6450.71
1341.71	144.9	6371.91
1341.81	144.8	6409.93
1341.91	144.7	6434.79
1342.01	144.6	6361.27
1342.11	144.5	6423.71
1342.21	144.4	6437.18
1342.31	144.3	6402.52
1342.41	144.2	6404.94
1342.51	144.1	6345.29
1342.61	144	6472.43
1342.71	143.9	6413.63
1342.81	143.8	6370.97
1342.91	143.7	6357.84
1343.01	143.6	6435.33
1343.11	143.5	6419.56
1343.21	143.4	6406.46
1343.31	143.3	6474.59
1343.41	143.2	6472.06
1343.51	143.1	6472.6
1343.61	143	6376.72
1343.71	142.9	6474.02
1343.81	142.8	6450.7
1343.91	142.7	6429.64
1344.01	142.6	6449.04
1344.11	142.5	6476.65
1344.21	142.4	6485.51
1344.31	142.3	6462.44
1344.41	142.2	6367.41
1344.51	142.1	6439.98
1344.61	142	6419.67
1344.71	141.9	6406.53
1344.81	141.8	6427.14
1344.91	141.7	6427.01
1345.01	141.6	6387.28
1345.11	141.5	6490.77
1345.21	141.4	6472.28
1345.31	141.3	6510.48
1345.41	141.2	6459.46
1345.51	141.1	6502.38
1345.61	141	6443.44
1345.71	140.9	6429.16
1345.81	140.8	6529.53
1345.91	140.7	6453.64
1346.01	140.6	6438.38
1346.11	140.5	6447.94
1346.21	140.4	6527.86
1346.31	140.3	6487.5
1346.41	140.2	6416.11
1346.51	140.1	6474.71
1346.61	140	6478.24
1346.71	139.9	6516.51
1346.81	139.8	6521.32
1346.91	139.7	6510.43
1347.01	139.6	6477.33
1347.11	139.5	6549.1
1347.21	139.4	6548.86
1347.31	139.3	6479.04
1347.41	139.2	6496.3
1347.51	139.1	6504.36
1347.61	139	6492.75
1347.71	138.9	6514.67
1347.81	138.8	6504.18
1347.91	138.7	6508.94
1348.01	138.6	6477.42
1348.11	138.5	6568.36
1348.21	138.4	6560.73
1348.31	138.3	6511.04
1348.41	138.2	6531.47
1348.51	138.1	6476.39
1348.61	138	6487.97
1348.71	137.9	6519
1348.81	137.8	6574.04
1348.91	137.7	6533.48
1349.01	137.6	6527.08
1349.11	137.5	6604.32
1349.21	137.4	6571.17
1349.31	137.3	6518.1
1349.41	137.2	6545.11
1349.51	137.1	6507.39
1349.61	137	6509.14
1349.71	136.9	6533.99
1349.81	136.8	6582.31
1349.91	136.7	6567.31
1350.01	136.6	6528.23
1350.11	136.5	6532.55
1350.21	136.4	6525.68
1350.31	136.3	6564.18
1350.41	136.2	6548.39
1350.51	136.1	6526.62
1350.61	136	6567.44
1350.71	135.9	6558.32
1350.81	135.8	6573.12
1350.91	135.7	6582.21
1351.01	135.6	6637.88
1351.11	135.5	6567.73
1351.21	135.4	6507.3
1351.31	135.3	6522.99
1351.41	135.2	6640.67
1351.51	135.1	6639.5
1351.61	135	6639.16
1351.71	134.9	6638.9
1351.81	134.8	6699.03
1351.91	134.7	6598.32
1352.01	134.6	6512.1
1352.11	134.5	6620.32
1352.21	134.4	6554.79
1352.31	134.3	6624.1
1352.41	134.2	6624.82
1352.51	134.1	6674.9
1352.61	134	6592.17
1352.71	133.9	6560.93
1352.81	133.8	6672.43
1352.91	133.7	6614.94
1353.01	133.6	6653.5
1353.11	133.5	6597.77
1353.21	133.4	6584.78
1353.31	133.3	6626.57
1353.41	133.2	6599.35
1353.51	133.1	6699.44
1353.61	133	6653.02
1353.71	132.9	6671.75
1353.81	132.8	6673.86
1353.91	132.7	6634.18
1354.01	132.6	6629.02
1354.11	132.5	6680.15
1354.21	132.4	6671.39
1354.31	132.3	6637.29
1354.41	132.2	6692.29
1354.51	132.1	6688.7
1354.61	132	6685.8
1354.71	131.9	6642.37
1354.81	131.8	6679.71
1354.91	131.7	6724.57
1355.01	131.6	6717.12
1355.11	131.5	6653.19
1355.21	131.4	6690.12
1355.31	131.3	6638.21
1355.41	131.2	6685.22
1355.51	131.1	6708.18
1355.61	131	6674.33
1355.71	130.9	6724.78
1355.81	130.8	6727.1
1355.91	130.7	6706.2
1356.01	130.6	6707.89
1356.11	130.5	6631.56
1356.21	130.4	6704.35
1356.31	130.3	6710.16
1356.41	130.2	6670.3
1356.51	130.1	6713.02
1356.61	130	6698.05
1356.71	129.9	6711.14
1356.81	129.8	6773.51
1356.91	129.7	6684.88
1357.01	129.6	6772.81
1357.11	129.5	6789.01
1357.21	129.4	6750.45
1357.31	129.3	6715.24
1357.41	129.2	6749.51
1357.51	129.1	6738.68
1357.61	129	6710.04
1357.71	128.9	6704.95
1357.81	128.8	6763.14
1357.91	128.7	6714.84
1358.01	128.6	6703.69
1358.11	128.5	6714.03
1358.21	128.4	6759.73
1358.31	128.3	6789.95
1358.41	128.2	6780.29
1358.51	128.1	6793.18
1358.61	128	6768.09
1358.71	127.9	6772.64
1358.81	127.8	6712.84
1358.91	127.7	6686.26
1359.01	127.6	6719.36
1359.11	127.5	6715.97
1359.21	127.4	6798.68
1359.31	127.3	6762.75
1359.41	127.2	6699.66
1359.51	127.1	6793.3
1359.61	127	6802.09
1359.71	126.9	6804.19
1359.81	126.8	6768.75
1359.91	126.7	6740.62
1360.01	126.6	6763.48
1360.11	126.5	6803.74
1360.21	126.4	6772.53
1360.31	126.3	6752.81
1360.41	126.2	6774.11
1360.51	126.1	6856.33
1360.61	126	6758.65
1360.71	125.9	6733.14
1360.81	125.8	6783.55
1360.91	125.7	6759.74
1361.01	125.6	6816.77
1361.11	125.5	6865.13
1361.21	125.4	6785.76
1361.31	125.3	6787.82
1361.41	125.2	6845.41
1361.51	125.1	6711.06
1361.61	125	6793.55
1361.71	124.9	6843.64
1361.81	124.8	6779.92
1361.91	124.7	6799.06
1362.01	124.6	6803.13
1362.11	124.5	6771.57
1362.21	124.4	6852.1
1362.31	124.3	6765.92
1362.41	124.2	6852.74
1362.51	124.1	6904.64
1362.61	124	6836.31
1362.71	123.9	6846.59
1362.81	123.8	6854.13
1362.91	123.7	6831.54
1363.01	123.6	6832.5
1363.11	123.5	6814.64
1363.21	123.4	6822.53
1363.31	123.3	6759.85
1363.41	123.2	6867.26
1363.51	123.1	6908.76
1363.61	123	6843.82
1363.71	122.9	6903.19
1363.81	122.8	6848.6
1363.91	122.7	6891.92
1364.01	122.6	6929.18
1364.11	122.5	6958.18
1364.21	122.4	6910.37
1364.31	122.3	6902.5
1364.41	122.2	6913.33
1364.51	122.1	6906.79
1364.61	122	6884.89
1364.71	121.9	6925.54
1364.81	121.8	6960.61
1364.91	121.7	6910.27
1365.01	121.6	6907.97
1365.11	121.5	6896.29
1365.21	121.4	6916.96
1365.31	121.3	6969.35
1365.41	121.2	6969.63
1365.51	121.1	6954.94
1365.61	121	6911.49
1365.71	120.9	6872.05
1365.81	120.8	6892.82
1365.91	120.7	6948.22
1366.01	120.6	6965.69
1366.11	120.5	6882.56
1366.21	120.4	6972.34
1366.31	120.3	6971.57
1366.41	120.2	6988.58
1366.51	120.1	6986.24
1366.61	120	7013.15
1366.71	119.9	7009.37
1366.81	119.8	6954.12
1366.91	119.7	6988.11
1367.01	119.6	6924.81
1367.11	119.5	6987.87
1367.21	119.4	7010.13
1367.31	119.3	6932.83
1367.41	119.2	7010.52
1367.51	119.1	6977.15
1367.61	119	7013.47
1367.71	118.9	6925.83
1367.81	118.8	6980.7
1367.91	118.7	6996.4
1368.01	118.6	7082.75
1368.11	118.5	7021.97
1368.21	118.4	7000.55
1368.31	118.3	7022.17
1368.41	118.2	6979.91
1368.51	118.1	6984.21
1368.61	118	7016.88
1368.71	117.9	7017.56
1368.81	117.8	6990.53
1368.91	117.7	7052.63
1369.01	117.6	7001.85
1369.11	117.5	6951.84
1369.21	117.4	6979.4
1369.31	117.3	7055.71
1369.41	117.2	7055.51
1369.51	117.1	7061.58
1369.61	117	7082.11
1369.71	116.9	7030.31
1369.81	116.8	6994.58
1369.91	116.7	7079.37
1370.01	116.6	6965.66
1370.11	116.5	6990.77
1370.21	116.4	6983.41
1370.31	116.3	7070.53
1370.41	116.2	7100.26
1370.51	116.1	7051.28
1370.61	116	7031.55
1370.71	115.9	7021.24
1370.81	115.8	7087
1370.91	115.7	7044.68
1371.01	115.6	7046.39
1371.11	115.5	7085.11
1371.21	115.4	7087.12
1371.31	115.3	7117.36
1371.41	115.2	7029.76
1371.51	115.1	7168.57
1371.61	115	7114.27
1371.71	114.9	7058.36
1371.81	114.8	7148.67
1371.91	114.7	7068.43
1372.01	114.6	7021.37
1372.11	114.5	7100.01
1372.21	114.4	7089.9
1372.31	114.3	7141.93
1372.41	114.2	7154.29
1372.51	114.1	7139.12
1372.61	114	7047.57
1372.71	113.9	7190.79
1372.81	113.8	7213.36
1372.91	113.7	7141.87
1373.01	113.6	7154.28
1373.11	113.5	7195.19
1373.21	113.4	7105.55
1373.31	113.3	7187.86
1373.41	113.2	7225.02
1373.51	113.1	7181.29
1373.61	113	7201.36
1373.71	112.9	7191.62
1373.81	112.8	7245.5
1373.91	112.7	7258.26
1374.01	112.6	7291.09
1374.11	112.5	7297.3
1374.21	112.4	7245.87
1374.31	112.3	7239.56
1374.41	112.2	7315.58
1374.51	112.1	7350.03
1374.61	112	7286.93
1374.71	111.9	7246.24
1374.81	111.8	7203.62
1374.91	111.7	7313.02
1375.01	111.6	7349.59
1375.11	111.5	7332.53
1375.21	111.4	7305.58
1375.31	111.3	7316.86
1375.41	111.2	7353.46
1375.51	111.1	7308.02
1375.61	111	7345.81
1375.71	110.9	7330.39
1375.81	110.8	7397.97
1375.91	110.7	7353.24
1376.01	110.6	7377.08
1376.11	110.5	7339.22
1376.21	110.4	7251.3
1376.31	110.3	7333.31
1376.41	110.2	7377.72
1376.51	110.1	7293.08
1376.61	110	7290.22
1376.71	109.9	7368.35
1376.81	109.8	7403.01
1376.91	109.7	7394.33
1377.01	109.6	7372.23
1377.11	109.5	7329.5
1377.21	109.4	7288.62
1377.31	109.3	7274.88
1377.41	109.2	7343.84
1377.51	109.1	7331.97
1377.61	109	7321.47
1377.71	108.9	7288.85
1377.81	108.8	7226.72
1377.91	108.7	7295.07
1378.01	108.6	7212.26
1378.11	108.5	7255.74
1378.21	108.4	7304.13
1378.31	108.3	7270.29
1378.41	108.2	7257.88
1378.51	108.1	7278.41
1378.61	108	7345.4
1378.71	107.9	7274.73
1378.81	107.8	7306.88
1378.91	107.7	7273.39
1379.01	107.6	7198.65
1379.11	107.5	7266.48
1379.21	107.4	7267.61
1379.31	107.3	7277.83
1379.41	107.2	7244.11
1379.51	107.1	7209.05
1379.61	107	7237.88
1379.71	106.9	7214.9
1379.81	106.8	7103.95
1379.91	106.7	7136.47
1380.01	106.6	7161.78
1380.11	106.5	7118.39
1380.21	106.4	7055.15
1380.31	106.3	7096.38
1380.41	106.2	7105.2
1380.51	106.1	7037.67
1380.61	106	7058
1380.71	105.9	7035.46
1380.81	105.8	7039.24
1380.91	105.7	7063.79
1381.01	105.6	7075.01
1381.11	105.5	7060.14
1381.21	105.4	7083.08
1381.31	105.3	7018.92
1381.41	105.2	7143.68
1381.51	105.1	7140.58
1381.61	105	7120.56
1381.71	104.9	7134.79
1381.81	104.8	7137.57
1381.91	104.7	7113
1382.01	104.6	7093.37
1382.11	104.5	7082.71
1382.21	104.4	7129.23
1382.31	104.3	7102.75
1382.41	104.2	7112.67
1382.51	104.1	7025.85
1382.61	104	7102.89
1382.71	103.9	7088.5
1382.81	103.8	7083.34
1382.91	103.7	7086.84
1383.01	103.6	7051.36
1383.11	103.5	7021.74
1383.21	103.4	7092.47
1383.31	103.3	7115.4
1383.41	103.2	7077
1383.51	103.1	7132.85
1383.61	103	7079.42
1383.71	102.9	7135.8
1383.81	102.8	7025.35
1383.91	102.7	6933.18
1384.01	102.6	6879.82
1384.11	102.5	6780.55
1384.21	102.4	6757.42
1384.31	102.3	6708.48
1384.41	102.2	6678.92
1384.51	102.1	6639.48
1384.61	102	6596.66
1384.71	101.9	6613.89
1384.81	101.8	6621.28
1384.91	101.7	6637.32
1385.01	101.6	6651.3
1385.11	101.5	6788.43
1385.21	101.4	6714.46
1385.31	101.3	6724.74
1385.41	101.2	6767.9
1385.51	101.1	6760.09
1385.61	101	6751.74
1385.71	100.9	6753.38
1385.81	100.8	6708.8
1385.91	100.7	6667.33
1386.01	100.6	6659.2
1386.11	100.5	6623.3
1386.21	100.4	6614.06
1386.31	100.3	6546.53
1386.41	100.2	6435.7
1386.51	100.1	6422.07
1386.61	100	6450.31
1386.71	99.9	6395.01
1386.81	99.8	6474.84
1386.91	99.7	6491.95
1387.01	99.6	6404.51
1387.11	99.5	6404.01
1387.21	99.4	6351.72
1387.31	99.3	6383.63
1387.41	99.2	6275.84
1387.51	99.1	6276.22
1387.61	99	6138.18
1387.71	98.9	6071.36
1387.81	98.8	6056.61
1387.91	98.7	5916.2
1388.01	98.6	5905.1
1388.11	98.5	5822.11
1388.21	98.4	5734.99
1388.31	98.3	5722.7
1388.41	98.2	5637.59
1388.51	98.1	5751.63
1388.61	98	5722.68
1388.71	97.9	5701.3
1388.81	97.8	5712.41
1388.91	97.7	5647.97
1389.01	97.6	5733.69
1389.11	97.5	5742.76
1389.21	97.4	5721.07
1389.31	97.3	5769.07
1389.41	97.2	5761.5
1389.51	97.1	5808.97
1389.61	97	5904.71
1389.71	96.9	5971.51
1389.81	96.8	6024.71
1389.91	96.7	6048.69
1390.01	96.6	6077.95
1390.11	96.5	6126.12
1390.21	96.4	6134.24
1390.31	96.3	6109.33
1390.41	96.2	6033.72
1390.51	96.1	5871.92
1390.61	96	5845.7
1390.71	95.9	5816.58
1390.81	95.8	5719.77
1390.91	95.7	5625.46
1391.01	95.6	5540.45
1391.11	95.5	5427.08
1391.21	95.4	5345.83
1391.31	95.3	5240.83
1391.41	95.2	5246.96
1391.51	95.1	5197.67
1391.61	95	5090.76
1391.71	94.9	5007.38
1391.81	94.8	4968.14
1391.91	94.7	4946.9
1392.01	94.6	5006.5
1392.11	94.5	4960.88
1392.21	94.4	5003.73
1392.31	94.3	4986.16
1392.41	94.2	5018.21
1392.51	94.1	5037.45
1392.61	94	5005.14
1392.71	93.9	5055.54
1392.81	93.8	5047.18
1392.91	93.7	5002.56
1393.01	93.6	5074.62
1393.11	93.5	5194.56
1393.21	93.4	5192.41
1393.31	93.3	5200.55
1393.41	93.2	5369.21
1393.51	93.1	5561.13
1393.61	93	5618.4
1393.71	92.9	5797.14
1393.81	92.8	5836.66
1393.91	92.7	5867.7
1394.01	92.6	5949.73
1394.11	92.5	5926.01
1394.21	92.4	5956.19
1394.31	92.3	5864.39
1394.41	92.2	5714.42
1394.51	92.1	5691.39
1394.61	92	5603.9
1394.71	91.9	5398.97
1394.81	91.8	5323.72
1394.91	91.7	5335.08
1395.01	91.6	5179.23
1395.11	91.5	5045.74
1395.21	91.4	5027.56
1395.31	91.3	4982.85
1395.41	91.2	4988.43
1395.51	91.1	4914.18
1395.61	91	4918.27
1395.71	90.9	4937.79
1395.81	90.8	4978.3
1395.91	90.7	5003.86
1396.01	90.6	4965.08
1396.11	90.5	4996.64
1396.21	90.4	5067.4
1396.31	90.3	5036.15
1396.41	90.2	5052.89
1396.51	90.1	5071.59
1396.61	90	5046.24
1396.71	89.9	5030.35
1396.81	89.8	5044.04
1396.91	89.7	5083.84
1397.01	89.6	5117.52
1397.11	89.5	5212.3
1397.21	89.4	5321.03
1397.31	89.3	5448.44
1397.41	89.2	5674.44
1397.51	89.1	5861.36
1397.61	89	6174.23
1397.71	88.9	6603.57
1397.81	88.8	7119.88
1397.91	88.7	7720.77
1398.01	88.6	8772.59
1398.11	88.5	10139.4
1398.21	88.4	12173.8
1398.31	88.3	15133
1398.41	88.2	19350.4
1398.51	88.1	24717.3
1398.61	88	31181.7
1398.71	87.9	37996.6
1398.81	87.8	43861.8
1398.91	87.7	47158.1
1399.01	87.6	47068.4
1399.11	87.5	43598.5
1399.21	87.4	37473.4
1399.31	87.3	30333.6
1399.41	87.2	23506.2
1399.51	87.1	17976.6
1399.61	87	14040.7
1399.71	86.9	11025.8
1399.81	86.8	8990.25
1399.91	86.7	7585.26
1400.01	86.6	6705.38
1400.11	86.5	6053.87
1400.21	86.4	5591.23
1400.31	86.3	5231.5
1400.41	86.2	4996.38
1400.51	86.1	4858.27
1400.61	86	4741.26
1400.71	85.9	4715.33
1400.81	85.8	4717.13
1400.91	85.7	4812.63
1401.01	85.6	4881.57
1401.11	85.5	5018.93
1401.21	85.4	5281.43
1401.31	85.3	5657.39
1401.41	85.2	6172.63
1401.51	85.1	6915.83
1401.61	85	7739.94
1401.71	84.9	9092.96
1401.81	84.8	10970.1
1401.91	84.7	13756.5
1402.01	84.6	17887.9
1402.11	84.5	23484.2
1402.21	84.4	31027.8
1402.31	84.3	39650.6
1402.41	84.2	48691.1
1402.51	84.1	55809
1402.61	84	59294.6
1402.71	83.9	57961.5
1402.81	83.8	52145.1
1402.91	83.7	43625.1
1403.01	83.6	34114.3
1403.11	83.5	25531.6
1403.21	83.4	18610.8
1403.31	83.3	13649.9
1403.41	83.2	10011.9
1403.51	83.1	7680.52
1403.61	83	6000.26
1403.71	82.9	4898.35
1403.81	82.8	4212.59
1403.91	82.7	3658.86
1404.01	82.6	3261.8
1404.11	82.5	2981.71
1404.21	82.4	2747.63
1404.31	82.3	2545.06
1404.41	82.2	2442.16
1404.51	82.1	2327.19
1404.61	82	2234.44
1404.71	81.9	2145.18
1404.81	81.8	2071.38
1404.91	81.7	2019.31
1405.01	81.6	1947.4
1405.11	81.5	1885.38
1405.21	81.4	1843.85
1405.31	81.3	1834.08
1405.41	81.2	1775.46
1405.51	81.1	1751.3
1405.61	81	1681.64
1405.71	80.9	1678.46
1405.81	80.8	1609.84
1405.91	80.7	1623.63
1406.01	80.6	1595.9
1406.11	80.5	1589.37
1406.21	80.4	1575.8
1406.31	80.3	1578.25
1406.41	80.2	1555.16
1406.51	80.1	1525.11
1406.61	80	1482.92
1406.71	79.9	1496.11
1406.81	79.8	1485.49
1406.91	79.7	1455.11
1407.01	79.6	1452.45
1407.11	79.5	1470.67
1407.21	79.4	1455.75
1407.31	79.3	1438.76
1407.41	79.2	1464.25
1407.51	79.1	1435.97
1407.61	79	1441.44
1407.71	78.9	1391.39
1407.81	78.8	1430.29
1407.91	78.7	1407
1408.01	78.6	1399.32
1408.11	78.5	1390.38
1408.21	78.4	1404.69
1408.31	78.3	1392.81
1408.41	78.2	1410.99
1408.51	78.1	1427.52
1408.61	78	1420.88
1408.71	77.9	1391.88
1408.81	77.8	1409.33
1408.91	77.7	1371.17
1409.01	77.6	1396.83
1409.11	77.5	1402.68
1409.21	77.4	1392.75
1409.31	77.3	1395.95
1409.41	77.2	1402.33
1409.51	77.1	1394.11
1409.61	77	1410.78
1409.71	76.9	1404.5
1409.81	76.8	1419.5
1409.91	76.7	1390.66
1410.01	76.6	1423.43
1410.11	76.5	1450.87
1410.21	76.4	1439.73
1410.31	76.3	1447.87
1410.41	76.2	1460.84
1410.51	76.1	1436.83
1410.61	76	1463.82
1410.71	75.9	1442.66
1410.81	75.8	1489.59
1410.91	75.7	1479.75
1411.01	75.6	1445.41
1411.11	75.5	1514.25
1411.21	75.4	1504.46
1411.31	75.3	1503.42
1411.41	75.2	1500.23
1411.51	75.1	1499.95
1411.61	75	1498.68