C:\Users\Mark\ownCloud\Muelheim Group\Projects\Gas phase background\EX321_CEC356_Au Ag and Cu in O2_clean.vms
Cu2p
	Characteristic Energy eV	1486.61	Acquisition Time s	2.5
KE_Cu2p	BE_Cu2p	CPS_Cu2p
456.61	1030	5031.24
456.71	1029.9	5040.87
456.81	1029.8	5063.31
456.91	1029.7	5088.03
457.01	1029.6	5005.47
457.11	1029.5	5050.8
457.21	1029.4	5084.92
457.31	1029.3	5096.79
457.41	1029.2	5085.85
457.51	1029.1	5113.14
457.61	1029	5129.01
457.71	1028.9	5105.82
457.81	1028.8	5103.05
457.91	1028.7	5081.59
458.01	1028.6	5120.24
458.11	1028.5	5113.13
458.21	1028.4	5073.73
458.31	1028.3	5079.09
458.41	1028.2	5071.3
458.51	1028.1	5130.88
458.61	1028	5112.71
458.71	1027.9	5070.95
458.81	1027.8	5104.45
458.91	1027.7	5067.3
459.01	1027.6	5074.39
459.11	1027.5	5093.29
459.21	1027.4	5137.98
459.31	1027.3	5121.28
459.41	1027.2	5133.52
459.51	1027.1	5105.44
459.61	1027	5054.15
459.71	1026.9	5097.4
459.81	1026.8	5119.72
459.91	1026.7	5091.79
460.01	1026.6	5144.21
460.11	1026.5	5131.45
460.21	1026.4	5206.47
460.31	1026.3	5186.94
460.41	1026.2	5193.09
460.51	1026.1	5165.61
460.61	1026	5178.45
460.71	1025.9	5161.14
460.81	1025.8	5096.48
460.91	1025.7	5123.81
461.01	1025.6	5138.07
461.11	1025.5	5136.12
461.21	1025.4	5148.53
461.31	1025.3	5149.54
461.41	1025.2	5200.12
461.51	1025.1	5208.76
461.61	1025	5188.44
461.71	1024.9	5170.84
461.81	1024.8	5167.92
461.91	1024.7	5167.08
462.01	1024.6	5122.51
462.11	1024.5	5193.04
462.21	1024.4	5183.31
462.31	1024.3	5206.28
462.41	1024.2	5204.54
462.51	1024.1	5179.76
462.61	1024	5220.25
462.71	1023.9	5178.67
462.81	1023.8	5153.86
462.91	1023.7	5156.93
463.01	1023.6	5144.16
463.11	1023.5	5206.11
463.21	1023.4	5214.64
463.31	1023.3	5180.38
463.41	1023.2	5186.45
463.51	1023.1	5211.09
463.61	1023	5206.39
463.71	1022.9	5161.73
463.81	1022.8	5182.17
463.91	1022.7	5203.04
464.01	1022.6	5231.9
464.11	1022.5	5238.84
464.21	1022.4	5238.38
464.31	1022.3	5251.55
464.41	1022.2	5239.7
464.51	1022.1	5248.02
464.61	1022	5227.41
464.71	1021.9	5231.68
464.81	1021.8	5242.07
464.91	1021.7	5235.05
465.01	1021.6	5215.69
465.11	1021.5	5253.96
465.21	1021.4	5213.17
465.31	1021.3	5228.68
465.41	1021.2	5233.67
465.51	1021.1	5219.63
465.61	1021	5247.84
465.71	1020.9	5286.31
465.81	1020.8	5260.55
465.91	1020.7	5262.57
466.01	1020.6	5298.1
466.11	1020.5	5274.76
466.21	1020.4	5271.31
466.31	1020.3	5241.75
466.41	1020.2	5284.5
466.51	1020.1	5279.43
466.61	1020	5283.61
466.71	1019.9	5310.79
466.81	1019.8	5335.8
466.91	1019.7	5272.45
467.01	1019.6	5325.82
467.11	1019.5	5295.44
467.21	1019.4	5279.25
467.31	1019.3	5282.42
467.41	1019.2	5305.79
467.51	1019.1	5301.7
467.61	1019	5324.86
467.71	1018.9	5313.36
467.81	1018.8	5284
467.91	1018.7	5308.92
468.01	1018.6	5319.47
468.11	1018.5	5272.95
468.21	1018.4	5273.96
468.31	1018.3	5315.84
468.41	1018.2	5305.03
468.51	1018.1	5285.45
468.61	1018	5340.44
468.71	1017.9	5358.78
468.81	1017.8	5344.99
468.91	1017.7	5305.02
469.01	1017.6	5313.05
469.11	1017.5	5325.88
469.21	1017.4	5317.79
469.31	1017.3	5345.32
469.41	1017.2	5292.26
469.51	1017.1	5303.65
469.61	1017	5335.23
469.71	1016.9	5338.85
469.81	1016.8	5301.91
469.91	1016.7	5394.1
470.01	1016.6	5329.81
470.11	1016.5	5346.14
470.21	1016.4	5338.43
470.31	1016.3	5337.86
470.41	1016.2	5348.57
470.51	1016.1	5354.79
470.61	1016	5357.02
470.71	1015.9	5326.49
470.81	1015.8	5333.23
470.91	1015.7	5387.76
471.01	1015.6	5363.88
471.11	1015.5	5350.24
471.21	1015.4	5339.98
471.31	1015.3	5332.88
471.41	1015.2	5328.04
471.51	1015.1	5328.84
471.61	1015	5378.73
471.71	1014.9	5382.96
471.81	1014.8	5370.6
471.91	1014.7	5370.48
472.01	1014.6	5367.97
472.11	1014.5	5334.7
472.21	1014.4	5371.77
472.31	1014.3	5394.96
472.41	1014.2	5404.33
472.51	1014.1	5421.78
472.61	1014	5408.67
472.71	1013.9	5461.79
472.81	1013.8	5378.28
472.91	1013.7	5381.92
473.01	1013.6	5452.33
473.11	1013.5	5425.8
473.21	1013.4	5430.73
473.31	1013.3	5403.12
473.41	1013.2	5410.98
473.51	1013.1	5422.86
473.61	1013	5380.45
473.71	1012.9	5414.27
473.81	1012.8	5398.12
473.91	1012.7	5395.81
474.01	1012.6	5420.77
474.11	1012.5	5442.7
474.21	1012.4	5444.1
474.31	1012.3	5477.55
474.41	1012.2	5455.19
474.51	1012.1	5406.22
474.61	1012	5431.4
474.71	1011.9	5444.14
474.81	1011.8	5475.06
474.91	1011.7	5432.08
475.01	1011.6	5447.17
475.11	1011.5	5419.73
475.21	1011.4	5437.11
475.31	1011.3	5431.86
475.41	1011.2	5420.16
475.51	1011.1	5436.36
475.61	1011	5433.66
475.71	1010.9	5425.18
475.81	1010.8	5421.88
475.91	1010.7	5466.86
476.01	1010.6	5462.25
476.11	1010.5	5461.46
476.21	1010.4	5445.46
476.31	1010.3	5444.89
476.41	1010.2	5430.81
476.51	1010.1	5468.37
476.61	1010	5475.99
476.71	1009.9	5499.87
476.81	1009.8	5468.67
476.91	1009.7	5450.36
477.01	1009.6	5405.52
477.11	1009.5	5452.46
477.21	1009.4	5482.46
477.31	1009.3	5469.48
477.41	1009.2	5480.07
477.51	1009.1	5503.22
477.61	1009	5498.88
477.71	1008.9	5551.06
477.81	1008.8	5474.35
477.91	1008.7	5460.57
478.01	1008.6	5525.13
478.11	1008.5	5507.37
478.21	1008.4	5527.25
478.31	1008.3	5507.68
478.41	1008.2	5471.77
478.51	1008.1	5544.54
478.61	1008	5548.6
478.71	1007.9	5479.7
478.81	1007.8	5465.93
478.91	1007.7	5509.52
479.01	1007.6	5483.88
479.11	1007.5	5479.53
479.21	1007.4	5515.88
479.31	1007.3	5520.26
479.41	1007.2	5522.97
479.51	1007.1	5523.39
479.61	1007	5516.67
479.71	1006.9	5533.92
479.81	1006.8	5516.78
479.91	1006.7	5467.02
480.01	1006.6	5533.39
480.11	1006.5	5537.88
480.21	1006.4	5534.72
480.31	1006.3	5547.28
480.41	1006.2	5527.96
480.51	1006.1	5478.43
480.61	1006	5518.07
480.71	1005.9	5555.05
480.81	1005.8	5584.28
480.91	1005.7	5572.38
481.01	1005.6	5538.82
481.11	1005.5	5604.04
481.21	1005.4	5557.83
481.31	1005.3	5562.14
481.41	1005.2	5567.03
481.51	1005.1	5560.25
481.61	1005	5539.7
481.71	1004.9	5603.75
481.81	1004.8	5610.51
481.91	1004.7	5564.52
482.01	1004.6	5531.92
482.11	1004.5	5544.4
482.21	1004.4	5569.97
482.31	1004.3	5527.68
482.41	1004.2	5547.12
482.51	1004.1	5547.34
482.61	1004	5563.75
482.71	1003.9	5552.24
482.81	1003.8	5520.99
482.91	1003.7	5540.71
483.01	1003.6	5565.8
483.11	1003.5	5538.82
483.21	1003.4	5491.07
483.31	1003.3	5511.76
483.41	1003.2	5596.49
483.51	1003.1	5574.84
483.61	1003	5546.23
483.71	1002.9	5521.73
483.81	1002.8	5528.96
483.91	1002.7	5621.69
484.01	1002.6	5551.23
484.11	1002.5	5541.64
484.21	1002.4	5575
484.31	1002.3	5549.04
484.41	1002.2	5483.61
484.51	1002.1	5508.52
484.61	1002	5542.24
484.71	1001.9	5579.12
484.81	1001.8	5540.33
484.91	1001.7	5555.07
485.01	1001.6	5575.8
485.11	1001.5	5558.42
485.21	1001.4	5544.42
485.31	1001.3	5589.17
485.41	1001.2	5616.59
485.51	1001.1	5624.81
485.61	1001	5577.36
485.71	1000.9	5554.52
485.81	1000.8	5578.01
485.91	1000.7	5558.64
486.01	1000.6	5515.08
486.11	1000.5	5523.5
486.21	1000.4	5574.15
486.31	1000.3	5557.27
486.41	1000.2	5627.75
486.51	1000.1	5575.97
486.61	1000	5567.56
486.71	999.9	5543.6
486.81	999.8	5550.97
486.91	999.7	5549.8
487.01	999.6	5534.05
487.11	999.5	5537.79
487.21	999.4	5580.33
487.31	999.3	5597.3
487.41	999.2	5590.82
487.51	999.1	5580.86
487.61	999	5666.85
487.71	998.9	5607.67
487.81	998.8	5608.75
487.91	998.7	5612.37
488.01	998.6	5567.12
488.11	998.5	5605.81
488.21	998.4	5599.73
488.31	998.3	5645.85
488.41	998.2	5615.31
488.51	998.1	5618.41
488.61	998	5640.91
488.71	997.9	5663.9
488.81	997.8	5667.57
488.91	997.7	5602.53
489.01	997.6	5609.84
489.11	997.5	5628.02
489.21	997.4	5599.1
489.31	997.3	5620.12
489.41	997.2	5613.37
489.51	997.1	5625.21
489.61	997	5605.87
489.71	996.9	5610.93
489.81	996.8	5653.28
489.91	996.7	5639.28
490.01	996.6	5619.38
490.11	996.5	5661.75
490.21	996.4	5665.92
490.31	996.3	5578.83
490.41	996.2	5636.48
490.51	996.1	5659.27
490.61	996	5703.04
490.71	995.9	5689.64
490.81	995.8	5679.03
490.91	995.7	5684.33
491.01	995.6	5647.2
491.11	995.5	5671
491.21	995.4	5636.05
491.31	995.3	5680
491.41	995.2	5641.97
491.51	995.1	5663.4
491.61	995	5709.84
491.71	994.9	5687.13
491.81	994.8	5603.97
491.91	994.7	5621.77
492.01	994.6	5727.21
492.11	994.5	5694.64
492.21	994.4	5700.14
492.31	994.3	5683.76
492.41	994.2	5659.73
492.51	994.1	5710.59
492.61	994	5732.19
492.71	993.9	5717.56
492.81	993.8	5682.27
492.91	993.7	5657.34
493.01	993.6	5699.47
493.11	993.5	5683.09
493.21	993.4	5667.43
493.31	993.3	5693.79
493.41	993.2	5703.61
493.51	993.1	5672.31
493.61	993	5666.59
493.71	992.9	5712.56
493.81	992.8	5707.93
493.91	992.7	5703.98
494.01	992.6	5709.37
494.11	992.5	5716.32
494.21	992.4	5667.53
494.31	992.3	5660.32
494.41	992.2	5704.08
494.51	992.1	5681.11
494.61	992	5681.47
494.71	991.9	5653.27
494.81	991.8	5717.28
494.91	991.7	5716.97
495.01	991.6	5748.57
495.11	991.5	5721.37
495.21	991.4	5709.29
495.31	991.3	5714.05
495.41	991.2	5631.2
495.51	991.1	5669.07
495.61	991	5720.93
495.71	990.9	5715.04
495.81	990.8	5713.24
495.91	990.7	5739.81
496.01	990.6	5772.75
496.11	990.5	5768.72
496.21	990.4	5740.74
496.31	990.3	5761.34
496.41	990.2	5722.06
496.51	990.1	5782.77
496.61	990	5857.76
496.71	989.9	5868.85
496.81	989.8	5816.76
496.91	989.7	5838.74
497.01	989.6	5829.64
497.11	989.5	5771.61
497.21	989.4	5707.87
497.31	989.3	5667.28
497.41	989.2	5666.65
497.51	989.1	5677.5
497.61	989	5715.93
497.71	988.9	5679.77
497.81	988.8	5701.5
497.91	988.7	5694.84
498.01	988.6	5718.27
498.11	988.5	5666.08
498.21	988.4	5739.9
498.31	988.3	5657.07
498.41	988.2	5690.86
498.51	988.1	5699.35
498.61	988	5694.05
498.71	987.9	5660.8
498.81	987.8	5676.75
498.91	987.7	5640.12
499.01	987.6	5724.39
499.11	987.5	5710.72
499.21	987.4	5762.44
499.31	987.3	5733.64
499.41	987.2	5712.01
499.51	987.1	5784.94
499.61	987	5759.34
499.71	986.9	5791.13
499.81	986.8	5729.85
499.91	986.7	5759.83
500.01	986.6	5821.95
500.11	986.5	5746.09
500.21	986.4	5746.68
500.31	986.3	5734.26
500.41	986.2	5750.85
500.51	986.1	5784.63
500.61	986	5734.72
500.71	985.9	5769.28
500.81	985.8	5742.01
500.91	985.7	5751.2
501.01	985.6	5725.38
501.11	985.5	5712.65
501.21	985.4	5715.99
501.31	985.3	5723.94
501.41	985.2	5722.79
501.51	985.1	5740.14
501.61	985	5718.43
501.71	984.9	5635.01
501.81	984.8	5687.2
501.91	984.7	5701.75
502.01	984.6	5671.31
502.11	984.5	5696.73
502.21	984.4	5656.15
502.31	984.3	5702.77
502.41	984.2	5648.37
502.51	984.1	5619.03
502.61	984	5640.22
502.71	983.9	5646.06
502.81	983.8	5667.18
502.91	983.7	5609.92
503.01	983.6	5641.81
503.11	983.5	5644.12
503.21	983.4	5647.66
503.31	983.3	5647.97
503.41	983.2	5695.32
503.51	983.1	5715.16
503.61	983	5712.56
503.71	982.9	5707.93
503.81	982.8	5727.28
503.91	982.7	5776.2
504.01	982.6	5816.48
504.11	982.5	5827.25
504.21	982.4	5818.4
504.31	982.3	5869.59
504.41	982.2	5903.3
504.51	982.1	5900.34
504.61	982	5897.41
504.71	981.9	5887.31
504.81	981.8	5965.03
504.91	981.7	6017.09
505.01	981.6	5973.02
505.11	981.5	6014.11
505.21	981.4	6042.71
505.31	981.3	6087.12
505.41	981.2	6027.6
505.51	981.1	5990.25
505.61	981	5864.87
505.71	980.9	5818.26
505.81	980.8	5787.85
505.91	980.7	5720.63
506.01	980.6	5717.01
506.11	980.5	5758.04
506.21	980.4	5776.04
506.31	980.3	5817.68
506.41	980.2	5797.22
506.51	980.1	5772.44
506.61	980	5797.51
506.71	979.9	5762.17
506.81	979.8	5695.9
506.91	979.7	5686.56
507.01	979.6	5695.43
507.11	979.5	5670.85
507.21	979.4	5658.35
507.31	979.3	5668.38
507.41	979.2	5699
507.51	979.1	5658.21
507.61	979	5634.82
507.71	978.9	5690.6
507.81	978.8	5687.11
507.91	978.7	5652.3
508.01	978.6	5645.68
508.11	978.5	5596.3
508.21	978.4	5650.9
508.31	978.3	5680.9
508.41	978.2	5697.67
508.51	978.1	5649
508.61	978	5660.59
508.71	977.9	5677.52
508.81	977.8	5651.79
508.91	977.7	5682.57
509.01	977.6	5674.79
509.11	977.5	5738.94
509.21	977.4	5716.9
509.31	977.3	5731.98
509.41	977.2	5737.51
509.51	977.1	5704.17
509.61	977	5687.92
509.71	976.9	5653.14
509.81	976.8	5708.04
509.91	976.7	5685.09
510.01	976.6	5713.83
510.11	976.5	5686.7
510.21	976.4	5693.26
510.31	976.3	5673.39
510.41	976.2	5711.99
510.51	976.1	5709.85
510.61	976	5688.06
510.71	975.9	5709.14
510.81	975.8	5786.98
510.91	975.7	5720
511.01	975.6	5709.7
511.11	975.5	5757.83
511.21	975.4	5766.92
511.31	975.3	5801.48
511.41	975.2	5798.59
511.51	975.1	5738.66
511.61	975	5730.21
511.71	974.9	5765.44
511.81	974.8	5765.58
511.91	974.7	5779.64
512.01	974.6	5781.7
512.11	974.5	5786.87
512.21	974.4	5779.28
512.31	974.3	5724.35
512.41	974.2	5716.49
512.51	974.1	5777.95
512.61	974	5783.51
512.71	973.9	5753.68
512.81	973.8	5764.68
512.91	973.7	5760.85
513.01	973.6	5785.38
513.11	973.5	5716.14
513.21	973.4	5739
513.31	973.3	5730.09
513.41	973.2	5743.4
513.51	973.1	5698.75
513.61	973	5693.08
513.71	972.9	5708.87
513.81	972.8	5650.74
513.91	972.7	5667.9
514.01	972.6	5724.45
514.11	972.5	5675.11
514.21	972.4	5639.54
514.31	972.3	5675.39
514.41	972.2	5707.71
514.51	972.1	5693.72
514.61	972	5653.19
514.71	971.9	5655.44
514.81	971.8	5654.82
514.91	971.7	5673.98
515.01	971.6	5625.89
515.11	971.5	5618.45
515.21	971.4	5651.84
515.31	971.3	5657.65
515.41	971.2	5603.92
515.51	971.1	5598.89
515.61	971	5644.2
515.71	970.9	5677.73
515.81	970.8	5603.43
515.91	970.7	5597.92
516.01	970.6	5634.78
516.11	970.5	5664.53
516.21	970.4	5669.97
516.31	970.3	5615.24
516.41	970.2	5611.35
516.51	970.1	5659.02
516.61	970	5660.41
516.71	969.9	5610.67
516.81	969.8	5607.73
516.91	969.7	5625.98
517.01	969.6	5592.8
517.11	969.5	5611.79
517.21	969.4	5638.26
517.31	969.3	5626.28
517.41	969.2	5626
517.51	969.1	5592.24
517.61	969	5567.84
517.71	968.9	5585.81
517.81	968.8	5563.69
517.91	968.7	5609.9
518.01	968.6	5549.73
518.11	968.5	5497.37
518.21	968.4	5498.15
518.31	968.3	5515.08
518.41	968.2	5510.11
518.51	968.1	5558.31
518.61	968	5546.54
518.71	967.9	5514.86
518.81	967.8	5464.32
518.91	967.7	5598.45
519.01	967.6	5573.67
519.11	967.5	5528.68
519.21	967.4	5532.15
519.31	967.3	5515.15
519.41	967.2	5517.51
519.51	967.1	5489.49
519.61	967	5495.61
519.71	966.9	5463.12
519.81	966.8	5505.98
519.91	966.7	5486.44
520.01	966.6	5501.95
520.11	966.5	5500.14
520.21	966.4	5534.23
520.31	966.3	5473.65
520.41	966.2	5428.79
520.51	966.1	5447.67
520.61	966	5467.17
520.71	965.9	5471.1
520.81	965.8	5540.46
520.91	965.7	5517.47
521.01	965.6	5456.88
521.11	965.5	5522.82
521.21	965.4	5525.83
521.31	965.3	5532.1
521.41	965.2	5531.2
521.51	965.1	5498.13
521.61	965	5513.84
521.71	964.9	5515.66
521.81	964.8	5443.36
521.91	964.7	5469.98
522.01	964.6	5474.48
522.11	964.5	5434.29
522.21	964.4	5488.51
522.31	964.3	5483.65
522.41	964.2	5491.15
522.51	964.1	5488.58
522.61	964	5445.88
522.71	963.9	5457.07
522.81	963.8	5428.48
522.91	963.7	5469.53
523.01	963.6	5430.57
523.11	963.5	5475.64
523.21	963.4	5533.12
523.31	963.3	5495.45
523.41	963.2	5495.36
523.51	963.1	5513.92
523.61	963	5500.04
523.71	962.9	5542.88
523.81	962.8	5520.22
523.91	962.7	5535.74
524.01	962.6	5554.58
524.11	962.5	5570.11
524.21	962.4	5579.53
524.31	962.3	5587.09
524.41	962.2	5610.96
524.51	962.1	5633.9
524.61	962	5595.94
524.71	961.9	5624.09
524.81	961.8	5678.04
524.91	961.7	5678.96
525.01	961.6	5618.39
525.11	961.5	5631.67
525.21	961.4	5645.27
525.31	961.3	5584.63
525.41	961.2	5603.13
525.51	961.1	5662.43
525.61	961	5616.62
525.71	960.9	5605.44
525.81	960.8	5561.56
525.91	960.7	5485.95
526.01	960.6	5510.03
526.11	960.5	5498.39
526.21	960.4	5491.79
526.31	960.3	5433.7
526.41	960.2	5433.83
526.51	960.1	5450.73
526.61	960	5407.19
526.71	959.9	5386.88
526.81	959.8	5412.8
526.91	959.7	5364.12
527.01	959.6	5333.87
527.11	959.5	5313.53
527.21	959.4	5321
527.31	959.3	5313.52
527.41	959.2	5302.53
527.51	959.1	5258.71
527.61	959	5243.54
527.71	958.9	5260.24
527.81	958.8	5196.99
527.91	958.7	5223.05
528.01	958.6	5239.25
528.11	958.5	5210.37
528.21	958.4	5220.11
528.31	958.3	5229.07
528.41	958.2	5190.97
528.51	958.1	5242.54
528.61	958	5197.63
528.71	957.9	5190.33
528.81	957.8	5201.24
528.91	957.7	5191.97
529.01	957.6	5237.05
529.11	957.5	5243.67
529.21	957.4	5258.82
529.31	957.3	5233.99
529.41	957.2	5227.32
529.51	957.1	5239.84
529.61	957	5242.97
529.71	956.9	5227.62
529.81	956.8	5261.86
529.91	956.7	5280.64
530.01	956.6	5271.29
530.11	956.5	5277
530.21	956.4	5288.97
530.31	956.3	5301.5
530.41	956.2	5317.25
530.51	956.1	5359.84
530.61	956	5373.91
530.71	955.9	5394.01
530.81	955.8	5356.41
530.91	955.7	5388.18
531.01	955.6	5385.74
531.11	955.5	5418.85
531.21	955.4	5476.57
531.31	955.3	5480.73
531.41	955.2	5452.48
531.51	955.1	5474.65
531.61	955	5451.65
531.71	954.9	5488.99
531.81	954.8	5488.99
531.91	954.7	5515.01
532.01	954.6	5578.26
532.11	954.5	5624.3
532.21	954.4	5621.49
532.31	954.3	5633.82
532.41	954.2	5666.34
532.51	954.1	5673.38
532.61	954	5725.24
532.71	953.9	5822.39
532.81	953.8	5864.91
532.91	953.7	5861.22
533.01	953.6	5954.23
533.11	953.5	6006.29
533.21	953.4	6103.44
533.31	953.3	6293.71
533.41	953.2	6400.54
533.51	953.1	6492.66
533.61	953	6671.62
533.71	952.9	6961.96
533.81	952.8	7123.5
533.91	952.7	7225.43
534.01	952.6	7488.8
534.11	952.5	7598.82
534.21	952.4	7661.24
534.31	952.3	7684.82
534.41	952.2	7568.53
534.51	952.1	7451.07
534.61	952	7225.88
534.71	951.9	7015.08
534.81	951.8	6774.6
534.91	951.7	6549.02
535.01	951.6	6365.23
535.11	951.5	6140.46
535.21	951.4	5923.7
535.31	951.3	5818.85
535.41	951.2	5645.75
535.51	951.1	5523.35
535.61	951	5457.87
535.71	950.9	5358.52
535.81	950.8	5318.56
535.91	950.7	5282.82
536.01	950.6	5219.95
536.11	950.5	5190.33
536.21	950.4	5133.26
536.31	950.3	5070.75
536.41	950.2	5160.45
536.51	950.1	5128.45
536.61	950	5080.66
536.71	949.9	5090.27
536.81	949.8	5070.58
536.91	949.7	5022.61
537.01	949.6	5010.75
537.11	949.5	5032.52
537.21	949.4	5056.06
537.31	949.3	5001.47
537.41	949.2	4984.42
537.51	949.1	5025.41
537.61	949	4956.18
537.71	948.9	4943.98
537.81	948.8	4902.37
537.91	948.7	4988.91
538.01	948.6	4934.58
538.11	948.5	4894.73
538.21	948.4	4918.06
538.31	948.3	4926.69
538.41	948.2	4926.34
538.51	948.1	4936.45
538.61	948	4917.49
538.71	947.9	4920.98
538.81	947.8	4925.81
538.91	947.7	4923.39
539.01	947.6	4874.15
539.11	947.5	4874.18
539.21	947.4	4882.59
539.31	947.3	4851.53
539.41	947.2	4822.89
539.51	947.1	4852.63
539.61	947	4824.02
539.71	946.9	4785.31
539.81	946.8	4832.47
539.91	946.7	4745.83
540.01	946.6	4782.94
540.11	946.5	4844.91
540.21	946.4	4810.86
540.31	946.3	4809.99
540.41	946.2	4815.61
540.51	946.1	4772.06
540.61	946	4766.37
540.71	945.9	4746.48
540.81	945.8	4733.18
540.91	945.7	4686.73
541.01	945.6	4664.11
541.11	945.5	4716.39
541.21	945.4	4698.1
541.31	945.3	4679.36
541.41	945.2	4679.55
541.51	945.1	4693.64
541.61	945	4703.16
541.71	944.9	4657.89
541.81	944.8	4681.4
541.91	944.7	4708.13
542.01	944.6	4679.38
542.11	944.5	4706.45
542.21	944.4	4742.47
542.31	944.3	4774.06
542.41	944.2	4754.24
542.51	944.1	4782.51
542.61	944	4806.07
542.71	943.9	4799.06
542.81	943.8	4849.87
542.91	943.7	4835.26
543.01	943.6	4800.86
543.11	943.5	4827.61
543.21	943.4	4875.12
543.31	943.3	4862.77
543.41	943.2	4806.38
543.51	943.1	4798.1
543.61	943	4746.8
543.71	942.9	4793.82
543.81	942.8	4779.13
543.91	942.7	4762.32
544.01	942.6	4733.64
544.11	942.5	4791.06
544.21	942.4	4784.5
544.31	942.3	4787.49
544.41	942.2	4823.36
544.51	942.1	4816.87
544.61	942	4876.08
544.71	941.9	4844.82
544.81	941.8	4839.86
544.91	941.7	4861.8
545.01	941.6	4906.68
545.11	941.5	4958.97
545.21	941.4	5010.24
545.31	941.3	5040.25
545.41	941.2	5000.38
545.51	941.1	5044.59
545.61	941	5096.45
545.71	940.9	5088.29
545.81	940.8	5017.17
545.91	940.7	4994.03
546.01	940.6	4989.18
546.11	940.5	4923.36
546.21	940.4	4898.79
546.31	940.3	4853.82
546.41	940.2	4779.41
546.51	940.1	4729.4
546.61	940	4718.23
546.71	939.9	4661.19
546.81	939.8	4575.52
546.91	939.7	4536.71
547.01	939.6	4458.97
547.11	939.5	4467.24
547.21	939.4	4455.32
547.31	939.3	4387.28
547.41	939.2	4383.37
547.51	939.1	4362.18
547.61	939	4337.69
547.71	938.9	4321.6
547.81	938.8	4254.53
547.91	938.7	4292.34
548.01	938.6	4292.5
548.11	938.5	4311.61
548.21	938.4	4249.68
548.31	938.3	4253.31
548.41	938.2	4283.01
548.51	938.1	4271.5
548.61	938	4261.9
548.71	937.9	4190.72
548.81	937.8	4263.35
548.91	937.7	4301.35
549.01	937.6	4302.41
549.11	937.5	4275.85
549.21	937.4	4342.43
549.31	937.3	4318.77
549.41	937.2	4298.47
549.51	937.1	4314.79
549.61	937	4295.21
549.71	936.9	4324.92
549.81	936.8	4368.73
549.91	936.7	4333.94
550.01	936.6	4384.01
550.11	936.5	4381.41
550.21	936.4	4408.81
550.31	936.3	4414.12
550.41	936.2	4433.89
550.51	936.1	4468.11
550.61	936	4486.2
550.71	935.9	4529.26
550.81	935.8	4567.93
550.91	935.7	4549.85
551.01	935.6	4608.92
551.11	935.5	4633.5
551.21	935.4	4685.72
551.31	935.3	4738.35
551.41	935.2	4791.11
551.51	935.1	4815.83
551.61	935	4824.61
551.71	934.9	4884.74
551.81	934.8	4954.33
551.91	934.7	4992.98
552.01	934.6	4970.12
552.11	934.5	5050.11
552.21	934.4	5108.13
552.31	934.3	5151.87
552.41	934.2	5196.68
552.51	934.1	5278.85
552.61	934	5345.75
552.71	933.9	5495.65
552.81	933.8	5570.6
552.91	933.7	5739.56
553.01	933.6	5925.63
553.11	933.5	6149.99
553.21	933.4	6448.98
553.31	933.3	6952.12
553.41	933.2	7488.19
553.51	933.1	8170.22
553.61	933	8995.71
553.71	932.9	9853.84
553.81	932.8	10675.2
553.91	932.7	11278.8
554.01	932.6	11666
554.11	932.5	11689.4
554.21	932.4	11393.6
554.31	932.3	10751.4
554.41	932.2	9980.08
554.51	932.1	9057.75
554.61	932	8170.16
554.71	931.9	7398.84
554.81	931.8	6682.7
554.91	931.7	6149.4
555.01	931.6	5649.79
555.11	931.5	5254.12
555.21	931.4	4991.33
555.31	931.3	4779.51
555.41	931.2	4609.37
555.51	931.1	4406.17
555.61	931	4281.76
555.71	930.9	4200.13
555.81	930.8	4146.11
555.91	930.7	4090.8
556.01	930.6	4068.57
556.11	930.5	4023.87
556.21	930.4	3998.38
556.31	930.3	3939.72
556.41	930.2	3923.67
556.51	930.1	3952.31
556.61	930	3832.2
556.71	929.9	3866.3
556.81	929.8	3870.96
556.91	929.7	3845.67
557.01	929.6	3842.29
557.11	929.5	3848.31
557.21	929.4	3824.74
557.31	929.3	3829.4
557.41	929.2	3812.14
557.51	929.1	3837.51
557.61	929	3761.72
557.71	928.9	3805.35
557.81	928.8	3777.29
557.91	928.7	3750.56
558.01	928.6	3771.85
558.11	928.5	3750.52
558.21	928.4	3706.27
558.31	928.3	3739.62
558.41	928.2	3792.22
558.51	928.1	3748.75
558.61	928	3719.19
558.71	927.9	3763.66
558.81	927.8	3759.28
558.91	927.7	3755.92
559.01	927.6	3751.31
559.11	927.5	3750.76
559.21	927.4	3746.91
559.31	927.3	3743.25
559.41	927.2	3770.84
559.51	927.1	3759.65
559.61	927	3738.17
559.71	926.9	3758.55
559.81	926.8	3732.42
559.91	926.7	3716.07
560.01	926.6	3735.34
560.11	926.5	3715.1
560.21	926.4	3750.8
560.31	926.3	3716.14
560.41	926.2	3733.27
560.51	926.1	3744.58
560.61	926	3742.66
560.71	925.9	3718.54
560.81	925.8	3743.74
560.91	925.7	3781.92
561.01	925.6	3733.89
561.11	925.5	3739.91
561.21	925.4	3738.44
561.31	925.3	3748.39
561.41	925.2	3710.71
561.51	925.1	3718.01
561.61	925	3733.01
561.71	924.9	3746.36
561.81	924.8	3716.15
561.91	924.7	3690.84
562.01	924.6	3801.84
562.11	924.5	3759.52
562.21	924.4	3733.49
562.31	924.3	3740.67
562.41	924.2	3745.03
562.51	924.1	3763.58
562.61	924	3766.48
562.71	923.9	3745.28
562.81	923.8	3715.62
562.91	923.7	3769.53
563.01	923.6	3730.29
563.11	923.5	3762.53
563.21	923.4	3825.27
563.31	923.3	3751.35
563.41	923.2	3750.83
563.51	923.1	3774.92
563.61	923	3761.22
563.71	922.9	3782.58
563.81	922.8	3799.32
563.91	922.7	3776.78
564.01	922.6	3779.29
564.11	922.5	3732.28
564.21	922.4	3734.97
564.31	922.3	3764.11
564.41	922.2	3751.48
564.51	922.1	3795.24
564.61	922	3760.03
564.71	921.9	3744.56
564.81	921.8	3752.53
564.91	921.7	3758.3
565.01	921.6	3749.11
565.11	921.5	3785.9
565.21	921.4	3781.1
565.31	921.3	3779.14
565.41	921.2	3763.11
565.51	921.1	3775.13
565.61	921	3781.59
565.71	920.9	3775.34
565.81	920.8	3824.21
565.91	920.7	3827.09
566.01	920.6	3792.44
566.11	920.5	3782.81
566.21	920.4	3803.43
566.31	920.3	3778.32
566.41	920.2	3761.55
566.51	920.1	3789.59
566.61	920	3794.08