C:\Users\Mark\ownCloud\Muelheim Group\Projects\Gas phase background\EX321_CEC356_Au Ag and Cu in O2_clean.vms
Cu2p
	Characteristic Energy eV	1486.61	Acquisition Time s	0.9
KE_Cu2p	BE_Cu2p	CPS_Cu2p
456.61	1030	23188
456.71	1029.9	23338.8
456.81	1029.8	23366.2
456.91	1029.7	23187.7
457.01	1029.6	23234.9
457.11	1029.5	23164.4
457.21	1029.4	23296
457.31	1029.3	23332.1
457.41	1029.2	23369.9
457.51	1029.1	23470.9
457.61	1029	23386
457.71	1028.9	23273.5
457.81	1028.8	23308.3
457.91	1028.7	23410.8
458.01	1028.6	23460.1
458.11	1028.5	23517.4
458.21	1028.4	23417.3
458.31	1028.3	23307.1
458.41	1028.2	23366.4
458.51	1028.1	23482
458.61	1028	23307.9
458.71	1027.9	23363.6
458.81	1027.8	23403.5
458.91	1027.7	23367.7
459.01	1027.6	23318.9
459.11	1027.5	23228.4
459.21	1027.4	23342
459.31	1027.3	23388.2
459.41	1027.2	23409
459.51	1027.1	23423.4
459.61	1027	23392.5
459.71	1026.9	23436.7
459.81	1026.8	23430.1
459.91	1026.7	23393.8
460.01	1026.6	23492.2
460.11	1026.5	23469.8
460.21	1026.4	23432
460.31	1026.3	23527.6
460.41	1026.2	23449.8
460.51	1026.1	23495.4
460.61	1026	23484.9
460.71	1025.9	23412.1
460.81	1025.8	23551.7
460.91	1025.7	23452.1
461.01	1025.6	23460.3
461.11	1025.5	23570
461.21	1025.4	23555.6
461.31	1025.3	23519.9
461.41	1025.2	23629.6
461.51	1025.1	23603.5
461.61	1025	23508
461.71	1024.9	23491.2
461.81	1024.8	23574.8
461.91	1024.7	23536.1
462.01	1024.6	23495.9
462.11	1024.5	23532.2
462.21	1024.4	23560.5
462.31	1024.3	23723.7
462.41	1024.2	23590.3
462.51	1024.1	23662.1
462.61	1024	23581.7
462.71	1023.9	23561.7
462.81	1023.8	23662.1
462.91	1023.7	23645.9
463.01	1023.6	23537.7
463.11	1023.5	23707.4
463.21	1023.4	23801
463.31	1023.3	23789.3
463.41	1023.2	23629.7
463.51	1023.1	23585.5
463.61	1023	23712.6
463.71	1022.9	23630.6
463.81	1022.8	23649
463.91	1022.7	23691.3
464.01	1022.6	23754.7
464.11	1022.5	23804.3
464.21	1022.4	23715.3
464.31	1022.3	23673.4
464.41	1022.2	23792.5
464.51	1022.1	23656.9
464.61	1022	23648.1
464.71	1021.9	23720.7
464.81	1021.8	23768.3
464.91	1021.7	23777.7
465.01	1021.6	23768.6
465.11	1021.5	23796.7
465.21	1021.4	23787.3
465.31	1021.3	23730
465.41	1021.2	23724.8
465.51	1021.1	23890.6
465.61	1021	23855.7
465.71	1020.9	23864.7
465.81	1020.8	23734.9
465.91	1020.7	23758.3
466.01	1020.6	23811.6
466.11	1020.5	23834.4
466.21	1020.4	23909.7
466.31	1020.3	24027.8
466.41	1020.2	23846.1
466.51	1020.1	23775.5
466.61	1020	23893.5
466.71	1019.9	23827.8
466.81	1019.8	23919.9
466.91	1019.7	23979.8
467.01	1019.6	24044.4
467.11	1019.5	23881.1
467.21	1019.4	23857.8
467.31	1019.3	23946.9
467.41	1019.2	23990.2
467.51	1019.1	23899.5
467.61	1019	23851.6
467.71	1018.9	24030.7
467.81	1018.8	23964.2
467.91	1018.7	24060.4
468.01	1018.6	24083.9
468.11	1018.5	24007.1
468.21	1018.4	24072.1
468.31	1018.3	24059.1
468.41	1018.2	23970.7
468.51	1018.1	24067.2
468.61	1018	24071.3
468.71	1017.9	24023.1
468.81	1017.8	23956.9
468.91	1017.7	24081.7
469.01	1017.6	24201.5
469.11	1017.5	24200.5
469.21	1017.4	23996
469.31	1017.3	24010.5
469.41	1017.2	24136.3
469.51	1017.1	24143.8
469.61	1017	24181.8
469.71	1016.9	24121.7
469.81	1016.8	24027
469.91	1016.7	23973
470.01	1016.6	24248.6
470.11	1016.5	24235.5
470.21	1016.4	24213.1
470.31	1016.3	24151.1
470.41	1016.2	24209.4
470.51	1016.1	24140.7
470.61	1016	24232.3
470.71	1015.9	24221
470.81	1015.8	24262
470.91	1015.7	24303.7
471.01	1015.6	24297.9
471.11	1015.5	24331.4
471.21	1015.4	24339.4
471.31	1015.3	24230.6
471.41	1015.2	24146.6
471.51	1015.1	24403.9
471.61	1015	24339.2
471.71	1014.9	24374.9
471.81	1014.8	24278.7
471.91	1014.7	24331
472.01	1014.6	24351.1
472.11	1014.5	24307.9
472.21	1014.4	24382.8
472.31	1014.3	24362.4
472.41	1014.2	24381.2
472.51	1014.1	24326.6
472.61	1014	24427.3
472.71	1013.9	24357.6
472.81	1013.8	24397.8
472.91	1013.7	24389
473.01	1013.6	24412.5
473.11	1013.5	24408.6
473.21	1013.4	24533.1
473.31	1013.3	24475.9
473.41	1013.2	24440.8
473.51	1013.1	24502.2
473.61	1013	24518.1
473.71	1012.9	24507.7
473.81	1012.8	24612.9
473.91	1012.7	24490
474.01	1012.6	24517.4
474.11	1012.5	24450.7
474.21	1012.4	24531.1
474.31	1012.3	24333
474.41	1012.2	24594.8
474.51	1012.1	24678.6
474.61	1012	24580.8
474.71	1011.9	24638
474.81	1011.8	24522.5
474.91	1011.7	24517.2
475.01	1011.6	24471.7
475.11	1011.5	24533.4
475.21	1011.4	24627.7
475.31	1011.3	24783
475.41	1011.2	24677
475.51	1011.1	24656.3
475.61	1011	24546.8
475.71	1010.9	24524.7
475.81	1010.8	24703.1
475.91	1010.7	24742.1
476.01	1010.6	24661.2
476.11	1010.5	24651.8
476.21	1010.4	24794.8
476.31	1010.3	24627.5
476.41	1010.2	24750.9
476.51	1010.1	24790.4
476.61	1010	24764.1
476.71	1009.9	24914.3
476.81	1009.8	24826.5
476.91	1009.7	24952.7
477.01	1009.6	24861.9
477.11	1009.5	24702.1
477.21	1009.4	24766.8
477.31	1009.3	24739.4
477.41	1009.2	24912.5
477.51	1009.1	24797.7
477.61	1009	24760.2
477.71	1008.9	24761.6
477.81	1008.8	24936.2
477.91	1008.7	24950.9
478.01	1008.6	24846.9
478.11	1008.5	24848.5
478.21	1008.4	24894.7
478.31	1008.3	24808.7
478.41	1008.2	24862.1
478.51	1008.1	24971.6
478.61	1008	25013.8
478.71	1007.9	24936.4
478.81	1007.8	24852.9
478.91	1007.7	24822.8
479.01	1007.6	24942.5
479.11	1007.5	24840.5
479.21	1007.4	24892.7
479.31	1007.3	24933.4
479.41	1007.2	24821
479.51	1007.1	24929.9
479.61	1007	24873.7
479.71	1006.9	24906.2
479.81	1006.8	25042.6
479.91	1006.7	25133.2
480.01	1006.6	24889.1
480.11	1006.5	24999.6
480.21	1006.4	24910.4
480.31	1006.3	24900.2
480.41	1006.2	25003.7
480.51	1006.1	25010.8
480.61	1006	24925.2
480.71	1005.9	24929.4
480.81	1005.8	24961.7
480.91	1005.7	25040.1
481.01	1005.6	25044.6
481.11	1005.5	25026.9
481.21	1005.4	24868.6
481.31	1005.3	24920.3
481.41	1005.2	24868.7
481.51	1005.1	25007.5
481.61	1005	24969.2
481.71	1004.9	24992
481.81	1004.8	25011
481.91	1004.7	25014.7
482.01	1004.6	25030
482.11	1004.5	25085.4
482.21	1004.4	24979.5
482.31	1004.3	25029.8
482.41	1004.2	25122
482.51	1004.1	24929.9
482.61	1004	25018.1
482.71	1003.9	25076.6
482.81	1003.8	25009.7
482.91	1003.7	25047.3
483.01	1003.6	25104.7
483.11	1003.5	25091.5
483.21	1003.4	25128.3
483.31	1003.3	25236.2
483.41	1003.2	25179.1
483.51	1003.1	25159.1
483.61	1003	25013.4
483.71	1002.9	25109.8
483.81	1002.8	25285.7
483.91	1002.7	25209.8
484.01	1002.6	25182
484.11	1002.5	25055.4
484.21	1002.4	25134.7
484.31	1002.3	25147.1
484.41	1002.2	25227.8
484.51	1002.1	25224.5
484.61	1002	25371.3
484.71	1001.9	25449.4
484.81	1001.8	25236.5
484.91	1001.7	25325.4
485.01	1001.6	25441.3
485.11	1001.5	25242.1
485.21	1001.4	25309.1
485.31	1001.3	25312
485.41	1001.2	25415.5
485.51	1001.1	25354
485.61	1001	25201
485.71	1000.9	25298.7
485.81	1000.8	25276.5
485.91	1000.7	25424.2
486.01	1000.6	25379.6
486.11	1000.5	25279.6
486.21	1000.4	25372.8
486.31	1000.3	25357.7
486.41	1000.2	25450.3
486.51	1000.1	25376.8
486.61	1000	25566.3
486.71	999.9	25498.5
486.81	999.8	25399
486.91	999.7	25483.2
487.01	999.6	25581.5
487.11	999.5	25490.7
487.21	999.4	25350.6
487.31	999.3	25478.1
487.41	999.2	25522.1
487.51	999.1	25492.3
487.61	999	25581.3
487.71	998.9	25591.5
487.81	998.8	25580.9
487.91	998.7	25605.7
488.01	998.6	25528.5
488.11	998.5	25596.6
488.21	998.4	25635.2
488.31	998.3	25813.8
488.41	998.2	25675.3
488.51	998.1	25748.2
488.61	998	25650.2
488.71	997.9	25639.3
488.81	997.8	25767.8
488.91	997.7	25729.8
489.01	997.6	25759.7
489.11	997.5	25781.2
489.21	997.4	25793.6
489.31	997.3	25927.5
489.41	997.2	25739.8
489.51	997.1	25649
489.61	997	25891.6
489.71	996.9	25799.1
489.81	996.8	25868.2
489.91	996.7	25876.8
490.01	996.6	25964.8
490.11	996.5	25991.2
490.21	996.4	25944
490.31	996.3	25893.1
490.41	996.2	25935.7
490.51	996.1	26061.4
490.61	996	26038.5
490.71	995.9	26087.8
490.81	995.8	26152.2
490.91	995.7	26109.8
491.01	995.6	26161.1
491.11	995.5	26165.4
491.21	995.4	26139.4
491.31	995.3	26217.2
491.41	995.2	26267.2
491.51	995.1	26080.4
491.61	995	26135.1
491.71	994.9	26276.3
491.81	994.8	26277.5
491.91	994.7	26358.1
492.01	994.6	26393.8
492.11	994.5	26289.5
492.21	994.4	26130.3
492.31	994.3	26323.3
492.41	994.2	26204.7
492.51	994.1	26423.7
492.61	994	26461.8
492.71	993.9	26258.6
492.81	993.8	26275
492.91	993.7	26331.1
493.01	993.6	26152.6
493.11	993.5	26337.9
493.21	993.4	26324.7
493.31	993.3	26308
493.41	993.2	26374.1
493.51	993.1	26224.8
493.61	993	26297.2
493.71	992.9	26222.9
493.81	992.8	26174
493.91	992.7	26117.2
494.01	992.6	26259.6
494.11	992.5	26244.1
494.21	992.4	26170
494.31	992.3	26062.6
494.41	992.2	26157.9
494.51	992.1	26086.6
494.61	992	26142.6
494.71	991.9	26216.9
494.81	991.8	26239.1
494.91	991.7	26233.3
495.01	991.6	26079.6
495.11	991.5	26139.6
495.21	991.4	26089.8
495.31	991.3	25977.6
495.41	991.2	26212.6
495.51	991.1	26287.1
495.61	991	26155.5
495.71	990.9	26149.1
495.81	990.8	26153.1
495.91	990.7	26107.2
496.01	990.6	26281.7
496.11	990.5	26184.9
496.21	990.4	26130.5
496.31	990.3	26206.8
496.41	990.2	26258.6
496.51	990.1	26308.2
496.61	990	26204.4
496.71	989.9	26283.4
496.81	989.8	26128.3
496.91	989.7	26105.7
497.01	989.6	26212.5
497.11	989.5	26206
497.21	989.4	26274.7
497.31	989.3	26336.5
497.41	989.2	26300.1
497.51	989.1	26342.4
497.61	989	26454.8
497.71	988.9	26324.3
497.81	988.8	26314.6
497.91	988.7	26323.9
498.01	988.6	26173
498.11	988.5	26302.4
498.21	988.4	26205.2
498.31	988.3	26275.6
498.41	988.2	26237.4
498.51	988.1	26261.8
498.61	988	26328.8
498.71	987.9	26293.7
498.81	987.8	26244.8
498.91	987.7	26417.6
499.01	987.6	26284.2
499.11	987.5	26483.4
499.21	987.4	26331
499.31	987.3	26462.9
499.41	987.2	26401.2
499.51	987.1	26336.8
499.61	987	26368.2
499.71	986.9	26443.8
499.81	986.8	26357.6
499.91	986.7	26267.4
500.01	986.6	26262.3
500.11	986.5	26388.6
500.21	986.4	26368
500.31	986.3	26251.1
500.41	986.2	26352.1
500.51	986.1	26404.1
500.61	986	26352.9
500.71	985.9	26400.2
500.81	985.8	26452.4
500.91	985.7	26431.7
501.01	985.6	26531.5
501.11	985.5	26516.1
501.21	985.4	26488
501.31	985.3	26394.1
501.41	985.2	26426.7
501.51	985.1	26560.3
501.61	985	26499.8
501.71	984.9	26420.3
501.81	984.8	26304.1
501.91	984.7	26542.9
502.01	984.6	26444.9
502.11	984.5	26500.2
502.21	984.4	26606.3
502.31	984.3	26462.3
502.41	984.2	26265
502.51	984.1	26380.9
502.61	984	26585.1
502.71	983.9	26565.4
502.81	983.8	26491.3
502.91	983.7	26508.8
503.01	983.6	26584.6
503.11	983.5	26626.5
503.21	983.4	26517.4
503.31	983.3	26724
503.41	983.2	26585.5
503.51	983.1	26535.4
503.61	983	26548.9
503.71	982.9	26599.1
503.81	982.8	26653.1
503.91	982.7	26609
504.01	982.6	26756.4
504.11	982.5	26731.8
504.21	982.4	26700.5
504.31	982.3	26762.3
504.41	982.2	26762.9
504.51	982.1	26808.7
504.61	982	26740.1
504.71	981.9	26687.4
504.81	981.8	26654.6
504.91	981.7	26699.5
505.01	981.6	26713.8
505.11	981.5	26709.6
505.21	981.4	26870.1
505.31	981.3	26786.8
505.41	981.2	26838.8
505.51	981.1	26820.6
505.61	981	26744.3
505.71	980.9	26816.6
505.81	980.8	26921
505.91	980.7	26779.3
506.01	980.6	26861.8
506.11	980.5	26853.3
506.21	980.4	26951.2
506.31	980.3	26993.9
506.41	980.2	27068.9
506.51	980.1	27021.4
506.61	980	26983.3
506.71	979.9	27040.4
506.81	979.8	27078.1
506.91	979.7	27042.8
507.01	979.6	27072
507.11	979.5	27191.1
507.21	979.4	27084.7
507.31	979.3	27291.7
507.41	979.2	27190.3
507.51	979.1	27082.3
507.61	979	27188
507.71	978.9	27168.2
507.81	978.8	27282.3
507.91	978.7	27370.2
508.01	978.6	27339.4
508.11	978.5	27346
508.21	978.4	27388
508.31	978.3	27482.4
508.41	978.2	27397
508.51	978.1	27571.1
508.61	978	27635.9
508.71	977.9	27735.1
508.81	977.8	27661.8
508.91	977.7	27616.4
509.01	977.6	27764.3
509.11	977.5	27726.5
509.21	977.4	27873.5
509.31	977.3	27831.8
509.41	977.2	27755.4
509.51	977.1	27990.6
509.61	977	28080.7
509.71	976.9	28080.5
509.81	976.8	27945.2
509.91	976.7	28026.6
510.01	976.6	27998.1
510.11	976.5	28272.1
510.21	976.4	28336.9
510.31	976.3	28390.4
510.41	976.2	28447.1
510.51	976.1	28360.7
510.61	976	28453.7
510.71	975.9	28419.8
510.81	975.8	28664
510.91	975.7	28513.9
511.01	975.6	28696.5
511.11	975.5	28735.5
511.21	975.4	28748.4
511.31	975.3	28932.3
511.41	975.2	28912
511.51	975.1	28819
511.61	975	29012.2
511.71	974.9	29049.7
511.81	974.8	29203.9
511.91	974.7	29172.2
512.01	974.6	29051.6
512.11	974.5	29193.1
512.21	974.4	29172.3
512.31	974.3	29228.2
512.41	974.2	29132.6
512.51	974.1	29057.2
512.61	974	29105.4
512.71	973.9	28996.1
512.81	973.8	28917.4
512.91	973.7	28910.2
513.01	973.6	28781.6
513.11	973.5	28708.2
513.21	973.4	28803.6
513.31	973.3	28725.1
513.41	973.2	28505.2
513.51	973.1	28288.8
513.61	973	28412.6
513.71	972.9	28463
513.81	972.8	28436.3
513.91	972.7	28322.7
514.01	972.6	28321.4
514.11	972.5	28265.9
514.21	972.4	28249.1
514.31	972.3	28229.3
514.41	972.2	28219.5
514.51	972.1	28177.2
514.61	972	28075.5
514.71	971.9	27937.8
514.81	971.8	28201.1
514.91	971.7	28195.7
515.01	971.6	28068.1
515.11	971.5	28018.6
515.21	971.4	27967.4
515.31	971.3	27997.1
515.41	971.2	27993.3
515.51	971.1	27828.4
515.61	971	27865.2
515.71	970.9	27845.8
515.81	970.8	27916.7
515.91	970.7	27816.9
516.01	970.6	27722.8
516.11	970.5	27771.7
516.21	970.4	27711.9
516.31	970.3	27949.6
516.41	970.2	27841
516.51	970.1	27769.8
516.61	970	27593.1
516.71	969.9	27673.9
516.81	969.8	27597.6
516.91	969.7	27603.6
517.01	969.6	27424.5
517.11	969.5	27440.6
517.21	969.4	27508.7
517.31	969.3	27642.5
517.41	969.2	27570.4
517.51	969.1	27551.4
517.61	969	27459.8
517.71	968.9	27550.2
517.81	968.8	27536.1
517.91	968.7	27341.9
518.01	968.6	27403.6
518.11	968.5	27472.6
518.21	968.4	27566.2
518.31	968.3	27482.2
518.41	968.2	27465
518.51	968.1	27467.5
518.61	968	27324.7
518.71	967.9	27459.1
518.81	967.8	27444.9
518.91	967.7	27437.7
519.01	967.6	27548.7
519.11	967.5	27580.4
519.21	967.4	27609.5
519.31	967.3	27458.3
519.41	967.2	27494.9
519.51	967.1	27462.6
519.61	967	27471.3
519.71	966.9	27565.3
519.81	966.8	27399.5
519.91	966.7	27598.7
520.01	966.6	27676.9
520.11	966.5	27765.1
520.21	966.4	27726.2
520.31	966.3	27748.5
520.41	966.2	27873.8
520.51	966.1	27854.2
520.61	966	27961.9
520.71	965.9	28110.5
520.81	965.8	28154.5
520.91	965.7	28222.5
521.01	965.6	28207.3
521.11	965.5	28122.3
521.21	965.4	28196.7
521.31	965.3	28288
521.41	965.2	28473.9
521.51	965.1	28436
521.61	965	28422.3
521.71	964.9	28527.2
521.81	964.8	28430.4
521.91	964.7	28457.3
522.01	964.6	28352.9
522.11	964.5	28196.3
522.21	964.4	28244.4
522.31	964.3	28181.1
522.41	964.2	28109.5
522.51	964.1	28186.2
522.61	964	28122.7
522.71	963.9	28181.7
522.81	963.8	28115.8
522.91	963.7	28164.9
523.01	963.6	28289.5
523.11	963.5	28389.8
523.21	963.4	28346.2
523.31	963.3	28575.1
523.41	963.2	28720.6
523.51	963.1	28781.4
523.61	963	28952.8
523.71	962.9	29104.8
523.81	962.8	29017.5
523.91	962.7	29179.1
524.01	962.6	29403.4
524.11	962.5	29435.2
524.21	962.4	29476.2
524.31	962.3	29540.9
524.41	962.2	29531.7
524.51	962.1	29449.6
524.61	962	29459.7
524.71	961.9	29428.9
524.81	961.8	29372.8
524.91	961.7	29084.8
525.01	961.6	28988.6
525.11	961.5	28976.8
525.21	961.4	28855.3
525.31	961.3	28616.5
525.41	961.2	28473.8
525.51	961.1	28235.4
525.61	961	28208.9
525.71	960.9	27941.3
525.81	960.8	27875.7
525.91	960.7	27814.6
526.01	960.6	27547.3
526.11	960.5	27348.6
526.21	960.4	27389.1
526.31	960.3	27262.6
526.41	960.2	27080.8
526.51	960.1	26997.2
526.61	960	26880.1
526.71	959.9	26770.9
526.81	959.8	26780.8
526.91	959.7	26506.3
527.01	959.6	26454.8
527.11	959.5	26413.8
527.21	959.4	26477.3
527.31	959.3	26277.7
527.41	959.2	26402.2
527.51	959.1	26365.4
527.61	959	26322.6
527.71	958.9	26228.7
527.81	958.8	26198.1
527.91	958.7	26056.7
528.01	958.6	26151.1
528.11	958.5	26199.8
528.21	958.4	26268.4
528.31	958.3	26259
528.41	958.2	26160.3
528.51	958.1	26230.2
528.61	958	26156.3
528.71	957.9	26212.5
528.81	957.8	26291.5
528.91	957.7	26205.9
529.01	957.6	26445.8
529.11	957.5	26430.9
529.21	957.4	26459.1
529.31	957.3	26651.8
529.41	957.2	26680.6
529.51	957.1	26688.5
529.61	957	26640.8
529.71	956.9	26585.5
529.81	956.8	26763.8
529.91	956.7	26870.5
530.01	956.6	26986.3
530.11	956.5	27058.8
530.21	956.4	27131.7
530.31	956.3	27207.6
530.41	956.2	27342
530.51	956.1	27512.1
530.61	956	27489.4
530.71	955.9	27659.5
530.81	955.8	27930.7
530.91	955.7	28190.3
531.01	955.6	28238.9
531.11	955.5	28308.7
531.21	955.4	28687.6
531.31	955.3	28758.5
531.41	955.2	28893
531.51	955.1	29050.4
531.61	955	29264.8
531.71	954.9	29591.8
531.81	954.8	29759.1
531.91	954.7	30160.9
532.01	954.6	30347.7
532.11	954.5	30601.4
532.21	954.4	30896.4
532.31	954.3	31196
532.41	954.2	31710.3
532.51	954.1	31981.6
532.61	954	32464.9
532.71	953.9	32941
532.81	953.8	33578.2
532.91	953.7	34248.3
533.01	953.6	35276.9
533.11	953.5	36306.2
533.21	953.4	37552.8
533.31	953.3	38951.4
533.41	953.2	40585.4
533.51	953.1	42509.8
533.61	953	44545.2
533.71	952.9	46978.8
533.81	952.8	49396.7
533.91	952.7	51964.9
534.01	952.6	54043.8
534.11	952.5	55591.6
534.21	952.4	56525.7
534.31	952.3	56295.5
534.41	952.2	54926.4
534.51	952.1	53111.2
534.61	952	50641.3
534.71	951.9	48085.3
534.81	951.8	45078.5
534.91	951.7	42163.2
535.01	951.6	39444.7
535.11	951.5	37229.7
535.21	951.4	35209.4
535.31	951.3	33454
535.41	951.2	31945
535.51	951.1	30530
535.61	951	29417.6
535.71	950.9	28612.3
535.81	950.8	27856.6
535.91	950.7	27412.2
536.01	950.6	26761.9
536.11	950.5	26173.3
536.21	950.4	26027.7
536.31	950.3	25596.3
536.41	950.2	25331.3
536.51	950.1	25038
536.61	950	24987.5
536.71	949.9	24765.8
536.81	949.8	24328
536.91	949.7	24383.6
537.01	949.6	24332.3
537.11	949.5	24160
537.21	949.4	24054.7
537.31	949.3	23965.8
537.41	949.2	23972.6
537.51	949.1	23826.9
537.61	949	23668
537.71	948.9	23675.2
537.81	948.8	23531
537.91	948.7	23644.4
538.01	948.6	23561.3
538.11	948.5	23520
538.21	948.4	23485.1
538.31	948.3	23395.4
538.41	948.2	23430.5
538.51	948.1	23348
538.61	948	23386.9
538.71	947.9	23294.1
538.81	947.8	23355.8
538.91	947.7	23461.1
539.01	947.6	23470.6
539.11	947.5	23620.3
539.21	947.4	23621.1
539.31	947.3	23745.1
539.41	947.2	23809.4
539.51	947.1	23877.6
539.61	947	24064.4
539.71	946.9	24286.8
539.81	946.8	24338.2
539.91	946.7	24327.2
540.01	946.6	24406.9
540.11	946.5	24612.1
540.21	946.4	24653.3
540.31	946.3	24510.7
540.41	946.2	24442.6
540.51	946.1	24191
540.61	946	24110.4
540.71	945.9	24149.1
540.81	945.8	24029.3
540.91	945.7	23828.1
541.01	945.6	23848
541.11	945.5	23733
541.21	945.4	23813.2
541.31	945.3	23831.8
541.41	945.2	23846.5
541.51	945.1	23953.5
541.61	945	24074.3
541.71	944.9	24046.6
541.81	944.8	24354
541.91	944.7	24584
542.01	944.6	24743.9
542.11	944.5	24976.8
542.21	944.4	25231.5
542.31	944.3	25567.8
542.41	944.2	25466.6
542.51	944.1	25812.5
542.61	944	26044.2
542.71	943.9	26126.3
542.81	943.8	26173
542.91	943.7	26206.4
543.01	943.6	26335.1
543.11	943.5	26197.7
543.21	943.4	25926.2
543.31	943.3	25738.9
543.41	943.2	25698.2
543.51	943.1	25361.8
543.61	943	25206.8
543.71	942.9	24999
543.81	942.8	24893.3
543.91	942.7	24842.7
544.01	942.6	24720.2
544.11	942.5	24586.7
544.21	942.4	24567.6
544.31	942.3	24413.2
544.41	942.2	24341.9
544.51	942.1	24374.5
544.61	942	24219.9
544.71	941.9	24151.2
544.81	941.8	24227.2
544.91	941.7	24159.4
545.01	941.6	24090.2
545.11	941.5	24059.6
545.21	941.4	24109.7
545.31	941.3	24139.4
545.41	941.2	24103.3
545.51	941.1	24215.4
545.61	941	24223.1
545.71	940.9	24253.2
545.81	940.8	24251.6
545.91	940.7	24142.4
546.01	940.6	24137.1
546.11	940.5	23978.8
546.21	940.4	23938.3
546.31	940.3	23831.7
546.41	940.2	23497.6
546.51	940.1	23365
546.61	940	22982.5
546.71	939.9	22821.5
546.81	939.8	22654.5
546.91	939.7	22294.4
547.01	939.6	21998.7
547.11	939.5	21852.3
547.21	939.4	21534.7
547.31	939.3	21457
547.41	939.2	21285.8
547.51	939.1	21110.5
547.61	939	21129.5
547.71	938.9	20986.4
547.81	938.8	20845.6
547.91	938.7	20891.2
548.01	938.6	20791.8
548.11	938.5	20824.8
548.21	938.4	20750.7
548.31	938.3	20900.5
548.41	938.2	20897.1
548.51	938.1	20832.3
548.61	938	20858.6
548.71	937.9	21032
548.81	937.8	21088
548.91	937.7	21098
549.01	937.6	21123.3
549.11	937.5	21207.3
549.21	937.4	21468.6
549.31	937.3	21511.7
549.41	937.2	21614.7
549.51	937.1	21682
549.61	937	21693.9
549.71	936.9	21883.7
549.81	936.8	21920.6
549.91	936.7	21923.6
550.01	936.6	22111.6
550.11	936.5	22397.8
550.21	936.4	22392.6
550.31	936.3	22669.7
550.41	936.2	22788
550.51	936.1	23124
550.61	936	23369.6
550.71	935.9	23673.1
550.81	935.8	24029.8
550.91	935.7	24336.6
551.01	935.6	24703.4
551.11	935.5	25230.1
551.21	935.4	25506.1
551.31	935.3	25851.5
551.41	935.2	26283.4
551.51	935.1	26713.6
551.61	935	27010.9
551.71	934.9	27231.8
551.81	934.8	27905.7
551.91	934.7	28082.4
552.01	934.6	28521.4
552.11	934.5	28793.9
552.21	934.4	29402.8
552.31	934.3	30009.5
552.41	934.2	30553.5
552.51	934.1	31259.7
552.61	934	32253.7
552.71	933.9	33507.9
552.81	933.8	34858.7
552.91	933.7	36419.1
553.01	933.6	38803.2
553.11	933.5	41757.2
553.21	933.4	45679.6
553.31	933.3	50737.5
553.41	933.2	57442.8
553.51	933.1	65823.9
553.61	933	75271.2
553.71	932.9	85333
553.81	932.8	94793.4
553.91	932.7	102381
554.01	932.6	106667
554.11	932.5	106590
554.21	932.4	102581
554.31	932.3	94988.3
554.41	932.2	85363.3
554.51	932.1	75133.5
554.61	932	64603.6
554.71	931.9	55345.1
554.81	931.8	47371.4
554.91	931.7	40778.5
555.01	931.6	35568.1
555.11	931.5	31466.2
555.21	931.4	28303.4
555.31	931.3	25670.3
555.41	931.2	23757.4
555.51	931.1	22041.3
555.61	931	20801.9
555.71	930.9	19934.9
555.81	930.8	19073.9
555.91	930.7	18515.6
556.01	930.6	17987.1
556.11	930.5	17304.7
556.21	930.4	17106.2
556.31	930.3	16722.3
556.41	930.2	16390.9
556.51	930.1	16245.2
556.61	930	15913
556.71	929.9	15677.5
556.81	929.8	15662.9
556.91	929.7	15546.6
557.01	929.6	15263.9
557.11	929.5	15146
557.21	929.4	14978.7
557.31	929.3	14949
557.41	929.2	14892.4
557.51	929.1	14897.5
557.61	929	14716.8
557.71	928.9	14576.9
557.81	928.8	14512.4
557.91	928.7	14547.4
558.01	928.6	14484.5
558.11	928.5	14445.8
558.21	928.4	14311.7
558.31	928.3	14300
558.41	928.2	14353.5
558.51	928.1	14370.1
558.61	928	14203.3
558.71	927.9	14264.1
558.81	927.8	14222.4
558.91	927.7	14196.6
559.01	927.6	14106.5
559.11	927.5	14125.1
559.21	927.4	13998.4
559.31	927.3	13964.4
559.41	927.2	13948
559.51	927.1	13935.8
559.61	927	13884.5
559.71	926.9	13905.3
559.81	926.8	13897.5
559.91	926.7	13953.4
560.01	926.6	13966.5
560.11	926.5	13943.6
560.21	926.4	13866.6
560.31	926.3	13849.9
560.41	926.2	13849.5
560.51	926.1	13901.8
560.61	926	13901.7
560.71	925.9	13778.4
560.81	925.8	13794.7
560.91	925.7	13837.8
561.01	925.6	13737.1
561.11	925.5	13729.3
561.21	925.4	13797.2
561.31	925.3	13726
561.41	925.2	13705.1
561.51	925.1	13707.2
561.61	925	13671.3
561.71	924.9	13788.4
561.81	924.8	13774.6
561.91	924.7	13697.5
562.01	924.6	13738.3
562.11	924.5	13693.7
562.21	924.4	13680.2
562.31	924.3	13658.7
562.41	924.2	13691.6
562.51	924.1	13706.7
562.61	924	13780.2
562.71	923.9	13639.1
562.81	923.8	13588.5
562.91	923.7	13654.2
563.01	923.6	13705.1
563.11	923.5	13735.3
563.21	923.4	13793.5
563.31	923.3	13628.1
563.41	923.2	13609.7
563.51	923.1	13637
563.61	923	13647.8
563.71	922.9	13740.3
563.81	922.8	13697.4
563.91	922.7	13640.9
564.01	922.6	13578.8
564.11	922.5	13668.9
564.21	922.4	13703.1
564.31	922.3	13702.5
564.41	922.2	13643.3
564.51	922.1	13603.1
564.61	922	13661.5
564.71	921.9	13700.6
564.81	921.8	13731.6
564.91	921.7	13673.3
565.01	921.6	13653.5
565.11	921.5	13632.4
565.21	921.4	13564.4
565.31	921.3	13729.3
565.41	921.2	13555.7
565.51	921.1	13686.7
565.61	921	13775.2
565.71	920.9	13723.8
565.81	920.8	13690.6
565.91	920.7	13650.9
566.01	920.6	13681.1
566.11	920.5	13742.7
566.21	920.4	13664.2
566.31	920.3	13695.9
566.41	920.2	13557.2
566.51	920.1	13669.3
566.61	920	13755.6