C:\Users\Mark\ownCloud\Muelheim Group\Projects\Gas phase background\EX321_CEC356_Au Ag and Cu in O2_clean.vms
Cu2p
	Characteristic Energy eV	1486.61	Acquisition Time s	0.9
KE_Cu2p	BE_Cu2p	CPS_Cu2p
456.61	1030	1113.72
456.71	1029.9	1104.05
456.81	1029.8	1105.17
456.91	1029.7	1080.26
457.01	1029.6	1094.33
457.11	1029.5	1081.72
457.21	1029.4	1072.31
457.31	1029.3	1116.86
457.41	1029.2	1105.39
457.51	1029.1	1106.53
457.61	1029	1088.06
457.71	1028.9	1116.45
457.81	1028.8	1120.49
457.91	1028.7	1079.57
458.01	1028.6	1109.13
458.11	1028.5	1108.65
458.21	1028.4	1120.18
458.31	1028.3	1113.8
458.41	1028.2	1090.61
458.51	1028.1	1145.3
458.61	1028	1102.45
458.71	1027.9	1108.32
458.81	1027.8	1102.62
458.91	1027.7	1096.45
459.01	1027.6	1094.25
459.11	1027.5	1113.51
459.21	1027.4	1121.05
459.31	1027.3	1115.21
459.41	1027.2	1105.27
459.51	1027.1	1113.96
459.61	1027	1101.9
459.71	1026.9	1096.07
459.81	1026.8	1087.6
459.91	1026.7	1110.76
460.01	1026.6	1106.33
460.11	1026.5	1139.63
460.21	1026.4	1097.58
460.31	1026.3	1101.17
460.41	1026.2	1114.78
460.51	1026.1	1109.52
460.61	1026	1095.28
460.71	1025.9	1113.14
460.81	1025.8	1134.94
460.91	1025.7	1125.46
461.01	1025.6	1131
461.11	1025.5	1112.82
461.21	1025.4	1098.76
461.31	1025.3	1150.91
461.41	1025.2	1122.85
461.51	1025.1	1163.32
461.61	1025	1140.07
461.71	1024.9	1125.6
461.81	1024.8	1108.08
461.91	1024.7	1127.74
462.01	1024.6	1117.47
462.11	1024.5	1089.8
462.21	1024.4	1101.49
462.31	1024.3	1124.46
462.41	1024.2	1135.53
462.51	1024.1	1120.27
462.61	1024	1119.53
462.71	1023.9	1072.24
462.81	1023.8	1126.8
462.91	1023.7	1124.82
463.01	1023.6	1104.27
463.11	1023.5	1087.37
463.21	1023.4	1140.55
463.31	1023.3	1140.82
463.41	1023.2	1105.51
463.51	1023.1	1133
463.61	1023	1121.53
463.71	1022.9	1138.91
463.81	1022.8	1127.43
463.91	1022.7	1163.37
464.01	1022.6	1141.36
464.11	1022.5	1130.03
464.21	1022.4	1132.84
464.31	1022.3	1122.16
464.41	1022.2	1115.62
464.51	1022.1	1150.69
464.61	1022	1153.58
464.71	1021.9	1133.35
464.81	1021.8	1095.54
464.91	1021.7	1119.91
465.01	1021.6	1132.95
465.11	1021.5	1138.47
465.21	1021.4	1118.87
465.31	1021.3	1134.9
465.41	1021.2	1175.45
465.51	1021.1	1153.36
465.61	1021	1140.29
465.71	1020.9	1114.16
465.81	1020.8	1116.43
465.91	1020.7	1140.98
466.01	1020.6	1121.48
466.11	1020.5	1129.77
466.21	1020.4	1130.99
466.31	1020.3	1128.02
466.41	1020.2	1150.57
466.51	1020.1	1151.51
466.61	1020	1133.16
466.71	1019.9	1118.56
466.81	1019.8	1180.04
466.91	1019.7	1154.91
467.01	1019.6	1157.99
467.11	1019.5	1159.28
467.21	1019.4	1154.04
467.31	1019.3	1166.29
467.41	1019.2	1154.61
467.51	1019.1	1143.32
467.61	1019	1146.12
467.71	1018.9	1154.05
467.81	1018.8	1140.15
467.91	1018.7	1146.71
468.01	1018.6	1138.41
468.11	1018.5	1128.31
468.21	1018.4	1148.4
468.31	1018.3	1135.98
468.41	1018.2	1153.62
468.51	1018.1	1135.1
468.61	1018	1162.13
468.71	1017.9	1153.58
468.81	1017.8	1165.21
468.91	1017.7	1165.03
469.01	1017.6	1163.76
469.11	1017.5	1176.88
469.21	1017.4	1167.35
469.31	1017.3	1177.66
469.41	1017.2	1178.67
469.51	1017.1	1162.05
469.61	1017	1162.98
469.71	1016.9	1132.93
469.81	1016.8	1137.3
469.91	1016.7	1161
470.01	1016.6	1197.79
470.11	1016.5	1172.26
470.21	1016.4	1171.02
470.31	1016.3	1183.33
470.41	1016.2	1157.45
470.51	1016.1	1146.43
470.61	1016	1158.22
470.71	1015.9	1140.76
470.81	1015.8	1162.6
470.91	1015.7	1143.33
471.01	1015.6	1122.87
471.11	1015.5	1157
471.21	1015.4	1168.56
471.31	1015.3	1151.93
471.41	1015.2	1143.11
471.51	1015.1	1165.11
471.61	1015	1182.24
471.71	1014.9	1184.45
471.81	1014.8	1165.74
471.91	1014.7	1160.51
472.01	1014.6	1157.25
472.11	1014.5	1162.55
472.21	1014.4	1163.63
472.31	1014.3	1189.12
472.41	1014.2	1202.06
472.51	1014.1	1152.5
472.61	1014	1158.77
472.71	1013.9	1142.89
472.81	1013.8	1157.29
472.91	1013.7	1146.94
473.01	1013.6	1177.64
473.11	1013.5	1189.02
473.21	1013.4	1176.4
473.31	1013.3	1160.35
473.41	1013.2	1168.56
473.51	1013.1	1154.87
473.61	1013	1163.78
473.71	1012.9	1195.18
473.81	1012.8	1168.8
473.91	1012.7	1137.97
474.01	1012.6	1167.01
474.11	1012.5	1165.65
474.21	1012.4	1183.39
474.31	1012.3	1142.89
474.41	1012.2	1163.41
474.51	1012.1	1173.98
474.61	1012	1174.6
474.71	1011.9	1169.62
474.81	1011.8	1163.75
474.91	1011.7	1183.49
475.01	1011.6	1179.52
475.11	1011.5	1148.68
475.21	1011.4	1139.97
475.31	1011.3	1180.8
475.41	1011.2	1161.24
475.51	1011.1	1176.26
475.61	1011	1167.75
475.71	1010.9	1182.44
475.81	1010.8	1207.59
475.91	1010.7	1154.34
476.01	1010.6	1164.7
476.11	1010.5	1194.52
476.21	1010.4	1183.33
476.31	1010.3	1149.17
476.41	1010.2	1186.29
476.51	1010.1	1202.07
476.61	1010	1176.59
476.71	1009.9	1186.31
476.81	1009.8	1172.9
476.91	1009.7	1151.82
477.01	1009.6	1193.67
477.11	1009.5	1172.64
477.21	1009.4	1182.48
477.31	1009.3	1184.86
477.41	1009.2	1146.15
477.51	1009.1	1191.96
477.61	1009	1178.77
477.71	1008.9	1202.62
477.81	1008.8	1185.97
477.91	1008.7	1182
478.01	1008.6	1191.93
478.11	1008.5	1190.84
478.21	1008.4	1174.54
478.31	1008.3	1153.96
478.41	1008.2	1183.07
478.51	1008.1	1172.61
478.61	1008	1172.81
478.71	1007.9	1206.04
478.81	1007.8	1185.94
478.91	1007.7	1173.1
479.01	1007.6	1181.44
479.11	1007.5	1171.87
479.21	1007.4	1201.38
479.31	1007.3	1193.04
479.41	1007.2	1185.3
479.51	1007.1	1168.98
479.61	1007	1193.28
479.71	1006.9	1179.38
479.81	1006.8	1193.58
479.91	1006.7	1185.37
480.01	1006.6	1210.72
480.11	1006.5	1193.92
480.21	1006.4	1192.17
480.31	1006.3	1198.53
480.41	1006.2	1214.57
480.51	1006.1	1193.06
480.61	1006	1188.54
480.71	1005.9	1195.53
480.81	1005.8	1205.56
480.91	1005.7	1216.96
481.01	1005.6	1199.68
481.11	1005.5	1195.59
481.21	1005.4	1196.09
481.31	1005.3	1216.47
481.41	1005.2	1199.5
481.51	1005.1	1186.81
481.61	1005	1217.93
481.71	1004.9	1215.09
481.81	1004.8	1213.88
481.91	1004.7	1184.15
482.01	1004.6	1192.39
482.11	1004.5	1222.83
482.21	1004.4	1211.64
482.31	1004.3	1193.98
482.41	1004.2	1186.02
482.51	1004.1	1171.35
482.61	1004	1178.97
482.71	1003.9	1190.27
482.81	1003.8	1198.14
482.91	1003.7	1182.15
483.01	1003.6	1180.48
483.11	1003.5	1195.01
483.21	1003.4	1195.89
483.31	1003.3	1168
483.41	1003.2	1226.98
483.51	1003.1	1208.92
483.61	1003	1184.29
483.71	1002.9	1175.3
483.81	1002.8	1183
483.91	1002.7	1200.11
484.01	1002.6	1219.35
484.11	1002.5	1211.38
484.21	1002.4	1233.69
484.31	1002.3	1204.81
484.41	1002.2	1216.75
484.51	1002.1	1202.54
484.61	1002	1205.73
484.71	1001.9	1189.57
484.81	1001.8	1206.71
484.91	1001.7	1185.3
485.01	1001.6	1194.28
485.11	1001.5	1212.1
485.21	1001.4	1178.89
485.31	1001.3	1177.26
485.41	1001.2	1221.2
485.51	1001.1	1190.87
485.61	1001	1193.63
485.71	1000.9	1161.91
485.81	1000.8	1208.6
485.91	1000.7	1175.02
486.01	1000.6	1185.71
486.11	1000.5	1180.01
486.21	1000.4	1200.27
486.31	1000.3	1213.8
486.41	1000.2	1212.39
486.51	1000.1	1186.36
486.61	1000	1220.3
486.71	999.9	1186.27
486.81	999.8	1202.21
486.91	999.7	1194.31
487.01	999.6	1214.65
487.11	999.5	1214.98
487.21	999.4	1229.34
487.31	999.3	1193.66
487.41	999.2	1203.92
487.51	999.1	1210.65
487.61	999	1177.82
487.71	998.9	1174.3
487.81	998.8	1184.78
487.91	998.7	1195.78
488.01	998.6	1191.37
488.11	998.5	1175.73
488.21	998.4	1186.04
488.31	998.3	1206.02
488.41	998.2	1244.21
488.51	998.1	1219.34
488.61	998	1225.86
488.71	997.9	1224.77
488.81	997.8	1194.76
488.91	997.7	1220.23
489.01	997.6	1232.65
489.11	997.5	1207.49
489.21	997.4	1190.52
489.31	997.3	1206.6
489.41	997.2	1242.73
489.51	997.1	1206.07
489.61	997	1183.98
489.71	996.9	1178.12
489.81	996.8	1237.38
489.91	996.7	1204.4
490.01	996.6	1217.09
490.11	996.5	1211.55
490.21	996.4	1208.29
490.31	996.3	1192.73
490.41	996.2	1195.39
490.51	996.1	1241.55
490.61	996	1220.93
490.71	995.9	1193.84
490.81	995.8	1215.29
490.91	995.7	1208.18
491.01	995.6	1226.38
491.11	995.5	1214.7
491.21	995.4	1209.28
491.31	995.3	1231.72
491.41	995.2	1243
491.51	995.1	1214.31
491.61	995	1211.25
491.71	994.9	1228.86
491.81	994.8	1231.98
491.91	994.7	1218.4
492.01	994.6	1225.79
492.11	994.5	1204.19
492.21	994.4	1197.84
492.31	994.3	1202.89
492.41	994.2	1194.78
492.51	994.1	1184.63
492.61	994	1199.47
492.71	993.9	1195.41
492.81	993.8	1187.07
492.91	993.7	1195.94
493.01	993.6	1194.3
493.11	993.5	1213.07
493.21	993.4	1215.02
493.31	993.3	1186.99
493.41	993.2	1204.3
493.51	993.1	1228.39
493.61	993	1228.21
493.71	992.9	1175.82
493.81	992.8	1204
493.91	992.7	1243.09
494.01	992.6	1252.6
494.11	992.5	1224.44
494.21	992.4	1225.79
494.31	992.3	1181.03
494.41	992.2	1182.04
494.51	992.1	1211.95
494.61	992	1227.23
494.71	991.9	1206.62
494.81	991.8	1197.42
494.91	991.7	1222.43
495.01	991.6	1244.39
495.11	991.5	1228.94
495.21	991.4	1208.98
495.31	991.3	1197.65
495.41	991.2	1224.66
495.51	991.1	1247.99
495.61	991	1248.49
495.71	990.9	1221.17
495.81	990.8	1231.8
495.91	990.7	1246.42
496.01	990.6	1230.46
496.11	990.5	1231.62
496.21	990.4	1262.93
496.31	990.3	1252.51
496.41	990.2	1248.13
496.51	990.1	1255.22
496.61	990	1237.02
496.71	989.9	1230.57
496.81	989.8	1254.2
496.91	989.7	1217.35
497.01	989.6	1214.62
497.11	989.5	1223.24
497.21	989.4	1224.42
497.31	989.3	1244.62
497.41	989.2	1206.18
497.51	989.1	1239.86
497.61	989	1225.98
497.71	988.9	1228.32
497.81	988.8	1191.06
497.91	988.7	1178.01
498.01	988.6	1197.56
498.11	988.5	1189.9
498.21	988.4	1206.9
498.31	988.3	1217.23
498.41	988.2	1231.33
498.51	988.1	1210.37
498.61	988	1217.21
498.71	987.9	1229.14
498.81	987.8	1226.21
498.91	987.7	1218.92
499.01	987.6	1192.23
499.11	987.5	1232.42
499.21	987.4	1248.78
499.31	987.3	1218.81
499.41	987.2	1224.68
499.51	987.1	1245.98
499.61	987	1261.77
499.71	986.9	1230.57
499.81	986.8	1221.12
499.91	986.7	1249.52
500.01	986.6	1241.84
500.11	986.5	1240.41
500.21	986.4	1253.68
500.31	986.3	1216.58
500.41	986.2	1224.89
500.51	986.1	1221.73
500.61	986	1212.8
500.71	985.9	1257.18
500.81	985.8	1261.67
500.91	985.7	1244
501.01	985.6	1214.56
501.11	985.5	1222.77
501.21	985.4	1234.24
501.31	985.3	1235.83
501.41	985.2	1263.55
501.51	985.1	1220.19
501.61	985	1231.87
501.71	984.9	1214.35
501.81	984.8	1238.91
501.91	984.7	1230.62
502.01	984.6	1204.63
502.11	984.5	1210.69
502.21	984.4	1206.51
502.31	984.3	1192.26
502.41	984.2	1218.72
502.51	984.1	1209.5
502.61	984	1206.16
502.71	983.9	1192.66
502.81	983.8	1192.92
502.91	983.7	1178.76
503.01	983.6	1215.45
503.11	983.5	1211.08
503.21	983.4	1198.47
503.31	983.3	1219.14
503.41	983.2	1212.81
503.51	983.1	1188.77
503.61	983	1227.06
503.71	982.9	1221.21
503.81	982.8	1237.09
503.91	982.7	1263.34
504.01	982.6	1232.71
504.11	982.5	1225.84
504.21	982.4	1246.95
504.31	982.3	1250.21
504.41	982.2	1261.8
504.51	982.1	1254.36
504.61	982	1235.43
504.71	981.9	1264.54
504.81	981.8	1270.51
504.91	981.7	1276.05
505.01	981.6	1305.02
505.11	981.5	1297.96
505.21	981.4	1263.55
505.31	981.3	1235.21
505.41	981.2	1312.12
505.51	981.1	1274.03
505.61	981	1253.26
505.71	980.9	1218
505.81	980.8	1207.15
505.91	980.7	1233.72
506.01	980.6	1257.39
506.11	980.5	1236.6
506.21	980.4	1245.75
506.31	980.3	1267.64
506.41	980.2	1248.88
506.51	980.1	1223.66
506.61	980	1224
506.71	979.9	1194.2
506.81	979.8	1210.35
506.91	979.7	1215.99
507.01	979.6	1213.63
507.11	979.5	1212.39
507.21	979.4	1214.79
507.31	979.3	1198.73
507.41	979.2	1197.34
507.51	979.1	1195.08
507.61	979	1201.54
507.71	978.9	1188.87
507.81	978.8	1185.04
507.91	978.7	1219.11
508.01	978.6	1204.52
508.11	978.5	1152.76
508.21	978.4	1194.02
508.31	978.3	1209.47
508.41	978.2	1214.36
508.51	978.1	1216.54
508.61	978	1227.66
508.71	977.9	1224.63
508.81	977.8	1194.17
508.91	977.7	1193.02
509.01	977.6	1205.46
509.11	977.5	1205.58
509.21	977.4	1220.69
509.31	977.3	1228.46
509.41	977.2	1177.38
509.51	977.1	1199.75
509.61	977	1211.33
509.71	976.9	1212.79
509.81	976.8	1197.1
509.91	976.7	1191.67
510.01	976.6	1201.37
510.11	976.5	1227.37
510.21	976.4	1190.22
510.31	976.3	1183.05
510.41	976.2	1191.93
510.51	976.1	1216.61
510.61	976	1207.56
510.71	975.9	1208.39
510.81	975.8	1196.32
510.91	975.7	1222.87
511.01	975.6	1181.75
511.11	975.5	1205.46
511.21	975.4	1229.57
511.31	975.3	1223.15
511.41	975.2	1218.9
511.51	975.1	1215.38
511.61	975	1216.67
511.71	974.9	1226.41
511.81	974.8	1223.45
511.91	974.7	1196.6
512.01	974.6	1240.84
512.11	974.5	1230.1
512.21	974.4	1204.84
512.31	974.3	1231.4
512.41	974.2	1207.71
512.51	974.1	1220.05
512.61	974	1234.6
512.71	973.9	1222.12
512.81	973.8	1204.17
512.91	973.7	1207.99
513.01	973.6	1186.07
513.11	973.5	1222.58
513.21	973.4	1266.03
513.31	973.3	1226.61
513.41	973.2	1212.56
513.51	973.1	1220.26
513.61	973	1228.61
513.71	972.9	1220.71
513.81	972.8	1188.21
513.91	972.7	1215.33
514.01	972.6	1208.14
514.11	972.5	1211.01
514.21	972.4	1216.09
514.31	972.3	1214.57
514.41	972.2	1186.67
514.51	972.1	1218.2
514.61	972	1221.61
514.71	971.9	1210.59
514.81	971.8	1228.29
514.91	971.7	1241.78
515.01	971.6	1230.31
515.11	971.5	1192.35
515.21	971.4	1188.27
515.31	971.3	1198.59
515.41	971.2	1207.47
515.51	971.1	1227.13
515.61	971	1201.16
515.71	970.9	1218.17
515.81	970.8	1198.86
515.91	970.7	1180.29
516.01	970.6	1204.19
516.11	970.5	1192.55
516.21	970.4	1186.23
516.31	970.3	1201.27
516.41	970.2	1229.71
516.51	970.1	1212.62
516.61	970	1161.12
516.71	969.9	1218.08
516.81	969.8	1215.71
516.91	969.7	1204.78
517.01	969.6	1251.32
517.11	969.5	1222.24
517.21	969.4	1190.8
517.31	969.3	1193.4
517.41	969.2	1177.85
517.51	969.1	1191.16
517.61	969	1186.48
517.71	968.9	1216.52
517.81	968.8	1218.76
517.91	968.7	1216.76
518.01	968.6	1200.68
518.11	968.5	1203.17
518.21	968.4	1194.27
518.31	968.3	1217.43
518.41	968.2	1220.9
518.51	968.1	1231.34
518.61	968	1236.44
518.71	967.9	1202.57
518.81	967.8	1190.34
518.91	967.7	1171.36
519.01	967.6	1164.83
519.11	967.5	1167.31
519.21	967.4	1192.61
519.31	967.3	1162.73
519.41	967.2	1181.96
519.51	967.1	1184.98
519.61	967	1214.06
519.71	966.9	1159.83
519.81	966.8	1170.53
519.91	966.7	1203.43
520.01	966.6	1207.93
520.11	966.5	1192.26
520.21	966.4	1199.95
520.31	966.3	1182.6
520.41	966.2	1167.94
520.51	966.1	1181.69
520.61	966	1179.85
520.71	965.9	1171.23
520.81	965.8	1198.76
520.91	965.7	1175.55
521.01	965.6	1209.99
521.11	965.5	1164.95
521.21	965.4	1173.65
521.31	965.3	1169.26
521.41	965.2	1198.03
521.51	965.1	1194.57
521.61	965	1185.34
521.71	964.9	1204.58
521.81	964.8	1171.11
521.91	964.7	1184.6
522.01	964.6	1182.3
522.11	964.5	1189.12
522.21	964.4	1188.52
522.31	964.3	1197.26
522.41	964.2	1167.29
522.51	964.1	1147.89
522.61	964	1173.75
522.71	963.9	1174.01
522.81	963.8	1186.05
522.91	963.7	1194.56
523.01	963.6	1166.24
523.11	963.5	1190.52
523.21	963.4	1193.8
523.31	963.3	1169.61
523.41	963.2	1165.5
523.51	963.1	1217.02
523.61	963	1183.16
523.71	962.9	1162.03
523.81	962.8	1139.79
523.91	962.7	1205.49
524.01	962.6	1183.96
524.11	962.5	1157.03
524.21	962.4	1153.79
524.31	962.3	1196.4
524.41	962.2	1184.77
524.51	962.1	1193.32
524.61	962	1202.43
524.71	961.9	1204.42
524.81	961.8	1182.37
524.91	961.7	1165.93
525.01	961.6	1170.65
525.11	961.5	1181.42
525.21	961.4	1187.35
525.31	961.3	1203.41
525.41	961.2	1181.21
525.51	961.1	1226.44
525.61	961	1206.73
525.71	960.9	1204.26
525.81	960.8	1202.27
525.91	960.7	1183.94
526.01	960.6	1197.33
526.11	960.5	1178.83
526.21	960.4	1186.17
526.31	960.3	1221.49
526.41	960.2	1180.9
526.51	960.1	1185.84
526.61	960	1206.63
526.71	959.9	1168.7
526.81	959.8	1160.34
526.91	959.7	1158.17
527.01	959.6	1174.47
527.11	959.5	1172.37
527.21	959.4	1187.13
527.31	959.3	1165.38
527.41	959.2	1139
527.51	959.1	1162.11
527.61	959	1159.82
527.71	958.9	1158.91
527.81	958.8	1137.39
527.91	958.7	1151.71
528.01	958.6	1148.87
528.11	958.5	1169.88
528.21	958.4	1154.02
528.31	958.3	1164.47
528.41	958.2	1180.62
528.51	958.1	1162.71
528.61	958	1164.84
528.71	957.9	1155.21
528.81	957.8	1143.02
528.91	957.7	1155.66
529.01	957.6	1166.79
529.11	957.5	1155.16
529.21	957.4	1154.46
529.31	957.3	1119.79
529.41	957.2	1131.35
529.51	957.1	1154.12
529.61	957	1167.13
529.71	956.9	1177.47
529.81	956.8	1164.25
529.91	956.7	1141.62
530.01	956.6	1138.11
530.11	956.5	1161.56
530.21	956.4	1163.38
530.31	956.3	1151.82
530.41	956.2	1149.6
530.51	956.1	1194.83
530.61	956	1196.35
530.71	955.9	1175.89
530.81	955.8	1157.66
530.91	955.7	1185.78
531.01	955.6	1171.34
531.11	955.5	1175.22
531.21	955.4	1179.1
531.31	955.3	1203.33
531.41	955.2	1194.72
531.51	955.1	1172.66
531.61	955	1174.66
531.71	954.9	1189.4
531.81	954.8	1173.82
531.91	954.7	1182.03
532.01	954.6	1195
532.11	954.5	1183.64
532.21	954.4	1186.11
532.31	954.3	1216.97
532.41	954.2	1203.56
532.51	954.1	1179.82
532.61	954	1197.63
532.71	953.9	1188.52
532.81	953.8	1217.07
532.91	953.7	1236.24
533.01	953.6	1239.12
533.11	953.5	1239.34
533.21	953.4	1236.83
533.31	953.3	1220.93
533.41	953.2	1264.19
533.51	953.1	1312.01
533.61	953	1307.92
533.71	952.9	1320.61
533.81	952.8	1356.51
533.91	952.7	1385.43
534.01	952.6	1386.83
534.11	952.5	1401.93
534.21	952.4	1421.71
534.31	952.3	1430.07
534.41	952.2	1398.69
534.51	952.1	1379.26
534.61	952	1365.28
534.71	951.9	1349.96
534.81	951.8	1342.21
534.91	951.7	1304.13
535.01	951.6	1291.83
535.11	951.5	1245.67
535.21	951.4	1213.79
535.31	951.3	1206.49
535.41	951.2	1195.55
535.51	951.1	1187.85
535.61	951	1186.58
535.71	950.9	1168.83
535.81	950.8	1191.87
535.91	950.7	1196.07
536.01	950.6	1196.93
536.11	950.5	1182.31
536.21	950.4	1177.35
536.31	950.3	1159.43
536.41	950.2	1158.61
536.51	950.1	1167.4
536.61	950	1167.34
536.71	949.9	1178.42
536.81	949.8	1202.71
536.91	949.7	1202.54
537.01	949.6	1176.96
537.11	949.5	1207.74
537.21	949.4	1196.14
537.31	949.3	1181.56
537.41	949.2	1185.91
537.51	949.1	1188.6
537.61	949	1185.01
537.71	948.9	1164.05
537.81	948.8	1145.88
537.91	948.7	1157.1
538.01	948.6	1181.56
538.11	948.5	1157.99
538.21	948.4	1155.87
538.31	948.3	1193.72
538.41	948.2	1174.19
538.51	948.1	1165.92
538.61	948	1163.01
538.71	947.9	1157.08
538.81	947.8	1149.23
538.91	947.7	1156.01
539.01	947.6	1158.74
539.11	947.5	1131.47
539.21	947.4	1158.24
539.31	947.3	1155.17
539.41	947.2	1155.89
539.51	947.1	1157.75
539.61	947	1124.88
539.71	946.9	1161.25
539.81	946.8	1124.4
539.91	946.7	1108.78
540.01	946.6	1126.97
540.11	946.5	1146.63
540.21	946.4	1116.11
540.31	946.3	1101.41
540.41	946.2	1118.63
540.51	946.1	1123.15
540.61	946	1106.19
540.71	945.9	1115.2
540.81	945.8	1127.56
540.91	945.7	1115.79
541.01	945.6	1136.34
541.11	945.5	1117.6
541.21	945.4	1101.4
541.31	945.3	1116.84
541.41	945.2	1111.85
541.51	945.1	1102.18
541.61	945	1095.26
541.71	944.9	1095.85
541.81	944.8	1109.78
541.91	944.7	1110.08
542.01	944.6	1107.77
542.11	944.5	1109.57
542.21	944.4	1099.45
542.31	944.3	1069.21
542.41	944.2	1119.48
542.51	944.1	1119.31
542.61	944	1121.93
542.71	943.9	1088.91
542.81	943.8	1080.05
542.91	943.7	1119.97
543.01	943.6	1114.46
543.11	943.5	1101.57
543.21	943.4	1089.8
543.31	943.3	1119.17
543.41	943.2	1138.18
543.51	943.1	1115.23
543.61	943	1094.92
543.71	942.9	1096.3
543.81	942.8	1110.42
543.91	942.7	1123.84
544.01	942.6	1126
544.11	942.5	1103.02
544.21	942.4	1112.1
544.31	942.3	1134.01
544.41	942.2	1118
544.51	942.1	1121.1
544.61	942	1114.45
544.71	941.9	1144.52
544.81	941.8	1161.46
544.91	941.7	1163.38
545.01	941.6	1141.44
545.11	941.5	1181.25
545.21	941.4	1159.59
545.31	941.3	1164.8
545.41	941.2	1188.98
545.51	941.1	1199.46
545.61	941	1195.68
545.71	940.9	1184.01
545.81	940.8	1172.61
545.91	940.7	1190.97
546.01	940.6	1178.52
546.11	940.5	1162.03
546.21	940.4	1169.84
546.31	940.3	1153.45
546.41	940.2	1150.06
546.51	940.1	1145.79
546.61	940	1120.7
546.71	939.9	1107.1
546.81	939.8	1096.72
546.91	939.7	1102.59
547.01	939.6	1096.03
547.11	939.5	1092.69
547.21	939.4	1092.62
547.31	939.3	1074.3
547.41	939.2	1096.85
547.51	939.1	1087.88
547.61	939	1083.06
547.71	938.9	1108.82
547.81	938.8	1098.42
547.91	938.7	1074.28
548.01	938.6	1062.97
548.11	938.5	1082.83
548.21	938.4	1079.2
548.31	938.3	1069.57
548.41	938.2	1070.41
548.51	938.1	1085.18
548.61	938	1070.16
548.71	937.9	1056.42
548.81	937.8	1069.84
548.91	937.7	1070.61
549.01	937.6	1098.47
549.11	937.5	1081.76
549.21	937.4	1104.95
549.31	937.3	1116.37
549.41	937.2	1077.91
549.51	937.1	1071.07
549.61	937	1104.25
549.71	936.9	1074.59
549.81	936.8	1064.82
549.91	936.7	1085.38
550.01	936.6	1079.26
550.11	936.5	1068.05
550.21	936.4	1101.06
550.31	936.3	1094.56
550.41	936.2	1103.91
550.51	936.1	1092.92
550.61	936	1097.47
550.71	935.9	1083.23
550.81	935.8	1101.66
550.91	935.7	1121.87
551.01	935.6	1085.8
551.11	935.5	1120.24
551.21	935.4	1118.98
551.31	935.3	1106.96
551.41	935.2	1118.04
551.51	935.1	1127.41
551.61	935	1140.57
551.71	934.9	1115.54
551.81	934.8	1139.05
551.91	934.7	1111.76
552.01	934.6	1135.69
552.11	934.5	1132.36
552.21	934.4	1137.89
552.31	934.3	1144.39
552.41	934.2	1120.84
552.51	934.1	1156.2
552.61	934	1186.23
552.71	933.9	1185.21
552.81	933.8	1203.14
552.91	933.7	1235.01
553.01	933.6	1240.87
553.11	933.5	1287.45
553.21	933.4	1308.99
553.31	933.3	1328.41
553.41	933.2	1418.56
553.51	933.1	1472.95
553.61	933	1543.33
553.71	932.9	1656.86
553.81	932.8	1750.79
553.91	932.7	1857.64
554.01	932.6	1903.23
554.11	932.5	1921.54
554.21	932.4	1861.11
554.31	932.3	1816.28
554.41	932.2	1729.32
554.51	932.1	1622.4
554.61	932	1533.23
554.71	931.9	1461.81
554.81	931.8	1376.9
554.91	931.7	1255.45
555.01	931.6	1217.39
555.11	931.5	1191.61
555.21	931.4	1170.31
555.31	931.3	1175.08
555.41	931.2	1151.63
555.51	931.1	1151.96
555.61	931	1133.69
555.71	930.9	1086.73
555.81	930.8	1088.23
555.91	930.7	1096.12
556.01	930.6	1093.76
556.11	930.5	1070.77
556.21	930.4	1069.13
556.31	930.3	1081.03
556.41	930.2	1087.78
556.51	930.1	1070.43
556.61	930	1079.73
556.71	929.9	1073.99
556.81	929.8	1054.52
556.91	929.7	1038.8
557.01	929.6	1039.27
557.11	929.5	1026.52
557.21	929.4	1058.24
557.31	929.3	1065.78
557.41	929.2	1057.35
557.51	929.1	1052.49
557.61	929	1077.98
557.71	928.9	1058.97
557.81	928.8	1044.76
557.91	928.7	1075.7
558.01	928.6	1045.87
558.11	928.5	1052.89
558.21	928.4	1040.61
558.31	928.3	1065
558.41	928.2	1090.6
558.51	928.1	1089.28
558.61	928	1057.14
558.71	927.9	1046.39
558.81	927.8	1041.04
558.91	927.7	1053.86
559.01	927.6	1071.43
559.11	927.5	1060.07
559.21	927.4	1068.37
559.31	927.3	1048.51
559.41	927.2	1052.89
559.51	927.1	1048.19
559.61	927	1083.07
559.71	926.9	1091.29
559.81	926.8	1068.36
559.91	926.7	1068.54
560.01	926.6	1075.07
560.11	926.5	1073.1
560.21	926.4	1080.98
560.31	926.3	1076.57
560.41	926.2	1074.77
560.51	926.1	1085.1
560.61	926	1063.75
560.71	925.9	1063.78
560.81	925.8	1070.14
560.91	925.7	1076.54
561.01	925.6	1108.79
561.11	925.5	1080.19
561.21	925.4	1074.99
561.31	925.3	1083.61
561.41	925.2	1078.68
561.51	925.1	1073.73
561.61	925	1098.77
561.71	924.9	1080.46
561.81	924.8	1055.03
561.91	924.7	1068.17
562.01	924.6	1065.14
562.11	924.5	1057.93
562.21	924.4	1081.1
562.31	924.3	1068.73
562.41	924.2	1092.69
562.51	924.1	1104.97
562.61	924	1058.03
562.71	923.9	1078.68
562.81	923.8	1084.17
562.91	923.7	1083.67
563.01	923.6	1052.81
563.11	923.5	1059.24
563.21	923.4	1062.71
563.31	923.3	1079.68
563.41	923.2	1082.83
563.51	923.1	1052.41
563.61	923	1063.2
563.71	922.9	1097.76
563.81	922.8	1105.07
563.91	922.7	1101.32
564.01	922.6	1109.54
564.11	922.5	1080.4
564.21	922.4	1074.89
564.31	922.3	1062.06
564.41	922.2	1067.2
564.51	922.1	1080.55
564.61	922	1067.9
564.71	921.9	1064.84
564.81	921.8	1079.93
564.91	921.7	1088.05
565.01	921.6	1091.18
565.11	921.5	1106.12
565.21	921.4	1100.21
565.31	921.3	1070.8
565.41	921.2	1083.63
565.51	921.1	1095.89
565.61	921	1085.31
565.71	920.9	1107.97
565.81	920.8	1099.93
565.91	920.7	1073.04
566.01	920.6	1076.58
566.11	920.5	1093.02
566.21	920.4	1087.29
566.31	920.3	1079.56
566.41	920.2	1084.11
566.51	920.1	1103.68
566.61	920	1116.97