C:\Users\Mark\ownCloud\Muelheim Group\Projects\Gas phase background\EX321_CEC356_Au Ag and Cu in O2_clean.vms
Cu2p
	Characteristic Energy eV	1486.61	Acquisition Time s	0.9
KE_Cu2p	BE_Cu2p	CPS_Cu2p
456.61	1030	22304.2
456.71	1029.9	22310
456.81	1029.8	22276.1
456.91	1029.7	22490.1
457.01	1029.6	22413.1
457.11	1029.5	22420.3
457.21	1029.4	22281.2
457.31	1029.3	22334.1
457.41	1029.2	22460.9
457.51	1029.1	22408.3
457.61	1029	22233.1
457.71	1028.9	22348.7
457.81	1028.8	22346.3
457.91	1028.7	22362.3
458.01	1028.6	22321.4
458.11	1028.5	22363.7
458.21	1028.4	22291.4
458.31	1028.3	22517.2
458.41	1028.2	22449.2
458.51	1028.1	22390.2
458.61	1028	22415.9
458.71	1027.9	22488.2
458.81	1027.8	22321.9
458.91	1027.7	22332.5
459.01	1027.6	22442
459.11	1027.5	22388.6
459.21	1027.4	22446.9
459.31	1027.3	22454.9
459.41	1027.2	22410.1
459.51	1027.1	22380.4
459.61	1027	22471.9
459.71	1026.9	22659.9
459.81	1026.8	22594.9
459.91	1026.7	22612.9
460.01	1026.6	22610.6
460.11	1026.5	22603.8
460.21	1026.4	22522.3
460.31	1026.3	22680.5
460.41	1026.2	22618.5
460.51	1026.1	22630.8
460.61	1026	22623.8
460.71	1025.9	22547.3
460.81	1025.8	22538.1
460.91	1025.7	22645
461.01	1025.6	22651.7
461.11	1025.5	22630.4
461.21	1025.4	22597.4
461.31	1025.3	22557.8
461.41	1025.2	22589.7
461.51	1025.1	22582.1
461.61	1025	22691.1
461.71	1024.9	22659.7
461.81	1024.8	22562.9
461.91	1024.7	22557.7
462.01	1024.6	22790.8
462.11	1024.5	22725.5
462.21	1024.4	22590.9
462.31	1024.3	22605.8
462.41	1024.2	22665.7
462.51	1024.1	22584
462.61	1024	22641.7
462.71	1023.9	22553.3
462.81	1023.8	22753
462.91	1023.7	22732.3
463.01	1023.6	22695.3
463.11	1023.5	22610.9
463.21	1023.4	22698.5
463.31	1023.3	22616.2
463.41	1023.2	22740.1
463.51	1023.1	22642.5
463.61	1023	22716.2
463.71	1022.9	22636.8
463.81	1022.8	22661.9
463.91	1022.7	22717.2
464.01	1022.6	22818.2
464.11	1022.5	22736.4
464.21	1022.4	22754.9
464.31	1022.3	22757.1
464.41	1022.2	22757.5
464.51	1022.1	22777
464.61	1022	22759.1
464.71	1021.9	22904.7
464.81	1021.8	22831.3
464.91	1021.7	22746.7
465.01	1021.6	22674.7
465.11	1021.5	22779.6
465.21	1021.4	22906.6
465.31	1021.3	22817.4
465.41	1021.2	22814.6
465.51	1021.1	22720.1
465.61	1021	22880.6
465.71	1020.9	22863.9
465.81	1020.8	23016.5
465.91	1020.7	23003.6
466.01	1020.6	22892.4
466.11	1020.5	22838.9
466.21	1020.4	22886.6
466.31	1020.3	22871.8
466.41	1020.2	23076.4
466.51	1020.1	22910.7
466.61	1020	22843.3
466.71	1019.9	22898.2
466.81	1019.8	22929.8
466.91	1019.7	23039.7
467.01	1019.6	23007.5
467.11	1019.5	22958.3
467.21	1019.4	22976.8
467.31	1019.3	22938.3
467.41	1019.2	22894.4
467.51	1019.1	23077.4
467.61	1019	22933.2
467.71	1018.9	22938.4
467.81	1018.8	23037.9
467.91	1018.7	23023.9
468.01	1018.6	23014.2
468.11	1018.5	23024.5
468.21	1018.4	23066.9
468.31	1018.3	23163.1
468.41	1018.2	23281.6
468.51	1018.1	23287.1
468.61	1018	23090
468.71	1017.9	23110.6
468.81	1017.8	23097
468.91	1017.7	23214.2
469.01	1017.6	23198.9
469.11	1017.5	23011
469.21	1017.4	23058.1
469.31	1017.3	23327.8
469.41	1017.2	23283.5
469.51	1017.1	23142
469.61	1017	22970.8
469.71	1016.9	23061
469.81	1016.8	23312.5
469.91	1016.7	23313.9
470.01	1016.6	23283.3
470.11	1016.5	23052.1
470.21	1016.4	23199.1
470.31	1016.3	23157.7
470.41	1016.2	23059.4
470.51	1016.1	23102.9
470.61	1016	23297.6
470.71	1015.9	23200.1
470.81	1015.8	23196.3
470.91	1015.7	23162.5
471.01	1015.6	23287.9
471.11	1015.5	23276.3
471.21	1015.4	23180.6
471.31	1015.3	23307.6
471.41	1015.2	23243.5
471.51	1015.1	23334.1
471.61	1015	23314.4
471.71	1014.9	23216.7
471.81	1014.8	23374.2
471.91	1014.7	23401.2
472.01	1014.6	23472.2
472.11	1014.5	23488
472.21	1014.4	23420.5
472.31	1014.3	23343.1
472.41	1014.2	23390.9
472.51	1014.1	23365.7
472.61	1014	23436.5
472.71	1013.9	23362.3
472.81	1013.8	23426.8
472.91	1013.7	23532.1
473.01	1013.6	23422.4
473.11	1013.5	23572.1
473.21	1013.4	23439.1
473.31	1013.3	23412.7
473.41	1013.2	23440.6
473.51	1013.1	23443.1
473.61	1013	23513
473.71	1012.9	23436.4
473.81	1012.8	23503.7
473.91	1012.7	23467.7
474.01	1012.6	23474.5
474.11	1012.5	23486.6
474.21	1012.4	23516.2
474.31	1012.3	23535.8
474.41	1012.2	23536
474.51	1012.1	23445.9
474.61	1012	23655.4
474.71	1011.9	23586.5
474.81	1011.8	23591.7
474.91	1011.7	23626.1
475.01	1011.6	23731.9
475.11	1011.5	23754.9
475.21	1011.4	23584.5
475.31	1011.3	23673.4
475.41	1011.2	23619.9
475.51	1011.1	23754.1
475.61	1011	23612.7
475.71	1010.9	23530.4
475.81	1010.8	23630.5
475.91	1010.7	23610.2
476.01	1010.6	23478.7
476.11	1010.5	23625.1
476.21	1010.4	23674
476.31	1010.3	23648.4
476.41	1010.2	23666.6
476.51	1010.1	23633
476.61	1010	23813.7
476.71	1009.9	23806.3
476.81	1009.8	23917.6
476.91	1009.7	23670
477.01	1009.6	23681.7
477.11	1009.5	23867
477.21	1009.4	23849.3
477.31	1009.3	23792.5
477.41	1009.2	23767.9
477.51	1009.1	23847.7
477.61	1009	23923.5
477.71	1008.9	23939.2
477.81	1008.8	23919.2
477.91	1008.7	23854
478.01	1008.6	23838.3
478.11	1008.5	23755.5
478.21	1008.4	23855.9
478.31	1008.3	23856.7
478.41	1008.2	23935.7
478.51	1008.1	23939.2
478.61	1008	23924.9
478.71	1007.9	24055.4
478.81	1007.8	23925.4
478.91	1007.7	23985.8
479.01	1007.6	23961.6
479.11	1007.5	23882.5
479.21	1007.4	23953
479.31	1007.3	23900.6
479.41	1007.2	23791.2
479.51	1007.1	23873.6
479.61	1007	23909.5
479.71	1006.9	23992.2
479.81	1006.8	23915.9
479.91	1006.7	23956.3
480.01	1006.6	23964.2
480.11	1006.5	23944.1
480.21	1006.4	23934.3
480.31	1006.3	23828.5
480.41	1006.2	23934.5
480.51	1006.1	24055.2
480.61	1006	23974.3
480.71	1005.9	23974.6
480.81	1005.8	24035.5
480.91	1005.7	23963.6
481.01	1005.6	24106.5
481.11	1005.5	23943.2
481.21	1005.4	23811.3
481.31	1005.3	23994.3
481.41	1005.2	24054.7
481.51	1005.1	24037.3
481.61	1005	24075.4
481.71	1004.9	23955.4
481.81	1004.8	23939.8
481.91	1004.7	24076.2
482.01	1004.6	23902.4
482.11	1004.5	23921.5
482.21	1004.4	24007.3
482.31	1004.3	24128.1
482.41	1004.2	24077
482.51	1004.1	24098
482.61	1004	24050.3
482.71	1003.9	24069
482.81	1003.8	23974.3
482.91	1003.7	23952.6
483.01	1003.6	24026.3
483.11	1003.5	24039.5
483.21	1003.4	24110.3
483.31	1003.3	24122.4
483.41	1003.2	24045.4
483.51	1003.1	24164.9
483.61	1003	24149.9
483.71	1002.9	24210.1
483.81	1002.8	24235.3
483.91	1002.7	24125.8
484.01	1002.6	24078.1
484.11	1002.5	24047.3
484.21	1002.4	24198.8
484.31	1002.3	24227.9
484.41	1002.2	24250.5
484.51	1002.1	24159.4
484.61	1002	24093.5
484.71	1001.9	24213.9
484.81	1001.8	24242.8
484.91	1001.7	24202.6
485.01	1001.6	24274.5
485.11	1001.5	24237.8
485.21	1001.4	24428.2
485.31	1001.3	24431.4
485.41	1001.2	24384
485.51	1001.1	24343.1
485.61	1001	24353
485.71	1000.9	24301.6
485.81	1000.8	24363.1
485.91	1000.7	24385.9
486.01	1000.6	24415.8
486.11	1000.5	24443.5
486.21	1000.4	24222.3
486.31	1000.3	24284.4
486.41	1000.2	24335.4
486.51	1000.1	24353.6
486.61	1000	24410.2
486.71	999.9	24366
486.81	999.8	24452.1
486.91	999.7	24494.9
487.01	999.6	24412.2
487.11	999.5	24471.5
487.21	999.4	24458.1
487.31	999.3	24580.1
487.41	999.2	24394.6
487.51	999.1	24360.6
487.61	999	24542.3
487.71	998.9	24428
487.81	998.8	24532.7
487.91	998.7	24502.6
488.01	998.6	24610.1
488.11	998.5	24507.2
488.21	998.4	24568.9
488.31	998.3	24649.9
488.41	998.2	24597.1
488.51	998.1	24656.8
488.61	998	24640.9
488.71	997.9	24674.8
488.81	997.8	24737.2
488.91	997.7	24743.5
489.01	997.6	24703.7
489.11	997.5	24728.2
489.21	997.4	24549.3
489.31	997.3	24645.4
489.41	997.2	24769.9
489.51	997.1	24753
489.61	997	24813.5
489.71	996.9	24819
489.81	996.8	24845
489.91	996.7	24962.9
490.01	996.6	24906.1
490.11	996.5	24802.1
490.21	996.4	24910.7
490.31	996.3	24949.2
490.41	996.2	24927.7
490.51	996.1	25012.5
490.61	996	24904.5
490.71	995.9	24992.9
490.81	995.8	25015.2
490.91	995.7	24968.4
491.01	995.6	25002.3
491.11	995.5	25080.8
491.21	995.4	25081.1
491.31	995.3	25122.8
491.41	995.2	25244
491.51	995.1	25071.6
491.61	995	25280.5
491.71	994.9	25374.2
491.81	994.8	25065.4
491.91	994.7	25240.7
492.01	994.6	25255.4
492.11	994.5	25107.7
492.21	994.4	25180.5
492.31	994.3	25149.8
492.41	994.2	25189
492.51	994.1	25224.5
492.61	994	25245.4
492.71	993.9	25174.2
492.81	993.8	25229.7
492.91	993.7	25159.5
493.01	993.6	25216.3
493.11	993.5	25304.5
493.21	993.4	25211.7
493.31	993.3	25131.9
493.41	993.2	25164.8
493.51	993.1	25170.2
493.61	993	25043.3
493.71	992.9	25194.4
493.81	992.8	25160.5
493.91	992.7	25182.8
494.01	992.6	25156.8
494.11	992.5	25135.3
494.21	992.4	25081
494.31	992.3	25165.2
494.41	992.2	24979.6
494.51	992.1	25127.4
494.61	992	25213.7
494.71	991.9	25142.9
494.81	991.8	25073.7
494.91	991.7	25042.6
495.01	991.6	25179.5
495.11	991.5	25130.5
495.21	991.4	25078.5
495.31	991.3	25078.6
495.41	991.2	25089.1
495.51	991.1	25032.2
495.61	991	24987.6
495.71	990.9	25053.6
495.81	990.8	25006.2
495.91	990.7	25130.4
496.01	990.6	25069
496.11	990.5	24839.1
496.21	990.4	24953
496.31	990.3	25099.1
496.41	990.2	25047.3
496.51	990.1	25052.3
496.61	990	24914.8
496.71	989.9	25000.8
496.81	989.8	25102.4
496.91	989.7	25039.2
497.01	989.6	25144.9
497.11	989.5	25146.6
497.21	989.4	25193.6
497.31	989.3	25206.2
497.41	989.2	25117.4
497.51	989.1	24956.3
497.61	989	25108.3
497.71	988.9	25226.9
497.81	988.8	25224.8
497.91	988.7	25206
498.01	988.6	25183.3
498.11	988.5	25109.4
498.21	988.4	25182.9
498.31	988.3	25074
498.41	988.2	25072
498.51	988.1	25213.6
498.61	988	25105.8
498.71	987.9	25088.2
498.81	987.8	25245
498.91	987.7	25328
499.01	987.6	25217.6
499.11	987.5	25240.8
499.21	987.4	25152.1
499.31	987.3	25156.9
499.41	987.2	25326.9
499.51	987.1	25101.3
499.61	987	25286.4
499.71	986.9	25291.4
499.81	986.8	25148.1
499.91	986.7	25228.7
500.01	986.6	25270.7
500.11	986.5	25340.5
500.21	986.4	25173.7
500.31	986.3	25134
500.41	986.2	25218.5
500.51	986.1	25196.4
500.61	986	25386.4
500.71	985.9	25220.8
500.81	985.8	25267.5
500.91	985.7	25277.4
501.01	985.6	25260.3
501.11	985.5	25260.6
501.21	985.4	25364.2
501.31	985.3	25202.5
501.41	985.2	25269.3
501.51	985.1	25320.3
501.61	985	25199.9
501.71	984.9	25262.5
501.81	984.8	25261.4
501.91	984.7	25321
502.01	984.6	25344.7
502.11	984.5	25269.1
502.21	984.4	25412.4
502.31	984.3	25409.5
502.41	984.2	25346.3
502.51	984.1	25362.8
502.61	984	25203.7
502.71	983.9	25274.2
502.81	983.8	25229.3
502.91	983.7	25406.8
503.01	983.6	25499.8
503.11	983.5	25432.3
503.21	983.4	25475.8
503.31	983.3	25520.2
503.41	983.2	25359
503.51	983.1	25328.1
503.61	983	25417.8
503.71	982.9	25361.9
503.81	982.8	25304.1
503.91	982.7	25435.1
504.01	982.6	25560.4
504.11	982.5	25545
504.21	982.4	25461.4
504.31	982.3	25573.9
504.41	982.2	25642.8
504.51	982.1	25576.1
504.61	982	25642.4
504.71	981.9	25534.1
504.81	981.8	25509
504.91	981.7	25677.3
505.01	981.6	25586
505.11	981.5	25583
505.21	981.4	25696.1
505.31	981.3	25626.2
505.41	981.2	25670.1
505.51	981.1	25577.5
505.61	981	25722.6
505.71	980.9	25892.5
505.81	980.8	25687.7
505.91	980.7	25886.1
506.01	980.6	25956.1
506.11	980.5	25797.4
506.21	980.4	25903.8
506.31	980.3	25993.3
506.41	980.2	25959
506.51	980.1	25845.8
506.61	980	25898
506.71	979.9	25916.3
506.81	979.8	25862.1
506.91	979.7	25993.5
507.01	979.6	25881.9
507.11	979.5	25933
507.21	979.4	25925.7
507.31	979.3	26055.9
507.41	979.2	26206.6
507.51	979.1	26119.1
507.61	979	26103.1
507.71	978.9	25999.3
507.81	978.8	26251.7
507.91	978.7	26225
508.01	978.6	26004.5
508.11	978.5	26092
508.21	978.4	26115.4
508.31	978.3	26219.2
508.41	978.2	26313.3
508.51	978.1	26335.9
508.61	978	26276.8
508.71	977.9	26331.9
508.81	977.8	26410.9
508.91	977.7	26495.9
509.01	977.6	26665.3
509.11	977.5	26593.4
509.21	977.4	26732
509.31	977.3	26702.8
509.41	977.2	26778.6
509.51	977.1	26721.5
509.61	977	26689.7
509.71	976.9	26896.8
509.81	976.8	26917.2
509.91	976.7	26907.1
510.01	976.6	26853.8
510.11	976.5	26942.1
510.21	976.4	27179.5
510.31	976.3	27002
510.41	976.2	27145.8
510.51	976.1	27269.2
510.61	976	27325.1
510.71	975.9	27354.1
510.81	975.8	27364.8
510.91	975.7	27449.6
511.01	975.6	27415.4
511.11	975.5	27526.4
511.21	975.4	27529.5
511.31	975.3	27617.8
511.41	975.2	27831
511.51	975.1	27838.5
511.61	975	27649.6
511.71	974.9	27800.9
511.81	974.8	27771.8
511.91	974.7	27877.5
512.01	974.6	27877.6
512.11	974.5	28033.8
512.21	974.4	27943.8
512.31	974.3	27909.9
512.41	974.2	27854.8
512.51	974.1	27820.8
512.61	974	27797.8
512.71	973.9	27806.3
512.81	973.8	27725.5
512.91	973.7	27613.5
513.01	973.6	27701.1
513.11	973.5	27734.8
513.21	973.4	27521.5
513.31	973.3	27390.9
513.41	973.2	27329.3
513.51	973.1	27253.3
513.61	973	27200.4
513.71	972.9	27246.2
513.81	972.8	27156.1
513.91	972.7	27167.8
514.01	972.6	27218.9
514.11	972.5	27132.1
514.21	972.4	27058.7
514.31	972.3	27128.7
514.41	972.2	26911
514.51	972.1	26974.8
514.61	972	26996.6
514.71	971.9	26998.4
514.81	971.8	26708.4
514.91	971.7	26883.4
515.01	971.6	26774.2
515.11	971.5	26797
515.21	971.4	27019.4
515.31	971.3	26852.5
515.41	971.2	26686.5
515.51	971.1	26641.1
515.61	971	26567.4
515.71	970.9	26501.9
515.81	970.8	26615
515.91	970.7	26553.6
516.01	970.6	26570.4
516.11	970.5	26640.8
516.21	970.4	26591.1
516.31	970.3	26610.6
516.41	970.2	26497.6
516.51	970.1	26303.5
516.61	970	26477.1
516.71	969.9	26293.1
516.81	969.8	26397.6
516.91	969.7	26436.8
517.01	969.6	26408.9
517.11	969.5	26343.4
517.21	969.4	26351
517.31	969.3	26107.8
517.41	969.2	26153.2
517.51	969.1	26153.8
517.61	969	25976.4
517.71	968.9	26169.5
517.81	968.8	26223.1
517.91	968.7	26055.7
518.01	968.6	26034.9
518.11	968.5	25961.9
518.21	968.4	26086.9
518.31	968.3	26062
518.41	968.2	25977.8
518.51	968.1	26107.3
518.61	968	26061.9
518.71	967.9	26139
518.81	967.8	26109.3
518.91	967.7	26021.7
519.01	967.6	26075.3
519.11	967.5	26124.5
519.21	967.4	26108.5
519.31	967.3	26100.5
519.41	967.2	26223.5
519.51	967.1	26149.6
519.61	967	26108.9
519.71	966.9	26123.1
519.81	966.8	26220.1
519.91	966.7	26214
520.01	966.6	26278.3
520.11	966.5	26297.2
520.21	966.4	26375.3
520.31	966.3	26531.6
520.41	966.2	26435
520.51	966.1	26587.5
520.61	966	26708.3
520.71	965.9	26688.9
520.81	965.8	26601.3
520.91	965.7	26715.8
521.01	965.6	26702.3
521.11	965.5	26810.8
521.21	965.4	26753.9
521.31	965.3	26724.8
521.41	965.2	26757.5
521.51	965.1	26903.6
521.61	965	27019.6
521.71	964.9	26883.1
521.81	964.8	27090.3
521.91	964.7	27008.7
522.01	964.6	26894.9
522.11	964.5	26777
522.21	964.4	26808.1
522.31	964.3	26788.6
522.41	964.2	26706
522.51	964.1	26758.9
522.61	964	26838.1
522.71	963.9	26939.1
522.81	963.8	26860.9
522.91	963.7	27033
523.01	963.6	27078
523.11	963.5	27123.2
523.21	963.4	27299.5
523.31	963.3	27356.9
523.41	963.2	27467.2
523.51	963.1	27640.3
523.61	963	27814.9
523.71	962.9	27810.2
523.81	962.8	27822.7
523.91	962.7	28055.2
524.01	962.6	28364.4
524.11	962.5	28456.3
524.21	962.4	28662.6
524.31	962.3	28697.2
524.41	962.2	28721.7
524.51	962.1	28616.4
524.61	962	28641.6
524.71	961.9	28455
524.81	961.8	28378.1
524.91	961.7	28381.3
525.01	961.6	28171.2
525.11	961.5	27884.1
525.21	961.4	27713.3
525.31	961.3	27617.7
525.41	961.2	27481.3
525.51	961.1	27516.3
525.61	961	27193.9
525.71	960.9	27057.4
525.81	960.8	26724.7
525.91	960.7	26605.5
526.01	960.6	26391.6
526.11	960.5	26219.5
526.21	960.4	26346.2
526.31	960.3	26260.8
526.41	960.2	26009.6
526.51	960.1	25836.3
526.61	960	25648.2
526.71	959.9	25589.2
526.81	959.8	25597.8
526.91	959.7	25474
527.01	959.6	25363.4
527.11	959.5	25250.2
527.21	959.4	25253.8
527.31	959.3	25044.4
527.41	959.2	25063.8
527.51	959.1	25001.6
527.61	959	24937.8
527.71	958.9	25027.5
527.81	958.8	24977.2
527.91	958.7	24960.8
528.01	958.6	24767.1
528.11	958.5	24821.9
528.21	958.4	24863.5
528.31	958.3	25010.7
528.41	958.2	25071.2
528.51	958.1	24933.6
528.61	958	25021.3
528.71	957.9	24935.5
528.81	957.8	24912.8
528.91	957.7	24967.6
529.01	957.6	25029.1
529.11	957.5	25053.6
529.21	957.4	25114.1
529.31	957.3	25336.5
529.41	957.2	25346.1
529.51	957.1	25266.9
529.61	957	25266.5
529.71	956.9	25455.6
529.81	956.8	25558
529.91	956.7	25523.6
530.01	956.6	25690.1
530.11	956.5	25764
530.21	956.4	25896.5
530.31	956.3	25935.9
530.41	956.2	26008.5
530.51	956.1	26222.6
530.61	956	26443.7
530.71	955.9	26460.5
530.81	955.8	26582.9
530.91	955.7	26720
531.01	955.6	27015.5
531.11	955.5	27169.2
531.21	955.4	27274.7
531.31	955.3	27529.3
531.41	955.2	27754.5
531.51	955.1	27858.5
531.61	955	28033.7
531.71	954.9	28487.9
531.81	954.8	28596.5
531.91	954.7	28798.8
532.01	954.6	29057.1
532.11	954.5	29310.6
532.21	954.4	29503.6
532.31	954.3	29745.3
532.41	954.2	30058.5
532.51	954.1	30690.5
532.61	954	31020.2
532.71	953.9	31413.8
532.81	953.8	31999.7
532.91	953.7	32526.3
533.01	953.6	33555.1
533.11	953.5	34264.8
533.21	953.4	35195.5
533.31	953.3	36398
533.41	953.2	37960.7
533.51	953.1	39596.1
533.61	953	41344.8
533.71	952.9	43518.8
533.81	952.8	45594.5
533.91	952.7	47705.3
534.01	952.6	49491.2
534.11	952.5	50767
534.21	952.4	51447.1
534.31	952.3	51369.4
534.41	952.2	50483.1
534.51	952.1	48687.6
534.61	952	46531.6
534.71	951.9	44068.2
534.81	951.8	41537.4
534.91	951.7	39162.3
535.01	951.6	36603.9
535.11	951.5	34582.7
535.21	951.4	32689.9
535.31	951.3	31231.2
535.41	951.2	29732
535.51	951.1	28540.6
535.61	951	27564.4
535.71	950.9	26896.7
535.81	950.8	26130.5
535.91	950.7	25602.9
536.01	950.6	25131
536.11	950.5	24694.5
536.21	950.4	24421.4
536.31	950.3	24084.7
536.41	950.2	23893.3
536.51	950.1	23613.3
536.61	950	23456.4
536.71	949.9	23244.3
536.81	949.8	23125.3
536.91	949.7	23043
537.01	949.6	22944.9
537.11	949.5	22846.2
537.21	949.4	22764.4
537.31	949.3	22737
537.41	949.2	22638.3
537.51	949.1	22409.6
537.61	949	22360.4
537.71	948.9	22395.2
537.81	948.8	22248.3
537.91	948.7	22211.9
538.01	948.6	22160.4
538.11	948.5	22237.4
538.21	948.4	22122.9
538.31	948.3	22154.4
538.41	948.2	22003
538.51	948.1	22036.7
538.61	948	22083.2
538.71	947.9	22129.5
538.81	947.8	22267.4
538.91	947.7	21995.1
539.01	947.6	22132
539.11	947.5	22255
539.21	947.4	22232.3
539.31	947.3	22370.2
539.41	947.2	22366.7
539.51	947.1	22495.5
539.61	947	22757.8
539.71	946.9	22802.6
539.81	946.8	22940.3
539.91	946.7	23010.9
540.01	946.6	23110.2
540.11	946.5	23093.1
540.21	946.4	23036.2
540.31	946.3	23025.1
540.41	946.2	23025.6
540.51	946.1	22915.4
540.61	946	22713.1
540.71	945.9	22635.7
540.81	945.8	22539.3
540.91	945.7	22526.3
541.01	945.6	22505.6
541.11	945.5	22447.9
541.21	945.4	22518
541.31	945.3	22631.2
541.41	945.2	22662.4
541.51	945.1	22681.4
541.61	945	22799.2
541.71	944.9	22997
541.81	944.8	23322.7
541.91	944.7	23256.8
542.01	944.6	23483.3
542.11	944.5	23773.9
542.21	944.4	24119.9
542.31	944.3	24273.9
542.41	944.2	24584.5
542.51	944.1	24940
542.61	944	25082.6
542.71	943.9	25229.1
542.81	943.8	25379.4
542.91	943.7	25324
543.01	943.6	25398.3
543.11	943.5	25367.1
543.21	943.4	25291
543.31	943.3	25124.5
543.41	943.2	24879.5
543.51	943.1	24661.7
543.61	943	24589.1
543.71	942.9	24293.1
543.81	942.8	24189.3
543.91	942.7	24054.7
544.01	942.6	23940.8
544.11	942.5	23886.9
544.21	942.4	23657.2
544.31	942.3	23699.2
544.41	942.2	23643.6
544.51	942.1	23631.7
544.61	942	23532
544.71	941.9	23604.1
544.81	941.8	23607.9
544.91	941.7	23548.3
545.01	941.6	23450.5
545.11	941.5	23457.9
545.21	941.4	23563.5
545.31	941.3	23448.7
545.41	941.2	23548.1
545.51	941.1	23680.2
545.61	941	23526.6
545.71	940.9	23781.2
545.81	940.8	23673.9
545.91	940.7	23704.4
546.01	940.6	23536.8
546.11	940.5	23458.1
546.21	940.4	23439.1
546.31	940.3	23260.8
546.41	940.2	23068.9
546.51	940.1	22803.3
546.61	940	22471.4
546.71	939.9	22195.4
546.81	939.8	21978.1
546.91	939.7	21643.5
547.01	939.6	21376.7
547.11	939.5	21222.2
547.21	939.4	20899.4
547.31	939.3	20705.3
547.41	939.2	20543.8
547.51	939.1	20284.5
547.61	939	20158.8
547.71	938.9	20076.8
547.81	938.8	20093.6
547.91	938.7	20069.4
548.01	938.6	19993.6
548.11	938.5	19954.8
548.21	938.4	19841.1
548.31	938.3	19920.8
548.41	938.2	19938.6
548.51	938.1	19940.7
548.61	938	19867.1
548.71	937.9	20054.2
548.81	937.8	20245.7
548.91	937.7	20157.9
549.01	937.6	20235.7
549.11	937.5	20278.2
549.21	937.4	20334.3
549.31	937.3	20417.9
549.41	937.2	20645.8
549.51	937.1	20773.9
549.61	937	20876
549.71	936.9	21061.5
549.81	936.8	21021.8
549.91	936.7	21123.7
550.01	936.6	21407.6
550.11	936.5	21474.4
550.21	936.4	21606.4
550.31	936.3	21785.5
550.41	936.2	22156.3
550.51	936.1	22404.6
550.61	936	22646.5
550.71	935.9	22968.1
550.81	935.8	23293
550.91	935.7	23594.7
551.01	935.6	24142.7
551.11	935.5	24430.8
551.21	935.4	24767.7
551.31	935.3	25165.9
551.41	935.2	25475.9
551.51	935.1	25882.7
551.61	935	26367.8
551.71	934.9	26675.7
551.81	934.8	27070.5
551.91	934.7	27404
552.01	934.6	27889.3
552.11	934.5	28400.7
552.21	934.4	28850.6
552.31	934.3	29505.6
552.41	934.2	30073.8
552.51	934.1	30759.8
552.61	934	31644
552.71	933.9	32659.3
552.81	933.8	33954.4
552.91	933.7	35490
553.01	933.6	37358.7
553.11	933.5	39974.7
553.21	933.4	43320
553.31	933.3	47636.1
553.41	933.2	53295.4
553.51	933.1	60287.9
553.61	933	68416.6
553.71	932.9	77042
553.81	932.8	85178.5
553.91	932.7	91554.7
554.01	932.6	95403.7
554.11	932.5	95634.8
554.21	932.4	92035.4
554.31	932.3	85514.5
554.41	932.2	77272.5
554.51	932.1	68081.9
554.61	932	59220.5
554.71	931.9	50889.1
554.81	931.8	43753.3
554.91	931.7	37874.9
555.01	931.6	33117.2
555.11	931.5	29314.6
555.21	931.4	26487.9
555.31	931.3	24200.8
555.41	931.2	22335.6
555.51	931.1	20890.3
555.61	931	19676.2
555.71	930.9	18779.7
555.81	930.8	18078.3
555.91	930.7	17399.7
556.01	930.6	16877.1
556.11	930.5	16503.5
556.21	930.4	16063.7
556.31	930.3	15986.6
556.41	930.2	15791.1
556.51	930.1	15570.7
556.61	930	15294.3
556.71	929.9	15057.3
556.81	929.8	14937.1
556.91	929.7	14848.1
557.01	929.6	14650.5
557.11	929.5	14497.2
557.21	929.4	14449.4
557.31	929.3	14220.5
557.41	929.2	14178.7
557.51	929.1	14110.3
557.61	929	14074
557.71	928.9	13993.7
557.81	928.8	14026.2
557.91	928.7	14019.7
558.01	928.6	13823
558.11	928.5	13872.1
558.21	928.4	13835.7
558.31	928.3	13745.6
558.41	928.2	13641.5
558.51	928.1	13617.3
558.61	928	13613.7
558.71	927.9	13496.7
558.81	927.8	13631.5
558.91	927.7	13562.1
559.01	927.6	13534.2
559.11	927.5	13437.5
559.21	927.4	13517.1
559.31	927.3	13465.1
559.41	927.2	13500.1
559.51	927.1	13457.6
559.61	927	13347.1
559.71	926.9	13427.1
559.81	926.8	13504.9
559.91	926.7	13326.8
560.01	926.6	13403.2
560.11	926.5	13367.6
560.21	926.4	13285.2
560.31	926.3	13261
560.41	926.2	13277.4
560.51	926.1	13219
560.61	926	13222
560.71	925.9	13275.7
560.81	925.8	13270.9
560.91	925.7	13221.3
561.01	925.6	13183.5
561.11	925.5	13243.2
561.21	925.4	13272.4
561.31	925.3	13252.4
561.41	925.2	13199.1
561.51	925.1	13268.8
561.61	925	13273.4
561.71	924.9	13300.7
561.81	924.8	13136
561.91	924.7	13172.4
562.01	924.6	13182.9
562.11	924.5	13161.1
562.21	924.4	13161.2
562.31	924.3	13197.1
562.41	924.2	13223.1
562.51	924.1	13256.5
562.61	924	13105.1
562.71	923.9	13084.4
562.81	923.8	13090.4
562.91	923.7	13111.2
563.01	923.6	13025.3
563.11	923.5	13086.3
563.21	923.4	13145.1
563.31	923.3	13138.5
563.41	923.2	13162.7
563.51	923.1	13107.7
563.61	923	13135.4
563.71	922.9	13011
563.81	922.8	13043.7
563.91	922.7	13154.6
564.01	922.6	13086.7
564.11	922.5	13178.2
564.21	922.4	13239
564.31	922.3	13105.2
564.41	922.2	13081.6
564.51	922.1	13186.5
564.61	922	13087.9
564.71	921.9	13052
564.81	921.8	13030
564.91	921.7	13113.3
565.01	921.6	13151.6
565.11	921.5	13048.4
565.21	921.4	13129.3
565.31	921.3	13121.9
565.41	921.2	13134.8
565.51	921.1	13123.2
565.61	921	13203.5
565.71	920.9	13177
565.81	920.8	13093.2
565.91	920.7	13162
566.01	920.6	13113.8
566.11	920.5	13132.6
566.21	920.4	13119.4
566.31	920.3	13111.9
566.41	920.2	13175.7
566.51	920.1	13177.3
566.61	920	13207.1