CasaXP16_vb_regions_vb_regions.vms
Survey
	Characteristic Energy eV	1486.61	Acquisition Time s	1
KE_Survey	BE_Survey	CPS_Survey	Background_Survey
288.61	1198	889.108	889.108
289.11	1197.5	885.907	885.907
289.61	1197	896.025	896.025
290.11	1196.5	893.182	893.182
290.61	1196	891.456	891.456
291.11	1195.5	881.679	881.679
291.61	1195	859.388	859.388
292.11	1194.5	856.055	856.055
292.61	1194	884.179	884.179
293.11	1193.5	890.519	890.519
293.61	1193	888.555	888.555
294.11	1192.5	881.876	881.876
294.61	1192	902.853	902.853
295.11	1191.5	899.205	899.205
295.61	1191	875.881	875.881
296.11	1190.5	884.971	884.971
296.61	1190	926.366	926.366
297.11	1189.5	911.103	911.103
297.61	1189	888.634	888.634
298.11	1188.5	893.637	893.637
298.61	1188	897.952	897.952
299.11	1187.5	893.15	893.15
299.61	1187	889.249	889.249
300.11	1186.5	886.879	886.879
300.61	1186	864.3	864.3
301.11	1185.5	874.272	874.272
301.61	1185	891.493	891.493
302.11	1184.5	904.145	904.145
302.61	1184	921.176	921.176
303.11	1183.5	920.996	920.996
303.61	1183	905.454	905.454
304.11	1182.5	883.611	883.611
304.61	1182	881.495	881.495
305.11	1181.5	894.558	894.558
305.61	1181	910.127	910.127
306.11	1180.5	910.383	910.383
306.61	1180	879.046	879.046
307.11	1179.5	940.795	940.795
307.61	1179	888.919	888.919
308.11	1178.5	931.489	931.489
308.61	1178	892.694	892.694
309.11	1177.5	903.173	903.173
309.61	1177	904.327	904.327
310.11	1176.5	924.215	924.215
310.61	1176	918.446	918.446
311.11	1175.5	910.58	910.58
311.61	1175	864.367	864.367
312.11	1174.5	902.997	902.997
312.61	1174	900.638	900.638
313.11	1173.5	909.811	909.811
313.61	1173	939.396	939.396
314.11	1172.5	939.411	939.411
314.61	1172	910.678	910.678
315.11	1171.5	909.874	909.874
315.61	1171	920.3	920.3
316.11	1170.5	913.916	913.916
316.61	1170	903.221	903.221
317.11	1169.5	901.714	901.714
317.61	1169	914.656	914.656
318.11	1168.5	941.186	941.186
318.61	1168	963.364	963.364
319.11	1167.5	921.709	921.709
319.61	1167	930.681	930.681
320.11	1166.5	895.799	895.799
320.61	1166	926.994	926.994
321.11	1165.5	988.004	988.004
321.61	1165	940.67	940.67
322.11	1164.5	933.751	933.751
322.61	1164	956.987	956.987
323.11	1163.5	952.227	952.227
323.61	1163	975.721	975.721
324.11	1162.5	959.449	959.449
324.61	1162	910.94	910.94
325.11	1161.5	903.344	903.344
325.61	1161	956.16	956.16
326.11	1160.5	983.149	983.149
326.61	1160	976.19	976.19
327.11	1159.5	944.871	944.871
327.61	1159	947.804	947.804
328.11	1158.5	911.988	911.988
328.61	1158	931.512	931.512
329.11	1157.5	947.976	947.976
329.61	1157	925.97	925.97
330.11	1156.5	979.273	979.273
330.61	1156	944.134	944.134
331.11	1155.5	957.585	957.585
331.61	1155	1004.62	1004.62
332.11	1154.5	945.384	945.384
332.61	1154	960.822	960.822
333.11	1153.5	984.969	984.969
333.61	1153	976.015	976.015
334.11	1152.5	970.031	970.031
334.61	1152	966.887	966.887
335.11	1151.5	937.742	937.742
335.61	1151	935.296	935.296
336.11	1150.5	963.78	963.78
336.61	1150	983.104	983.104
337.11	1149.5	994.468	994.468
337.61	1149	993.371	993.371
338.11	1148.5	973.745	973.745
338.61	1148	1004.32	1004.32
339.11	1147.5	959.052	959.052
339.61	1147	1008.19	1008.19
340.11	1146.5	947.81	947.81
340.61	1146	977.054	977.054
341.11	1145.5	993.199	993.199
341.61	1145	947.114	947.114
342.11	1144.5	962.36	962.36
342.61	1144	915.756	915.756
343.11	1143.5	996.683	996.683
343.61	1143	983.131	983.131
344.11	1142.5	1010.36	1010.36
344.61	1142	994.219	994.219
345.11	1141.5	985.829	985.829
345.61	1141	972.671	972.671
346.11	1140.5	997.373	997.373
346.61	1140	994.277	994.277
347.11	1139.5	1021.66	1021.66
347.61	1139	1038.34	1038.34
348.11	1138.5	1024.9	1024.9
348.61	1138	984.805	984.805
349.11	1137.5	996.365	996.365
349.61	1137	1009.09	1009.09
350.11	1136.5	989.441	989.441
350.61	1136	1029.41	1029.41
351.11	1135.5	1028.97	1028.97
351.61	1135	974.204	974.204
352.11	1134.5	1011.78	1011.78
352.61	1134	1048.26	1048.26
353.11	1133.5	1038.39	1038.39
353.61	1133	1006.88	1006.88
354.11	1132.5	1039.15	1039.15
354.61	1132	1020.59	1020.59
355.11	1131.5	1053.13	1053.13
355.61	1131	1058.64	1058.64
356.11	1130.5	1018.3	1018.3
356.61	1130	1016.47	1016.47
357.11	1129.5	1028.39	1028.39
357.61	1129	1033.64	1033.64
358.11	1128.5	1007.37	1007.37
358.61	1128	1021.96	1021.96
359.11	1127.5	1015.7	1015.7
359.61	1127	1050.67	1050.67
360.11	1126.5	974.972	974.972
360.61	1126	1038.03	1038.03
361.11	1125.5	1041.18	1041.18
361.61	1125	1004.1	1004.1
362.11	1124.5	1003.88	1003.88
362.61	1124	1006.85	1006.85
363.11	1123.5	1019.48	1019.48
363.61	1123	1051.61	1051.61
364.11	1122.5	1029.89	1029.89
364.61	1122	1040.56	1040.56
365.11	1121.5	1035.26	1035.26
365.61	1121	1076.15	1076.15
366.11	1120.5	1047.71	1047.71
366.61	1120	1039.69	1039.69
367.11	1119.5	1101.9	1101.9
367.61	1119	1071.47	1071.47
368.11	1118.5	1059.55	1059.55
368.61	1118	1035.85	1035.85
369.11	1117.5	1056.81	1056.81
369.61	1117	1068.59	1068.59
370.11	1116.5	1039.56	1039.56
370.61	1116	1072.9	1072.9
371.11	1115.5	1101.16	1101.16
371.61	1115	1052.94	1052.94
372.11	1114.5	1077.03	1077.03
372.61	1114	1023.74	1023.74
373.11	1113.5	1059.91	1059.91
373.61	1113	1082.94	1082.94
374.11	1112.5	1075.25	1075.25
374.61	1112	1129.05	1129.05
375.11	1111.5	1079.6	1079.6
375.61	1111	1072.68	1072.68
376.11	1110.5	1115.36	1115.36
376.61	1110	1156.6	1156.6
377.11	1109.5	1137.33	1137.33
377.61	1109	1155.52	1155.52
378.11	1108.5	1180.5	1180.5
378.61	1108	1160.41	1160.41
379.11	1107.5	1191.85	1191.85
379.61	1107	1231.41	1231.41
380.11	1106.5	1195.77	1195.77
380.61	1106	1203.3	1203.3
381.11	1105.5	1240.82	1240.82
381.61	1105	1205.41	1205.41
382.11	1104.5	1209.89	1209.89
382.61	1104	1187.35	1187.35
383.11	1103.5	1173.39	1173.39
383.61	1103	1221.31	1221.31
384.11	1102.5	1224.72	1224.72
384.61	1102	1273.81	1273.81
385.11	1101.5	1303.38	1303.38
385.61	1101	1345.04	1345.04
386.11	1100.5	1332.18	1332.18
386.61	1100	1439.3	1439.3
387.11	1099.5	1536.01	1536.01
387.61	1099	1586.71	1586.71
388.11	1098.5	1714.49	1714.49
388.61	1098	1821.66	1821.66
389.11	1097.5	1865.32	1865.32
389.61	1097	1874.76	1874.76
390.11	1096.5	1838.59	1838.59
390.61	1096	1773.91	1773.91
391.11	1095.5	1710.31	1710.31
391.61	1095	1566.41	1566.41
392.11	1094.5	1388.09	1388.09
392.61	1094	1231.26	1231.26
393.11	1093.5	1058.32	1058.32
393.61	1093	958.373	958.373
394.11	1092.5	852.315	852.315
394.61	1092	761.148	761.148
395.11	1091.5	641.442	641.442
395.61	1091	558.637	558.637
396.11	1090.5	537.014	537.014
396.61	1090	493.383	493.383
397.11	1089.5	476.825	476.825
397.61	1089	370.199	370.199
398.11	1088.5	353.367	353.367
398.61	1088	346.999	346.999
399.11	1087.5	273.915	273.915
399.61	1087	252.145	252.145
400.11	1086.5	265.69	265.69
400.61	1086	234.26	234.26
401.11	1085.5	227.076	227.076
401.61	1085	185.178	185.178
402.11	1084.5	202.486	202.486
402.61	1084	154.91	154.91
403.11	1083.5	139.112	139.112
403.61	1083	171.321	171.321
404.11	1082.5	168.288	168.288
404.61	1082	107.183	107.183
405.11	1081.5	106.747	106.747
405.61	1081	101.059	101.059
406.11	1080.5	114.611	114.611
406.61	1080	86.0725	86.0725
407.11	1079.5	121.664	121.664
407.61	1079	118.826	118.826
408.11	1078.5	104.829	104.829
408.61	1078	145.482	145.482
409.11	1077.5	64.7976	64.7976
409.61	1077	87.6549	87.6549
410.11	1076.5	58.3844	58.3844
410.61	1076	8.96648	8.96648
411.11	1075.5	22.7916	22.7916
411.61	1075	46.4001	46.4001
412.11	1074.5	66.6324	66.6324
412.61	1074	72.5788	72.5788
413.11	1073.5	85.2297	85.2297
413.61	1073	47.2855	47.2855
414.11	1072.5	28.0465	28.0465
414.61	1072	71.0132	71.0132
415.11	1071.5	53.7858	53.7858
415.61	1071	20.1648	20.1648
416.11	1070.5	37.4505	37.4505
416.61	1070	29.243	29.243
417.11	1069.5	31.7408	31.7408
417.61	1069	34.2421	34.2421
418.11	1068.5	27.4451	27.4451
418.61	1068	85.848	85.848
419.11	1067.5	31.149	31.149
419.61	1067	39.3463	39.3463
420.11	1066.5	54.1381	54.1381
420.61	1066	95.7226	95.7226
421.11	1065.5	55.998	55.998
421.61	1065	-27.9376	-27.9376
422.11	1064.5	3.31414	3.31414
422.61	1064	2.75134	2.75134
423.11	1063.5	-9.02778	-9.02778
423.61	1063	-0.525038	-0.525038
424.11	1062.5	24.1578	24.1578
424.61	1062	24.1189	24.1189
425.11	1061.5	28.0564	28.0564
425.61	1061	57.4686	57.4686
426.11	1060.5	36.7537	36.7537
426.61	1060	-6.29023	-6.29023