CasaXP16_vb_regions_vb_regions.vms
Survey
	Characteristic Energy eV	1486.61	Acquisition Time s	1
KE_Survey	BE_Survey	CPS_Survey	Background_Survey
288.61	1198	64.4372	64.4372
289.11	1197.5	63.2638	63.2638
289.61	1197	65.446	65.446
290.11	1196.5	59.1657	59.1657
290.61	1196	68.2679	68.2679
291.11	1195.5	84.1602	84.1602
291.61	1195	75.0437	75.0437
292.11	1194.5	75.6982	75.6982
292.61	1194	65.1586	65.1586
293.11	1193.5	73.0017	73.0017
293.61	1193	61.3694	61.3694
294.11	1192.5	60.6197	60.6197
294.61	1192	67.9183	67.9183
295.11	1191.5	73.9692	73.9692
295.61	1191	61.5792	61.5792
296.11	1190.5	58.3312	58.3312
296.61	1190	49.8782	49.8782
297.11	1189.5	69.8598	69.8598
297.61	1189	51.4991	51.4991
298.11	1188.5	57.1109	57.1109
298.61	1188	53.4171	53.4171
299.11	1187.5	46.6475	46.6475
299.61	1187	51.1391	51.1391
300.11	1186.5	51.2827	51.2827
300.61	1186	55.3192	55.3192
301.11	1185.5	57.2554	57.2554
301.61	1185	58.5203	58.5203
302.11	1184.5	43.3706	43.3706
302.61	1184	62.9624	62.9624
303.11	1183.5	67.6344	67.6344
303.61	1183	56.1726	56.1726
304.11	1182.5	58.5467	58.5467
304.61	1182	54.9668	54.9668
305.11	1181.5	65.2926	65.2926
305.61	1181	57.9741	57.9741
306.11	1180.5	49.411	49.411
306.61	1180	46.6434	46.6434
307.11	1179.5	62.951	62.951
307.61	1179	82.2638	82.2638
308.11	1178.5	62.9715	62.9715
308.61	1178	62.6942	62.6942
309.11	1177.5	54.2416	54.2416
309.61	1177	59.7437	59.7437
310.11	1176.5	50.3003	50.3003
310.61	1176	55.1113	55.1113
311.11	1175.5	55.4565	55.4565
311.61	1175	56.3559	56.3559
312.11	1174.5	45.4593	45.4593
312.61	1174	53.8366	53.8366
313.11	1173.5	65.3077	65.3077
313.61	1173	60.8924	60.8924
314.11	1172.5	73.1806	73.1806
314.61	1172	60.2822	60.2822
315.11	1171.5	62.8071	62.8071
315.61	1171	79.8151	79.8151
316.11	1170.5	48.7062	48.7062
316.61	1170	56.3401	56.3401
317.11	1169.5	59.0369	59.0369
317.61	1169	61.9762	61.9762
318.11	1168.5	77.4481	77.4481
318.61	1168	59.1624	59.1624
319.11	1167.5	53.199	53.199
319.61	1167	72.7377	72.7377
320.11	1166.5	55.3684	55.3684
320.61	1166	63.8211	63.8211
321.11	1165.5	56.1955	56.1955
321.61	1165	68.5715	68.5715
322.11	1164.5	72.3891	72.3891
322.61	1164	75.7881	75.7881
323.11	1163.5	59.9783	59.9783
323.61	1163	58.7197	58.7197
324.11	1162.5	69.4022	69.4022
324.61	1162	63.5355	63.5355
325.11	1161.5	84.5396	84.5396
325.61	1161	77.7844	77.7844
326.11	1160.5	65.2797	65.2797
326.61	1160	70.4853	70.4853
327.11	1159.5	63.0313	63.0313
327.61	1159	73.1974	73.1974
328.11	1158.5	75.0836	75.0836
328.61	1158	77.1197	77.1197
329.11	1157.5	65.0955	65.0955
329.61	1157	81.361	81.361
330.11	1156.5	61.396	61.396
330.61	1156	54.9905	54.9905
331.11	1155.5	63.4344	63.4344
331.61	1155	57.9079	57.9079
332.11	1154.5	66.581	66.581
332.61	1154	75.7737	75.7737
333.11	1153.5	87.8862	87.8862
333.61	1153	94.8986	94.8986
334.11	1152.5	70.9208	70.9208
334.61	1152	67.6129	67.6129
335.11	1151.5	73.1951	73.1951
335.61	1151	81.3673	81.3673
336.11	1150.5	66.2897	66.2897
336.61	1150	71.0523	71.0523
337.11	1149.5	63.7553	63.7553
337.61	1149	80.8785	80.8785
338.11	1148.5	60.1022	60.1022
338.61	1148	69.4064	69.4064
339.11	1147.5	76.8711	76.8711
339.61	1147	74.1965	74.1965
340.11	1146.5	59.4325	59.4325
340.61	1146	48.3893	48.3893
341.11	1145.5	70.827	70.827
341.61	1145	66.7755	66.7755
342.11	1144.5	50.175	50.175
342.61	1144	75.2755	75.2755
343.11	1143.5	84.5372	84.5372
343.61	1143	78.82	78.82
344.11	1142.5	77.254	77.254
344.61	1142	55.1993	55.1993
345.11	1141.5	62.686	62.686
345.61	1141	68.1842	68.1842
346.11	1140.5	71.9639	71.9639
346.61	1140	64.7351	64.7351
347.11	1139.5	67.938	67.938
347.61	1139	60.6325	60.6325
348.11	1138.5	64.1389	64.1389
348.61	1138	79.1471	79.1471
349.11	1137.5	78.8972	78.8972
349.61	1137	64.2093	64.2093
350.11	1136.5	80.2235	80.2235
350.61	1136	77.5597	77.5597
351.11	1135.5	65.1382	65.1382
351.61	1135	68.1389	68.1389
352.11	1134.5	73.9619	73.9619
352.61	1134	74.6573	74.6573
353.11	1133.5	53.5552	53.5552
353.61	1133	70.3756	70.3756
354.11	1132.5	94.1886	94.1886
354.61	1132	63.0842	63.0842
355.11	1131.5	51.9626	51.9626
355.61	1131	67.3237	67.3237
356.11	1130.5	78.4478	78.4478
356.61	1130	83.4547	83.4547
357.11	1129.5	58.2946	58.2946
357.61	1129	73.8877	73.8877
358.11	1128.5	58.3238	58.3238
358.61	1128	65.7632	65.7632
359.11	1127.5	65.3958	65.3958
359.61	1127	71.7317	71.7317
360.11	1126.5	72.3411	72.3411
360.61	1126	71.3539	71.3539
361.11	1125.5	60.0303	60.0303
361.61	1125	79.3702	79.3702
362.11	1124.5	88.4339	88.4339
362.61	1124	74.0013	74.0013
363.11	1123.5	60.8525	60.8525
363.61	1123	67.1276	67.1276
364.11	1122.5	72.0766	72.0766
364.61	1122	74.9696	74.9696
365.11	1121.5	76.9868	76.9868
365.61	1121	64.148	64.148
366.11	1120.5	65.6935	65.6935
366.61	1120	74.3533	74.3533
367.11	1119.5	61.0074	61.0074
367.61	1119	67.886	67.886
368.11	1118.5	62.409	62.409
368.61	1118	65.2966	65.2966
369.11	1117.5	69.6788	69.6788
369.61	1117	67.8957	67.8957
370.11	1116.5	79.8674	79.8674
370.61	1116	70.2039	70.2039
371.11	1115.5	52.3453	52.3453
371.61	1115	84.4116	84.4116
372.11	1114.5	81.543	81.543
372.61	1114	89.8095	89.8095
373.11	1113.5	65.9112	65.9112
373.61	1113	48.118	48.118
374.11	1112.5	57.3298	57.3298
374.61	1112	48.9063	48.9063
375.11	1111.5	70.5373	70.5373
375.61	1111	59.9325	59.9325
376.11	1110.5	54.2516	54.2516
376.61	1110	67.7544	67.7544
377.11	1109.5	69.6407	69.6407
377.61	1109	55.3701	55.3701
378.11	1108.5	61.7224	61.7224
378.61	1108	66.5074	66.5074
379.11	1107.5	63.5348	63.5348
379.61	1107	87.5143	87.5143
380.11	1106.5	61.6957	61.6957
380.61	1106	86.6087	86.6087
381.11	1105.5	71.3031	71.3031
381.61	1105	85.6286	85.6286
382.11	1104.5	79.3149	79.3149
382.61	1104	70.2119	70.2119
383.11	1103.5	68.8592	68.8592
383.61	1103	70.6365	70.6365
384.11	1102.5	63.4537	63.4537
384.61	1102	75.1804	75.1804
385.11	1101.5	66.3464	66.3464
385.61	1101	82.6515	82.6515
386.11	1100.5	89.1454	89.1454
386.61	1100	69.3078	69.3078
387.11	1099.5	84.1684	84.1684
387.61	1099	82.7871	82.7871
388.11	1098.5	86.2335	86.2335
388.61	1098	77.3275	77.3275
389.11	1097.5	81.3886	81.3886
389.61	1097	80.7268	80.7268
390.11	1096.5	96.2217	96.2217
390.61	1096	112.283	112.283
391.11	1095.5	91.4006	91.4006
391.61	1095	87.9041	87.9041
392.11	1094.5	74.3132	74.3132
392.61	1094	71.1479	71.1479
393.11	1093.5	53.8877	53.8877
393.61	1093	60.2624	60.2624
394.11	1092.5	54.2718	54.2718
394.61	1092	39.3756	39.3756
395.11	1091.5	46.0535	46.0535
395.61	1091	34.6153	34.6153
396.11	1090.5	22.3908	22.3908
396.61	1090	-2.3104	-2.3104
397.11	1089.5	8.49153	8.49153
397.61	1089	45.6963	45.6963
398.11	1088.5	57.1037	57.1037
398.61	1088	10.1234	10.1234
399.11	1087.5	2.66525	2.66525
399.61	1087	7.02889	7.02889
400.11	1086.5	20.1241	20.1241
400.61	1086	18.6906	18.6906
401.11	1085.5	12.8282	12.8282
401.61	1085	1.43652	1.43652
402.11	1084.5	-1.65459	-1.65459
402.61	1084	7.68458	7.68458
403.11	1083.5	1.22377	1.22377
403.61	1083	2.69272	2.69272
404.11	1082.5	15.5712	15.5712
404.61	1082	2.47887	2.47887
405.11	1081.5	2.43555	2.43555
405.61	1081	8.09097	8.09097
406.11	1080.5	16.9049	16.9049
406.61	1080	24.387	24.387
407.11	1079.5	40.327	40.327
407.61	1079	22.4648	22.4648
408.11	1078.5	5.39998	5.39998
408.61	1078	23.1324	23.1324
409.11	1077.5	15.1717	15.1717
409.61	1077	18.4276	18.4276
410.11	1076.5	0.300018	0.300018
410.61	1076	21.3486	21.3486
411.11	1075.5	-1.51702	-1.51702
411.61	1075	-14.177	-14.177
412.11	1074.5	-3.04152	-3.04152
412.61	1074	17.989	17.989
413.11	1073.5	6.34446	6.34446
413.61	1073	3.67449	3.67449
414.11	1072.5	25.1389	25.1389
414.61	1072	3.45732	3.45732
415.11	1071.5	14.6496	14.6496
415.61	1071	17.6155	17.6155
416.11	1070.5	7.72466	7.72466
416.61	1070	4.23704	4.23704
417.11	1069.5	4.67313	4.67313
417.61	1069	-0.886434	-0.886434
418.11	1068.5	20.279	20.279
418.61	1068	-4.97993	-4.97993
419.11	1067.5	-8.92258	-8.92258
419.61	1067	9.74171	9.74171
420.11	1066.5	8.73357	8.73357
420.61	1066	-15.4463	-15.4463
421.11	1065.5	-12.9074	-12.9074
421.61	1065	7.22107	7.22107
422.11	1064.5	15.0397	15.0397
422.61	1064	8.60912	8.60912
423.11	1063.5	-11.57	-11.57
423.61	1063	8.22298	8.22298
424.11	1062.5	-6.40131	-6.40131
424.61	1062	-10.7922	-10.7922
425.11	1061.5	-5.00907	-5.00907
425.61	1061	8.56875	8.56875
426.11	1060.5	11.9319	11.9319
426.61	1060	5.521	5.521