CasaXP16_vb_regions.vms
Survey
	Characteristic Energy eV	1486.61	Acquisition Time s	1
KE_Survey	BE_Survey	CPS_Survey	Background_Survey
1254.11	232.5	2242.88	2242.88
1254.61	232	2232.05	2232.05
1255.11	231.5	2246.2	2246.2
1255.61	231	2257.77	2257.77
1256.11	230.5	2243.9	2243.9
1256.61	230	2227.57	2227.57
1257.11	229.5	2248.85	2248.85
1257.61	229	2248.96	2248.96
1258.11	228.5	2250.07	2250.07
1258.61	228	2269.09	2269.09
1259.11	227.5	2263.26	2263.26
1259.61	227	2238.51	2238.51
1260.11	226.5	2252.16	2252.16
1260.61	226	2273.38	2273.38
1261.11	225.5	2276.63	2276.63
1261.61	225	2267.37	2267.37
1262.11	224.5	2257.23	2257.23
1262.61	224	2261.15	2261.15
1263.11	223.5	2263.64	2263.64
1263.61	223	2278	2278
1264.11	222.5	2289.91	2289.91
1264.61	222	2274.53	2274.53
1265.11	221.5	2262.77	2262.77
1265.61	221	2275.73	2275.73
1266.11	220.5	2278.89	2278.89
1266.61	220	2272.94	2272.94
1267.11	219.5	2299.1	2299.1
1267.61	219	2301.43	2301.43
1268.11	218.5	2286.03	2286.03
1268.61	218	2266.15	2266.15
1269.11	217.5	2302.52	2302.52
1269.61	217	2304.92	2304.92
1270.11	216.5	2299.6	2299.6
1270.61	216	2295.56	2295.56
1271.11	215.5	2289.55	2289.55
1271.61	215	2308.81	2308.81
1272.11	214.5	2313.91	2313.91
1272.61	214	2306.16	2306.16
1273.11	213.5	2311.95	2311.95
1273.61	213	2330.64	2330.64
1274.11	212.5	2313.18	2313.18
1274.61	212	2331.24	2331.24
1275.11	211.5	2344.13	2344.13
1275.61	211	2339.9	2339.9
1276.11	210.5	2335.24	2335.24
1276.61	210	2352.23	2352.23
1277.11	209.5	2359.28	2359.28
1277.61	209	2354.46	2354.46
1278.11	208.5	2365.3	2365.3
1278.61	208	2352.74	2352.74
1279.11	207.5	2352.19	2352.19
1279.61	207	2351.65	2351.65
1280.11	206.5	2354.76	2354.76
1280.61	206	2391.91	2391.91
1281.11	205.5	2380.39	2380.39
1281.61	205	2342.55	2342.55
1282.11	204.5	2366.76	2366.76
1282.61	204	2376.24	2376.24
1283.11	203.5	2385.38	2385.38
1283.61	203	2384.94	2384.94
1284.11	202.5	2392.07	2392.07
1284.61	202	2385.11	2385.11
1285.11	201.5	2383.12	2383.12
1285.61	201	2392.36	2392.36
1286.11	200.5	2408.16	2408.16
1286.61	200	2425.69	2425.69
1287.11	199.5	2406.05	2406.05
1287.61	199	2416.54	2416.54
1288.11	198.5	2396.67	2396.67
1288.61	198	2425.86	2425.86
1289.11	197.5	2426.53	2426.53
1289.61	197	2419.87	2419.87
1290.11	196.5	2408.85	2408.85
1290.61	196	2416.06	2416.06
1291.11	195.5	2439.46	2439.46
1291.61	195	2449.69	2449.69
1292.11	194.5	2421.73	2421.73
1292.61	194	2444.29	2444.29
1293.11	193.5	2434.68	2434.68
1293.61	193	2452.5	2452.5
1294.11	192.5	2439.08	2439.08
1294.61	192	2458.16	2458.16
1295.11	191.5	2452.53	2452.53
1295.61	191	2465.29	2465.29
1296.11	190.5	2465.03	2465.03
1296.61	190	2466.58	2466.58
1297.11	189.5	2468.1	2468.1
1297.61	189	2464.91	2464.91
1298.11	188.5	2487.4	2487.4
1298.61	188	2492.16	2492.16
1299.11	187.5	2488.63	2488.63
1299.61	187	2490.56	2490.56
1300.11	186.5	2498.26	2498.26
1300.61	186	2475.77	2475.77
1301.11	185.5	2506.43	2506.43
1301.61	185	2515.57	2515.57
1302.11	184.5	2513.13	2513.13
1302.61	184	2497.31	2497.31
1303.11	183.5	2530.41	2530.41
1303.61	183	2525.86	2525.86
1304.11	182.5	2534.45	2534.45
1304.61	182	2516.58	2516.58
1305.11	181.5	2517.2	2517.2
1305.61	181	2544.82	2544.82
1306.11	180.5	2533.85	2533.85
1306.61	180	2568.36	2568.36
1307.11	179.5	2586.34	2586.34
1307.61	179	2579.91	2579.91
1308.11	178.5	2578.66	2578.66
1308.61	178	2540.1	2540.1
1309.11	177.5	2557.13	2557.13
1309.61	177	2581.54	2581.54
1310.11	176.5	2591.53	2591.53
1310.61	176	2579.14	2579.14
1311.11	175.5	2603.63	2603.63
1311.61	175	2637.88	2637.88
1312.11	174.5	2630.53	2630.53
1312.61	174	2585.87	2585.87
1313.11	173.5	2602.76	2602.76
1313.61	173	2629.2	2629.2
1314.11	172.5	2629.66	2629.66
1314.61	172	2627.03	2627.03
1315.11	171.5	2625.69	2625.69
1315.61	171	2652.41	2652.41
1316.11	170.5	2650.7	2650.7
1316.61	170	2638.35	2638.35
1317.11	169.5	2675.62	2675.62
1317.61	169	2696.24	2696.24
1318.11	168.5	2686.12	2686.12
1318.61	168	2723.2	2723.2
1319.11	167.5	2742.77	2742.77
1319.61	167	2678.67	2678.67
1320.11	166.5	2686.66	2686.66
1320.61	166	2700.95	2700.95
1321.11	165.5	2702.99	2702.99
1321.61	165	2699.13	2699.13
1322.11	164.5	2712.22	2712.22
1322.61	164	2695.79	2695.79
1323.11	163.5	2716.48	2716.48
1323.61	163	2747.27	2747.27
1324.11	162.5	2749.88	2749.88
1324.61	162	2737	2737
1325.11	161.5	2763.54	2763.54
1325.61	161	2752.52	2752.52
1326.11	160.5	2761.45	2761.45
1326.61	160	2737.19	2737.19
1327.11	159.5	2725.34	2725.34
1327.61	159	2763.76	2763.76
1328.11	158.5	2765.76	2765.76
1328.61	158	2776.97	2776.97
1329.11	157.5	2779.73	2779.73
1329.61	157	2795.18	2795.18
1330.11	156.5	2793.16	2793.16
1330.61	156	2791.31	2791.31
1331.11	155.5	2793.42	2793.42
1331.61	155	2825.97	2825.97
1332.11	154.5	2807.1	2807.1
1332.61	154	2821.42	2821.42
1333.11	153.5	2808.09	2808.09
1333.61	153	2831.5	2831.5
1334.11	152.5	2852.6	2852.6
1334.61	152	2852.55	2852.55
1335.11	151.5	2856.33	2856.33
1335.61	151	2862.44	2862.44
1336.11	150.5	2885.74	2885.74
1336.61	150	2895.75	2895.75
1337.11	149.5	2877.66	2877.66
1337.61	149	2875.27	2875.27
1338.11	148.5	2923.74	2923.74
1338.61	148	2926.6	2926.6
1339.11	147.5	2923.97	2923.97
1339.61	147	2930.9	2930.9
1340.11	146.5	2939.03	2939.03
1340.61	146	2952.05	2952.05
1341.11	145.5	2959.61	2959.61
1341.61	145	2975.92	2975.92
1342.11	144.5	2951.96	2951.96
1342.61	144	2946.65	2946.65
1343.11	143.5	2997.54	2997.54
1343.61	143	3013.37	3013.37
1344.11	142.5	3005.97	3005.97
1344.61	142	3008.85	3008.85
1345.11	141.5	3013.02	3013.02
1345.61	141	3009.24	3009.24
1346.11	140.5	3033.18	3033.18
1346.61	140	3030.93	3030.93
1347.11	139.5	3015.05	3015.05
1347.61	139	3045.75	3045.75
1348.11	138.5	3052.09	3052.09
1348.61	138	3056.87	3056.87
1349.11	137.5	3053.89	3053.89
1349.61	137	3062.4	3062.4
1350.11	136.5	3098.51	3098.51
1350.61	136	3106.02	3106.02
1351.11	135.5	3123.71	3123.71
1351.61	135	3117.35	3117.35
1352.11	134.5	3133.36	3133.36
1352.61	134	3147.27	3147.27
1353.11	133.5	3166.82	3166.82
1353.61	133	3169.73	3169.73
1354.11	132.5	3169.88	3169.88
1354.61	132	3191.35	3191.35
1355.11	131.5	3229.83	3229.83
1355.61	131	3199.19	3199.19
1356.11	130.5	3182.66	3182.66
1356.61	130	3206.3	3206.3
1357.11	129.5	3212.98	3212.98
1357.61	129	3221.96	3221.96
1358.11	128.5	3249.82	3249.82
1358.61	128	3268.5	3268.5
1359.11	127.5	3289.85	3289.85
1359.61	127	3362.29	3362.29
1360.11	126.5	3424.62	3424.62
1360.61	126	3529.04	3529.04
1361.11	125.5	3718.25	3718.25
1361.61	125	3969.4	3969.4
1362.11	124.5	4291.3	4291.3
1362.61	124	4725.71	4725.71
1363.11	123.5	5224.68	5224.68
1363.61	123	5639.73	5639.73
1364.11	122.5	5783.05	5783.05
1364.61	122	5640.17	5640.17
1365.11	121.5	5108.05	5108.05
1365.61	121	4461.46	4461.46
1366.11	120.5	3888.91	3888.91
1366.61	120	3494.75	3494.75
1367.11	119.5	3218.61	3218.61
1367.61	119	3051.03	3051.03
1368.11	118.5	2911.82	2911.82
1368.61	118	2831.14	2831.14
1369.11	117.5	2779.65	2779.65
1369.61	117	2703.15	2703.15
1370.11	116.5	2698.18	2698.18
1370.61	116	2701.41	2701.41
1371.11	115.5	2694.34	2694.34
1371.61	115	2641.59	2641.59
1372.11	114.5	2632.63	2632.63
1372.61	114	2632.12	2632.12
1373.11	113.5	2633.21	2633.21
1373.61	113	2634.91	2634.91
1374.11	112.5	2633.8	2633.8
1374.61	112	2636.82	2636.82
1375.11	111.5	2639.22	2639.22
1375.61	111	2627.26	2627.26
1376.11	110.5	2644.37	2644.37
1376.61	110	2657.56	2657.56
1377.11	109.5	2666.33	2666.33
1377.61	109	2685.97	2685.97
1378.11	108.5	2664.15	2664.15
1378.61	108	2674.07	2674.07
1379.11	107.5	2684.6	2684.6
1379.61	107	2722.98	2722.98
1380.11	106.5	2709.07	2709.07
1380.61	106	2737.64	2737.64
1381.11	105.5	2753.79	2753.79
1381.61	105	2751.25	2751.25
1382.11	104.5	2745.69	2745.69
1382.61	104	2748.7	2748.7
1383.11	103.5	2789.48	2789.48
1383.61	103	2790.1	2790.1
1384.11	102.5	2781.04	2781.04
1384.61	102	2809.68	2809.68
1385.11	101.5	2830.54	2830.54
1385.61	101	2858.43	2858.43
1386.11	100.5	2865.2	2865.2
1386.61	100	2858.78	2858.78
1387.11	99.5	2868.19	2868.19
1387.61	99	2891.12	2891.12
1388.11	98.5	2914.35	2914.35
1388.61	98	2913.5	2913.5
1389.11	97.5	2916.07	2916.07
1389.61	97	2961.52	2961.52
1390.11	96.5	2966.22	2966.22
1390.61	96	2976.07	2976.07
1391.11	95.5	3009.14	3009.14
1391.61	95	2995.8	2995.8
1392.11	94.5	2981.04	2981.04
1392.61	94	2987.55	2987.55
1393.11	93.5	2961.12	2961.12
1393.61	93	2920.25	2920.25
1394.11	92.5	2928.56	2928.56
1394.61	92	2877.97	2877.97
1395.11	91.5	2840.04	2840.04
1395.61	91	2809.85	2809.85
1396.11	90.5	2830.3	2830.3
1396.61	90	2807.05	2807.05
1397.11	89.5	2773.58	2773.58
1397.61	89	2768.83	2768.83
1398.11	88.5	2773.15	2773.15
1398.61	88	2749.71	2749.71
1399.11	87.5	2789.14	2789.14
1399.61	87	2786.46	2786.46
1400.11	86.5	2783.27	2783.27
1400.61	86	2827.52	2827.52
1401.11	85.5	2795.26	2795.26
1401.61	85	2788.49	2788.49
1402.11	84.5	2784.01	2784.01
1402.61	84	2779.59	2779.59
1403.11	83.5	2807.31	2807.31
1403.61	83	2839.26	2839.26
1404.11	82.5	2882.17	2882.17
1404.61	82	2993.35	2993.35
1405.11	81.5	3097.74	3097.74
1405.61	81	3279.93	3279.93
1406.11	80.5	3514.13	3514.13
1406.61	80	3850.66	3850.66
1407.11	79.5	4337.26	4337.26
1407.61	79	4992.53	4992.53
1408.11	78.5	5804.19	5804.19
1408.61	78	6569.12	6569.12
1409.11	77.5	7260.52	7260.52
1409.61	77	7713.95	7713.95
1410.11	76.5	8079.77	8079.77
1410.61	76	8333.42	8333.42
1411.11	75.5	8551	8551
1411.61	75	8314.27	8314.27
1412.11	74.5	7431.71	7431.71
1412.61	74	6086.85	6086.85
1413.11	73.5	4568.26	4568.26
1413.61	73	3355.77	3355.77
1414.11	72.5	2556.91	2556.91
1414.61	72	2023.42	2023.42
1415.11	71.5	1675.35	1675.35
1415.61	71	1447.4	1447.4
1416.11	70.5	1291.11	1291.11
1416.61	70	1156.79	1156.79
1417.11	69.5	1076.3	1076.3
1417.61	69	993.909	993.909
1418.11	68.5	925.354	925.354
1418.61	68	883.849	883.849
1419.11	67.5	854.761	854.761
1419.61	67	811.503	811.503
1420.11	66.5	789.079	789.079
1420.61	66	766.003	766.003
1421.11	65.5	735.753	735.753
1421.61	65	733.5	733.5
1422.11	64.5	707.92	707.92
1422.61	64	707.119	707.119
1423.11	63.5	674.507	674.507
1423.61	63	678.756	678.756
1424.11	62.5	676.444	676.444
1424.61	62	675.125	675.125
1425.11	61.5	660.576	660.576
1425.61	61	666.366	666.366
1426.11	60.5	665.25	665.25
1426.61	60	662.216	662.216
1427.11	59.5	664.813	664.813
1427.61	59	663.251	663.251
1428.11	58.5	647.845	647.845
1428.61	58	649.484	649.484
1429.11	57.5	660.601	660.601
1429.61	57	642.609	642.609
1430.11	56.5	649.065	649.065
1430.61	56	652.914	652.914
1431.11	55.5	658.205	658.205
1431.61	55	644.595	644.595
1432.11	54.5	643.794	643.794
1432.61	54	647.95	647.95
1433.11	53.5	647.102	647.102
1433.61	53	646.003	646.003
1434.11	52.5	635.66	635.66
1434.61	52	654.203	654.203
1435.11	51.5	651.951	651.951
1435.61	51	657.574	657.574
1436.11	50.5	662.521	662.521
1436.61	50	657.977	657.977
1437.11	49.5	657.05	657.05
1437.61	49	652.861	652.861
1438.11	48.5	649.315	649.315
1438.61	48	658.712	658.712
1439.11	47.5	648.312	648.312
1439.61	47	663.12	663.12
1440.11	46.5	661.523	661.523
1440.61	46	667.385	667.385
1441.11	45.5	666.82	666.82
1441.61	45	669.71	669.71
1442.11	44.5	660.537	660.537
1442.61	44	668.887	668.887
1443.11	43.5	667.595	667.595
1443.61	43	671.916	671.916
1444.11	42.5	670.181	670.181
1444.61	42	671.18	671.18
1445.11	41.5	685.622	685.622
1445.61	41	674.028	674.028
1446.11	40.5	663.494	663.494
1446.61	40	681.424	681.424