C:\Users\Mark\ownCloud\Muelheim Group\Projects\Gas phase background\EX321_CEC356_Au Ag and Cu in O2.vms
Pr:Survey
	Characteristic Energy eV	1486.61	Acquisition Time s	1
KE_Pr:Survey	BE_Pr:Survey	CPS_Pr:Survey	Background_Pr:Survey
985.11	501.5	354.987	354.987
985.61	501	353.415	353.415
986.11	500.5	362.06	362.06
986.61	500	361.452	361.452
987.11	499.5	355.682	355.682
987.61	499	361.076	361.076
988.11	498.5	359.955	359.955
988.61	498	361.415	361.415
989.11	497.5	366.093	366.093
989.61	497	362.067	362.067
990.11	496.5	358.632	358.632
990.61	496	365.451	365.451
991.11	495.5	360.289	360.289
991.61	495	370.885	370.885
992.11	494.5	367.871	367.871
992.61	494	364.071	364.071
993.11	493.5	364.232	364.232
993.61	493	372.677	372.677
994.11	492.5	363.802	363.802
994.61	492	369.801	369.801
995.11	491.5	373.475	373.475
995.61	491	370.912	370.912
996.11	490.5	371.637	371.637
996.61	490	375.774	375.774
997.11	489.5	370.833	370.833
997.61	489	375.277	375.277
998.11	488.5	376.908	376.908
998.61	488	368.011	368.011
999.11	487.5	368.103	368.103
999.61	487	369.754	369.754
1000.11	486.5	371.994	371.994
1000.61	486	376.399	376.399
1001.11	485.5	373.625	373.625
1001.61	485	377.057	377.057
1002.11	484.5	369.417	369.417
1002.61	484	371.089	371.089
1003.11	483.5	371.813	371.813
1003.61	483	382.993	382.993
1004.11	482.5	375.456	375.456
1004.61	482	378.556	378.556
1005.11	481.5	375.609	375.609
1005.61	481	375.535	375.535
1006.11	480.5	371.685	371.685
1006.61	480	364.129	364.129
1007.11	479.5	383.487	383.487
1007.61	479	380.716	380.716
1008.11	478.5	375.305	375.305
1008.61	478	379.835	379.835
1009.11	477.5	382.398	382.398
1009.61	477	386.468	386.468
1010.11	476.5	382.293	382.293
1010.61	476	386.847	386.847
1011.11	475.5	380.862	380.862
1011.61	475	386.74	386.74
1012.11	474.5	383.567	383.567
1012.61	474	383.88	383.88
1013.11	473.5	379.848	379.848
1013.61	473	379.551	379.551
1014.11	472.5	385.638	385.638
1014.61	472	383.691	383.691
1015.11	471.5	384.35	384.35
1015.61	471	385.975	385.975
1016.11	470.5	378.949	378.949
1016.61	470	390.185	390.185
1017.11	469.5	393.965	393.965
1017.61	469	390.392	390.392
1018.11	468.5	385.111	385.111
1018.61	468	382.831	382.831
1019.11	467.5	391.073	391.073
1019.61	467	385.212	385.212
1020.11	466.5	388.636	388.636
1020.61	466	388.789	388.789
1021.11	465.5	389.792	389.792
1021.61	465	393.589	393.589
1022.11	464.5	397.463	397.463
1022.61	464	401.679	401.679
1023.11	463.5	398.551	398.551
1023.61	463	394.925	394.925
1024.11	462.5	391.238	391.238
1024.61	462	391.404	391.404
1025.11	461.5	394.593	394.593
1025.61	461	401.145	401.145
1026.11	460.5	397.815	397.815
1026.61	460	400.542	400.542
1027.11	459.5	400.453	400.453
1027.61	459	397.952	397.952
1028.11	458.5	393.777	393.777
1028.61	458	400.844	400.844
1029.11	457.5	398.642	398.642
1029.61	457	399.929	399.929
1030.11	456.5	402.372	402.372
1030.61	456	404.677	404.677
1031.11	455.5	392.004	392.004
1031.61	455	394.79	394.79
1032.11	454.5	395.218	395.218
1032.61	454	404.326	404.326
1033.11	453.5	402.414	402.414
1033.61	453	412.817	412.817
1034.11	452.5	409.623	409.623
1034.61	452	415.699	415.699
1035.11	451.5	415.773	415.773
1035.61	451	425.252	425.252
1036.11	450.5	418.538	418.538
1036.61	450	410.658	410.658
1037.11	449.5	406.967	406.967
1037.61	449	409.385	409.385
1038.11	448.5	416.71	416.71
1038.61	448	416.313	416.313
1039.11	447.5	406.739	406.739
1039.61	447	404.999	404.999
1040.11	446.5	412.834	412.834
1040.61	446	421.871	421.871
1041.11	445.5	423.39	423.39
1041.61	445	416.96	416.96
1042.11	444.5	414.324	414.324
1042.61	444	420.662	420.662
1043.11	443.5	411.84	411.84
1043.61	443	426.799	426.799
1044.11	442.5	412.35	412.35
1044.61	442	421.837	421.837
1045.11	441.5	417.121	417.121
1045.61	441	415.045	415.045
1046.11	440.5	427.358	427.358
1046.61	440	424.194	424.194
1047.11	439.5	427.397	427.397
1047.61	439	417.727	417.727
1048.11	438.5	436.702	436.702
1048.61	438	432.437	432.437
1049.11	437.5	430.366	430.366
1049.61	437	423.582	423.582
1050.11	436.5	413.697	413.697
1050.61	436	428.599	428.599
1051.11	435.5	426.081	426.081
1051.61	435	421.024	421.024
1052.11	434.5	423.955	423.955
1052.61	434	420.417	420.417
1053.11	433.5	423.652	423.652
1053.61	433	430.555	430.555
1054.11	432.5	426.396	426.396
1054.61	432	426.514	426.514
1055.11	431.5	429.692	429.692
1055.61	431	431.485	431.485
1056.11	430.5	438.933	438.933
1056.61	430	432.385	432.385
1057.11	429.5	438.563	438.563
1057.61	429	440.469	440.469
1058.11	428.5	433.502	433.502
1058.61	428	438.257	438.257
1059.11	427.5	436.718	436.718
1059.61	427	443.272	443.272
1060.11	426.5	443.936	443.936
1060.61	426	436.894	436.894
1061.11	425.5	427.377	427.377
1061.61	425	428.575	428.575
1062.11	424.5	439.102	439.102
1062.61	424	440.115	440.115
1063.11	423.5	443.583	443.583
1063.61	423	438.537	438.537
1064.11	422.5	439.854	439.854
1064.61	422	435.702	435.702
1065.11	421.5	438.574	438.574
1065.61	421	436.031	436.031
1066.11	420.5	447.381	447.381
1066.61	420	444.352	444.352
1067.11	419.5	438.333	438.333
1067.61	419	447.531	447.531
1068.11	418.5	450.31	450.31
1068.61	418	450.682	450.682
1069.11	417.5	440.726	440.726
1069.61	417	443.027	443.027
1070.11	416.5	450.818	450.818
1070.61	416	447.401	447.401
1071.11	415.5	441.308	441.308
1071.61	415	447.082	447.082
1072.11	414.5	445.908	445.908
1072.61	414	447.52	447.52
1073.11	413.5	448.324	448.324
1073.61	413	442.235	442.235
1074.11	412.5	448.635	448.635
1074.61	412	451.501	451.501
1075.11	411.5	448.432	448.432
1075.61	411	450.11	450.11
1076.11	410.5	453.424	453.424
1076.61	410	445.002	445.002
1077.11	409.5	457.716	457.716
1077.61	409	465.345	465.345
1078.11	408.5	466.175	466.175
1078.61	408	454.567	454.567
1079.11	407.5	456.702	456.702
1079.61	407	468.829	468.829
1080.11	406.5	462.949	462.949
1080.61	406	470.26	470.26
1081.11	405.5	452.073	452.073
1081.61	405	457.896	457.896
1082.11	404.5	466.013	466.013
1082.61	404	463.88	463.88
1083.11	403.5	462.106	462.106
1083.61	403	466.611	466.611
1084.11	402.5	457.974	457.974
1084.61	402	470.357	470.357
1085.11	401.5	474.144	474.144
1085.61	401	477.553	477.553
1086.11	400.5	472.294	472.294
1086.61	400	471.09	471.09
1087.11	399.5	466.544	466.544
1087.61	399	471.704	471.704
1088.11	398.5	462.442	462.442
1088.61	398	460.851	460.851
1089.11	397.5	468.84	468.84
1089.61	397	463.299	463.299
1090.11	396.5	469.369	469.369
1090.61	396	473.169	473.169
1091.11	395.5	473.618	473.618
1091.61	395	473.095	473.095
1092.11	394.5	468.832	468.832
1092.61	394	466.19	466.19
1093.11	393.5	470.904	470.904
1093.61	393	482.331	482.331
1094.11	392.5	474.636	474.636
1094.61	392	475.552	475.552
1095.11	391.5	480.791	480.791
1095.61	391	479.48	479.48
1096.11	390.5	477.821	477.821
1096.61	390	476.427	476.427
1097.11	389.5	476.061	476.061
1097.61	389	478.648	478.648
1098.11	388.5	477.591	477.591
1098.61	388	478.693	478.693
1099.11	387.5	481.566	481.566
1099.61	387	489.062	489.062
1100.11	386.5	478.311	478.311
1100.61	386	472.411	472.411
1101.11	385.5	485.656	485.656
1101.61	385	489.053	489.053
1102.11	384.5	487.422	487.422
1102.61	384	482.743	482.743
1103.11	383.5	488.075	488.075
1103.61	383	491.754	491.754
1104.11	382.5	484.858	484.858
1104.61	382	482.597	482.597
1105.11	381.5	483.882	483.882
1105.61	381	484.983	484.983
1106.11	380.5	484.307	484.307
1106.61	380	494.571	494.571
1107.11	379.5	483.98	483.98
1107.61	379	477.662	477.662
1108.11	378.5	484.569	484.569
1108.61	378	485.58	485.58
1109.11	377.5	498.016	498.016
1109.61	377	486.189	486.189
1110.11	376.5	496.632	496.632
1110.61	376	502.542	502.542
1111.11	375.5	503.483	503.483
1111.61	375	507.54	507.54
1112.11	374.5	508.416	508.416
1112.61	374	493.457	493.457
1113.11	373.5	494.426	494.426
1113.61	373	492.964	492.964
1114.11	372.5	499.072	499.072
1114.61	372	499.822	499.822
1115.11	371.5	497.405	497.405
1115.61	371	499.063	499.063
1116.11	370.5	503.17	503.17
1116.61	370	509.772	509.772
1117.11	369.5	505.667	505.667
1117.61	369	496.344	496.344
1118.11	368.5	500.525	500.525
1118.61	368	501.316	501.316
1119.11	367.5	507.045	507.045
1119.61	367	508.25	508.25
1120.11	366.5	507.163	507.163
1120.61	366	496.427	496.427
1121.11	365.5	500.301	500.301
1121.61	365	506.845	506.845
1122.11	364.5	505.866	505.866
1122.61	364	504.251	504.251
1123.11	363.5	512.582	512.582
1123.61	363	518.516	518.516
1124.11	362.5	516.934	516.934
1124.61	362	524.235	524.235
1125.11	361.5	512.389	512.389
1125.61	361	514.132	514.132
1126.11	360.5	511.603	511.603
1126.61	360	512.951	512.951
1127.11	359.5	513.849	513.849
1127.61	359	520.597	520.597
1128.11	358.5	520.533	520.533
1128.61	358	518.453	518.453
1129.11	357.5	523.402	523.402
1129.61	357	518.02	518.02
1130.11	356.5	514.062	514.062
1130.61	356	533.761	533.761
1131.11	355.5	525.13	525.13
1131.61	355	530.392	530.392
1132.11	354.5	528.295	528.295
1132.61	354	515.705	515.705
1133.11	353.5	521.229	521.229
1133.61	353	523.189	523.189
1134.11	352.5	527.629	527.629
1134.61	352	526.666	526.666
1135.11	351.5	531.794	531.794
1135.61	351	528.631	528.631
1136.11	350.5	533.682	533.682
1136.61	350	546.458	546.458
1137.11	349.5	527.202	527.202
1137.61	349	531.947	531.947
1138.11	348.5	533.785	533.785
1138.61	348	538.057	538.057
1139.11	347.5	537.404	537.404
1139.61	347	538.285	538.285
1140.11	346.5	538.785	538.785
1140.61	346	535.167	535.167
1141.11	345.5	534.319	534.319
1141.61	345	534.179	534.179
1142.11	344.5	540.81	540.81
1142.61	344	539.33	539.33
1143.11	343.5	541.254	541.254
1143.61	343	533.083	533.083
1144.11	342.5	546.561	546.561
1144.61	342	553.982	553.982
1145.11	341.5	547.852	547.852
1145.61	341	535.11	535.11
1146.11	340.5	543.765	543.765
1146.61	340	537.859	537.859
1147.11	339.5	542.885	542.885
1147.61	339	546.793	546.793
1148.11	338.5	545.046	545.046
1148.61	338	543.452	543.452
1149.11	337.5	549.966	549.966
1149.61	337	550.51	550.51
1150.11	336.5	545.363	545.363
1150.61	336	556.862	556.862
1151.11	335.5	552.37	552.37
1151.61	335	557.507	557.507
1152.11	334.5	561.07	561.07
1152.61	334	544.969	544.969
1153.11	333.5	549.856	549.856
1153.61	333	552.759	552.759
1154.11	332.5	553.879	553.879
1154.61	332	553.5	553.5
1155.11	331.5	558.85	558.85
1155.61	331	561.904	561.904
1156.11	330.5	566.293	566.293
1156.61	330	559.826	559.826
1157.11	329.5	560.351	560.351
1157.61	329	557.7	557.7
1158.11	328.5	566.095	566.095
1158.61	328	560.281	560.281
1159.11	327.5	552.464	552.464
1159.61	327	555.327	555.327
1160.11	326.5	555.918	555.918
1160.61	326	553.779	553.779
1161.11	325.5	562.778	562.778
1161.61	325	577.184	577.184
1162.11	324.5	569.707	569.707
1162.61	324	563.779	563.779
1163.11	323.5	572.268	572.268
1163.61	323	563.747	563.747
1164.11	322.5	559.889	559.889
1164.61	322	556.334	556.334
1165.11	321.5	580.806	580.806
1165.61	321	573.285	573.285
1166.11	320.5	554.844	554.844
1166.61	320	564.062	564.062
1167.11	319.5	571.93	571.93
1167.61	319	575.277	575.277
1168.11	318.5	582.12	582.12
1168.61	318	572.597	572.597
1169.11	317.5	562.038	562.038
1169.61	317	567.4	567.4
1170.11	316.5	571.729	571.729
1170.61	316	576.867	576.867
1171.11	315.5	585.263	585.263
1171.61	315	587.231	587.231
1172.11	314.5	590.498	590.498
1172.61	314	579.298	579.298
1173.11	313.5	580.678	580.678
1173.61	313	577.013	577.013
1174.11	312.5	585.682	585.682
1174.61	312	588.893	588.893
1175.11	311.5	578.753	578.753
1175.61	311	586.954	586.954
1176.11	310.5	578.668	578.668
1176.61	310	577.38	577.38
1177.11	309.5	595.045	595.045
1177.61	309	589.901	589.901
1178.11	308.5	607.912	607.912
1178.61	308	601.358	601.358
1179.11	307.5	594.993	594.993
1179.61	307	597.883	597.883
1180.11	306.5	590.447	590.447
1180.61	306	586.57	586.57
1181.11	305.5	592.817	592.817
1181.61	305	591.099	591.099
1182.11	304.5	586.766	586.766
1182.61	304	592.281	592.281
1183.11	303.5	598.483	598.483
1183.61	303	590.552	590.552
1184.11	302.5	583.103	583.103
1184.61	302	586.512	586.512
1185.11	301.5	598.246	598.246
1185.61	301	609.234	609.234
1186.11	300.5	610.548	610.548
1186.61	300	600.697	600.697
1187.11	299.5	620.448	620.448
1187.61	299	605.972	605.972
1188.11	298.5	602.348	602.348
1188.61	298	599.254	599.254
1189.11	297.5	601.986	601.986
1189.61	297	608.299	608.299
1190.11	296.5	600.874	600.874
1190.61	296	593.998	593.998
1191.11	295.5	605.519	605.519
1191.61	295	604.907	604.907
1192.11	294.5	602.804	602.804
1192.61	294	610.474	610.474
1193.11	293.5	612.692	612.692
1193.61	293	620.077	620.077
1194.11	292.5	616.874	616.874
1194.61	292	607.133	607.133
1195.11	291.5	610.778	610.778
1195.61	291	613.887	613.887
1196.11	290.5	617.796	617.796
1196.61	290	618.059	618.059
1197.11	289.5	624.465	624.465
1197.61	289	619.827	619.827
1198.11	288.5	632.151	632.151
1198.61	288	648.912	648.912
1199.11	287.5	631.001	631.001
1199.61	287	634.137	634.137
1200.11	286.5	641.774	641.774
1200.61	286	636.491	636.491
1201.11	285.5	642.178	642.178
1201.61	285	641.964	641.964
1202.11	284.5	646.545	646.545
1202.61	284	644.653	644.653
1203.11	283.5	636.749	636.749
1203.61	283	627.415	627.415
1204.11	282.5	636.03	636.03
1204.61	282	623.898	623.898
1205.11	281.5	620.854	620.854
1205.61	281	617.401	617.401
1206.11	280.5	624.047	624.047
1206.61	280	619.169	619.169
1207.11	279.5	623.011	623.011
1207.61	279	619.265	619.265
1208.11	278.5	625.855	625.855
1208.61	278	626.008	626.008
1209.11	277.5	636.516	636.516
1209.61	277	626.652	626.652
1210.11	276.5	631.539	631.539
1210.61	276	644.329	644.329
1211.11	275.5	633.867	633.867
1211.61	275	620.541	620.541
1212.11	274.5	637.746	637.746
1212.61	274	646.8	646.8
1213.11	273.5	646.466	646.466
1213.61	273	631.28	631.28
1214.11	272.5	645.438	645.438
1214.61	272	645.786	645.786
1215.11	271.5	645.824	645.824
1215.61	271	641.946	641.946
1216.11	270.5	642.282	642.282
1216.61	270	653.064	653.064
1217.11	269.5	632.132	632.132
1217.61	269	643.741	643.741
1218.11	268.5	635.379	635.379
1218.61	268	638.628	638.628
1219.11	267.5	645.864	645.864
1219.61	267	656.264	656.264
1220.11	266.5	648.943	648.943
1220.61	266	663.318	663.318
1221.11	265.5	645.202	645.202
1221.61	265	652.196	652.196
1222.11	264.5	641.846	641.846
1222.61	264	642.511	642.511
1223.11	263.5	654.149	654.149
1223.61	263	652.508	652.508
1224.11	262.5	644.54	644.54
1224.61	262	651.925	651.925
1225.11	261.5	656.184	656.184
1225.61	261	657.68	657.68
1226.11	260.5	657.178	657.178
1226.61	260	656.883	656.883
1227.11	259.5	657.087	657.087
1227.61	259	654.437	654.437
1228.11	258.5	668.219	668.219
1228.61	258	663.589	663.589
1229.11	257.5	661.848	661.848
1229.61	257	672.528	672.528
1230.11	256.5	664.8	664.8
1230.61	256	664.997	664.997
1231.11	255.5	662.499	662.499
1231.61	255	662.003	662.003
1232.11	254.5	661	661
1232.61	254	665.512	665.512
1233.11	253.5	672.514	672.514
1233.61	253	674.532	674.532
1234.11	252.5	660.262	660.262
1234.61	252	667.828	667.828
1235.11	251.5	666.354	666.354
1235.61	251	675.922	675.922
1236.11	250.5	678.09	678.09
1236.61	250	673.078	673.078
1237.11	249.5	679.808	679.808
1237.61	249	679.038	679.038
1238.11	248.5	684.636	684.636
1238.61	248	680.037	680.037
1239.11	247.5	686.52	686.52
1239.61	247	677.201	677.201
1240.11	246.5	673.178	673.178
1240.61	246	673.501	673.501
1241.11	245.5	673.15	673.15
1241.61	245	684.458	684.458
1242.11	244.5	686.726	686.726
1242.61	244	688.15	688.15
1243.11	243.5	691.707	691.707
1243.61	243	698.124	698.124
1244.11	242.5	697.527	697.527
1244.61	242	707.401	707.401
1245.11	241.5	697.418	697.418
1245.61	241	694.927	694.927
1246.11	240.5	699.252	699.252
1246.61	240	690.726	690.726
1247.11	239.5	696.45	696.45
1247.61	239	696.159	696.159
1248.11	238.5	697.294	697.294
1248.61	238	708.383	708.383
1249.11	237.5	710.828	710.828
1249.61	237	700.275	700.275
1250.11	236.5	698.845	698.845
1250.61	236	693.256	693.256
1251.11	235.5	707.429	707.429
1251.61	235	703.157	703.157
1252.11	234.5	705.94	705.94
1252.61	234	710.787	710.787
1253.11	233.5	705.067	705.067
1253.61	233	712.172	712.172
1254.11	232.5	703.771	703.771
1254.61	232	715.722	715.722
1255.11	231.5	717.83	717.83
1255.61	231	713.138	713.138
1256.11	230.5	703.467	703.467
1256.61	230	705.046	705.046
1257.11	229.5	720.788	720.788
1257.61	229	723.035	723.035
1258.11	228.5	722.943	722.943
1258.61	228	711.119	711.119
1259.11	227.5	709.323	709.323
1259.61	227	718.199	718.199
1260.11	226.5	709.837	709.837
1260.61	226	709.857	709.857
1261.11	225.5	714.859	714.859
1261.61	225	713.182	713.182
1262.11	224.5	718.251	718.251
1262.61	224	717.115	717.115
1263.11	223.5	729.12	729.12
1263.61	223	714.35	714.35
1264.11	222.5	723.066	723.066
1264.61	222	722.518	722.518
1265.11	221.5	721.04	721.04
1265.61	221	724.171	724.171
1266.11	220.5	730.155	730.155
1266.61	220	728.398	728.398
1267.11	219.5	737.396	737.396
1267.61	219	738.912	738.912
1268.11	218.5	727.935	727.935
1268.61	218	743.391	743.391
1269.11	217.5	726.942	726.942
1269.61	217	727.857	727.857
1270.11	216.5	728.5	728.5
1270.61	216	725.941	725.941
1271.11	215.5	741.913	741.913
1271.61	215	731.978	731.978
1272.11	214.5	741.325	741.325
1272.61	214	731.536	731.536
1273.11	213.5	733.669	733.669
1273.61	213	744.219	744.219
1274.11	212.5	734.131	734.131
1274.61	212	734.452	734.452
1275.11	211.5	742.174	742.174
1275.61	211	744.282	744.282
1276.11	210.5	753.29	753.29
1276.61	210	758.49	758.49
1277.11	209.5	743.7	743.7
1277.61	209	753.931	753.931
1278.11	208.5	751.729	751.729
1278.61	208	749.305	749.305
1279.11	207.5	759.954	759.954
1279.61	207	762.733	762.733
1280.11	206.5	753.936	753.936
1280.61	206	759.672	759.672
1281.11	205.5	752.312	752.312
1281.61	205	757.221	757.221
1282.11	204.5	751.285	751.285
1282.61	204	768.659	768.659
1283.11	203.5	770.796	770.796
1283.61	203	766.494	766.494
1284.11	202.5	767.181	767.181
1284.61	202	770.421	770.421
1285.11	201.5	775.133	775.133
1285.61	201	776.442	776.442
1286.11	200.5	770.347	770.347
1286.61	200	778.913	778.913
1287.11	199.5	775.806	775.806
1287.61	199	771.759	771.759
1288.11	198.5	762.673	762.673
1288.61	198	786.062	786.062
1289.11	197.5	785.902	785.902
1289.61	197	780.336	780.336
1290.11	196.5	776.681	776.681
1290.61	196	772.157	772.157
1291.11	195.5	794.007	794.007
1291.61	195	777.607	777.607
1292.11	194.5	774.964	774.964
1292.61	194	782.527	782.527
1293.11	193.5	779.911	779.911
1293.61	193	780.946	780.946
1294.11	192.5	790.028	790.028
1294.61	192	788.898	788.898
1295.11	191.5	782.132	782.132
1295.61	191	802.785	802.785
1296.11	190.5	802.022	802.022
1296.61	190	808.154	808.154
1297.11	189.5	790.638	790.638
1297.61	189	773.502	773.502
1298.11	188.5	781.418	781.418
1298.61	188	803.04	803.04
1299.11	187.5	801.97	801.97
1299.61	187	801.215	801.215
1300.11	186.5	805.567	805.567
1300.61	186	792.439	792.439
1301.11	185.5	790.3	790.3
1301.61	185	796.566	796.566
1302.11	184.5	804.135	804.135
1302.61	184	801.652	801.652
1303.11	183.5	795.614	795.614
1303.61	183	805.374	805.374
1304.11	182.5	809.999	809.999
1304.61	182	809.222	809.222
1305.11	181.5	806.341	806.341
1305.61	181	814.246	814.246
1306.11	180.5	815.861	815.861
1306.61	180	819.299	819.299
1307.11	179.5	813.307	813.307
1307.61	179	806.861	806.861
1308.11	178.5	815.408	815.408
1308.61	178	809.683	809.683
1309.11	177.5	808.789	808.789
1309.61	177	816.977	816.977
1310.11	176.5	808.583	808.583
1310.61	176	805.627	805.627
1311.11	175.5	814.5	814.5
1311.61	175	829.677	829.677
1312.11	174.5	818.905	818.905
1312.61	174	809.588	809.588
1313.11	173.5	821.506	821.506
1313.61	173	827.16	827.16
1314.11	172.5	828.924	828.924
1314.61	172	827.227	827.227
1315.11	171.5	815.958	815.958
1315.61	171	824.277	824.277
1316.11	170.5	831.11	831.11
1316.61	170	829.678	829.678
1317.11	169.5	833.776	833.776
1317.61	169	834.226	834.226
1318.11	168.5	825.069	825.069
1318.61	168	821.749	821.749
1319.11	167.5	833.304	833.304
1319.61	167	836.755	836.755
1320.11	166.5	828.292	828.292
1320.61	166	846.368	846.368
1321.11	165.5	837.758	837.758
1321.61	165	816.826	816.826
1322.11	164.5	831.034	831.034
1322.61	164	827.412	827.412
1323.11	163.5	837.508	837.508
1323.61	163	846.709	846.709
1324.11	162.5	851.935	851.935
1324.61	162	819.472	819.472
1325.11	161.5	837.872	837.872
1325.61	161	840.065	840.065
1326.11	160.5	845.248	845.248
1326.61	160	833.346	833.346
1327.11	159.5	835.684	835.684
1327.61	159	841.222	841.222
1328.11	158.5	837.053	837.053
1328.61	158	843.299	843.299
1329.11	157.5	845.613	845.613
1329.61	157	836.507	836.507
1330.11	156.5	844.01	844.01
1330.61	156	847.125	847.125
1331.11	155.5	851.865	851.865
1331.61	155	864.761	864.761
1332.11	154.5	836.352	836.352
1332.61	154	835.099	835.099
1333.11	153.5	840.533	840.533
1333.61	153	838.078	838.078
1334.11	152.5	836.575	836.575
1334.61	152	848.59	848.59
1335.11	151.5	857.655	857.655
1335.61	151	839.06	839.06
1336.11	150.5	834.177	834.177
1336.61	150	824.72	824.72
1337.11	149.5	840.075	840.075
1337.61	149	850.315	850.315
1338.11	148.5	841.558	841.558
1338.61	148	837.079	837.079
1339.11	147.5	821.703	821.703
1339.61	147	841.54	841.54
1340.11	146.5	848.432	848.432
1340.61	146	829.184	829.184
1341.11	145.5	825.483	825.483
1341.61	145	820.689	820.689
1342.11	144.5	819.974	819.974
1342.61	144	823.541	823.541
1343.11	143.5	814.996	814.996
1343.61	143	815.101	815.101
1344.11	142.5	824.608	824.608
1344.61	142	829.05	829.05
1345.11	141.5	828.922	828.922
1345.61	141	823.429	823.429
1346.11	140.5	808.622	808.622
1346.61	140	817.967	817.967
1347.11	139.5	815.264	815.264
1347.61	139	801.93	801.93
1348.11	138.5	806.024	806.024
1348.61	138	802.476	802.476
1349.11	137.5	790.464	790.464
1349.61	137	785.657	785.657
1350.11	136.5	791.372	791.372
1350.61	136	778.84	778.84
1351.11	135.5	762.665	762.665
1351.61	135	763.693	763.693
1352.11	134.5	770.384	770.384
1352.61	134	773.58	773.58
1353.11	133.5	746.709	746.709
1353.61	133	746.234	746.234
1354.11	132.5	743.89	743.89
1354.61	132	748.686	748.686
1355.11	131.5	744.495	744.495
1355.61	131	760.056	760.056
1356.11	130.5	752.542	752.542
1356.61	130	745.838	745.838
1357.11	129.5	746.385	746.385
1357.61	129	731.645	731.645
1358.11	128.5	735.525	735.525
1358.61	128	741.936	741.936
1359.11	127.5	731.391	731.391
1359.61	127	728.172	728.172
1360.11	126.5	744.184	744.184
1360.61	126	760.166	760.166
1361.11	125.5	780.179	780.179
1361.61	125	797.876	797.876
1362.11	124.5	815.904	815.904
1362.61	124	854.224	854.224
1363.11	123.5	900.892	900.892
1363.61	123	944.076	944.076
1364.11	122.5	963.592	963.592
1364.61	122	943.92	943.92
1365.11	121.5	895.43	895.43
1365.61	121	844.43	844.43
1366.11	120.5	786.377	786.377
1366.61	120	729.21	729.21
1367.11	119.5	714.807	714.807
1367.61	119	689.219	689.219
1368.11	118.5	691.338	691.338
1368.61	118	676.976	676.976
1369.11	117.5	680.782	680.782
1369.61	117	675.859	675.859
1370.11	116.5	662.432	662.432
1370.61	116	657.208	657.208
1371.11	115.5	652.841	652.841
1371.61	115	656.277	656.277
1372.11	114.5	651.213	651.213
1372.61	114	642.184	642.184
1373.11	113.5	654.165	654.165
1373.61	113	645.873	645.873
1374.11	112.5	643.09	643.09
1374.61	112	633.225	633.225
1375.11	111.5	632.944	632.944
1375.61	111	630.251	630.251
1376.11	110.5	634.957	634.957
1376.61	110	631.064	631.064
1377.11	109.5	641.401	641.401
1377.61	109	645.16	645.16
1378.11	108.5	639.846	639.846
1378.61	108	639.046	639.046
1379.11	107.5	650.599	650.599
1379.61	107	644.211	644.211
1380.11	106.5	645.569	645.569
1380.61	106	632.289	632.289
1381.11	105.5	647.116	647.116
1381.61	105	638.539	638.539
1382.11	104.5	629.125	629.125
1382.61	104	635.338	635.338
1383.11	103.5	638.695	638.695
1383.61	103	635.102	635.102
1384.11	102.5	629.559	629.559
1384.61	102	639.493	639.493
1385.11	101.5	645.896	645.896
1385.61	101	627.131	627.131
1386.11	100.5	634.481	634.481
1386.61	100	647.962	647.962
1387.11	99.5	648.746	648.746
1387.61	99	648.286	648.286
1388.11	98.5	645.476	645.476
1388.61	98	642.486	642.486
1389.11	97.5	648.45	648.45
1389.61	97	652.078	652.078
1390.11	96.5	655.485	655.485
1390.61	96	657.784	657.784
1391.11	95.5	656.852	656.852
1391.61	95	652.239	652.239
1392.11	94.5	659.162	659.162
1392.61	94	641.2	641.2
1393.11	93.5	638.041	638.041
1393.61	93	629.374	629.374
1394.11	92.5	610.44	610.44
1394.61	92	612.788	612.788
1395.11	91.5	586.663	586.663
1395.61	91	587.789	587.789
1396.11	90.5	575.036	575.036
1396.61	90	558.733	558.733
1397.11	89.5	549.076	549.076
1397.61	89	530.539	530.539
1398.11	88.5	523.977	523.977
1398.61	88	509.724	509.724
1399.11	87.5	511.774	511.774
1399.61	87	506.438	506.438
1400.11	86.5	505.192	505.192
1400.61	86	502.073	502.073
1401.11	85.5	505.967	505.967
1401.61	85	500.753	500.753
1402.11	84.5	503.984	503.984
1402.61	84	490.548	490.548
1403.11	83.5	491.232	491.232
1403.61	83	489.004	489.004
1404.11	82.5	487.21	487.21
1404.61	82	480.752	480.752
1405.11	81.5	478.776	478.776
1405.61	81	477.924	477.924
1406.11	80.5	500.81	500.81
1406.61	80	537.811	537.811
1407.11	79.5	584.023	584.023
1407.61	79	646.922	646.922
1408.11	78.5	718.857	718.857
1408.61	78	803.422	803.422
1409.11	77.5	886.179	886.179
1409.61	77	944.262	944.262
1410.11	76.5	981.278	981.278
1410.61	76	1013.87	1013.87
1411.11	75.5	1037.18	1037.18
1411.61	75	1023.78	1023.78
1412.11	74.5	937.053	937.053
1412.61	74	785.748	785.748
1413.11	73.5	629.597	629.597
1413.61	73	493.306	493.306
1414.11	72.5	405.832	405.832
1414.61	72	350.411	350.411
1415.11	71.5	312.023	312.023
1415.61	71	289.971	289.971
1416.11	70.5	276.703	276.703
1416.61	70	254.497	254.497
1417.11	69.5	244.043	244.043
1417.61	69	241.919	241.919
1418.11	68.5	229.779	229.779
1418.61	68	222.543	222.543
1419.11	67.5	225.138	225.138
1419.61	67	218.855	218.855
1420.11	66.5	217.666	217.666
1420.61	66	213.237	213.237
1421.11	65.5	217.999	217.999
1421.61	65	217.495	217.495
1422.11	64.5	213.48	213.48
1422.61	64	205.469	205.469
1423.11	63.5	209.127	209.127
1423.61	63	211.355	211.355
1424.11	62.5	205.378	205.378
1424.61	62	206.997	206.997
1425.11	61.5	209.75	209.75
1425.61	61	203.912	203.912
1426.11	60.5	203.581	203.581
1426.61	60	200.14	200.14
1427.11	59.5	200.388	200.388
1427.61	59	205.962	205.962
1428.11	58.5	205.55	205.55
1428.61	58	208.236	208.236
1429.11	57.5	207.493	207.493
1429.61	57	206.362	206.362
1430.11	56.5	198.619	198.619
1430.61	56	201.108	201.108
1431.11	55.5	206.983	206.983
1431.61	55	204.334	204.334
1432.11	54.5	202.142	202.142
1432.61	54	204.289	204.289
1433.11	53.5	208.494	208.494
1433.61	53	203.198	203.198
1434.11	52.5	200.503	200.503
1434.61	52	197.693	197.693
1435.11	51.5	206.082	206.082
1435.61	51	198.155	198.155
1436.11	50.5	199.097	199.097
1436.61	50	201.529	201.529
1437.11	49.5	204.41	204.41
1437.61	49	204.778	204.778
1438.11	48.5	207.645	207.645
1438.61	48	205.666	205.666
1439.11	47.5	198.228	198.228
1439.61	47	200.75	200.75
1440.11	46.5	200.45	200.45
1440.61	46	204.092	204.092
1441.11	45.5	207.246	207.246
1441.61	45	209.073	209.073