C:\Users\Mark\ownCloud\Muelheim Group\Projects\Gas phase background\EX321_CEC356_Au Ag and Cu in O2.vms
Pr:Survey
	Characteristic Energy eV	1486.61	Acquisition Time s	1
KE_Pr:Survey	BE_Pr:Survey	CPS_Pr:Survey	Background_Pr:Survey
985.11	501.5	1738.13	1738.13
985.61	501	1747.57	1747.57
986.11	500.5	1746.27	1746.27
986.61	500	1743.74	1743.74
987.11	499.5	1752.56	1752.56
987.61	499	1743.9	1743.9
988.11	498.5	1753.96	1753.96
988.61	498	1759.71	1759.71
989.11	497.5	1759.73	1759.73
989.61	497	1770.45	1770.45
990.11	496.5	1782.8	1782.8
990.61	496	1782.36	1782.36
991.11	495.5	1761.5	1761.5
991.61	495	1742.42	1742.42
992.11	494.5	1762.27	1762.27
992.61	494	1767.52	1767.52
993.11	493.5	1767.76	1767.76
993.61	493	1773.97	1773.97
994.11	492.5	1774.83	1774.83
994.61	492	1783.33	1783.33
995.11	491.5	1795.11	1795.11
995.61	491	1786.42	1786.42
996.11	490.5	1785.51	1785.51
996.61	490	1787.22	1787.22
997.11	489.5	1783.49	1783.49
997.61	489	1797.48	1797.48
998.11	488.5	1805.63	1805.63
998.61	488	1789.64	1789.64
999.11	487.5	1788.18	1788.18
999.61	487	1802.64	1802.64
1000.11	486.5	1797.96	1797.96
1000.61	486	1797.75	1797.75
1001.11	485.5	1799.97	1799.97
1001.61	485	1807.69	1807.69
1002.11	484.5	1827.05	1827.05
1002.61	484	1804.8	1804.8
1003.11	483.5	1795.93	1795.93
1003.61	483	1787.46	1787.46
1004.11	482.5	1811.19	1811.19
1004.61	482	1803.43	1803.43
1005.11	481.5	1811.97	1811.97
1005.61	481	1803.2	1803.2
1006.11	480.5	1805.75	1805.75
1006.61	480	1796.09	1796.09
1007.11	479.5	1827.19	1827.19
1007.61	479	1816.23	1816.23
1008.11	478.5	1781.98	1781.98
1008.61	478	1790.46	1790.46
1009.11	477.5	1795.03	1795.03
1009.61	477	1791.86	1791.86
1010.11	476.5	1795.67	1795.67
1010.61	476	1796.26	1796.26
1011.11	475.5	1799.46	1799.46
1011.61	475	1806.53	1806.53
1012.11	474.5	1795.95	1795.95
1012.61	474	1789.55	1789.55
1013.11	473.5	1800.26	1800.26
1013.61	473	1775.01	1775.01
1014.11	472.5	1799.07	1799.07
1014.61	472	1807.31	1807.31
1015.11	471.5	1801.86	1801.86
1015.61	471	1803.43	1803.43
1016.11	470.5	1791.75	1791.75
1016.61	470	1792.47	1792.47
1017.11	469.5	1787.35	1787.35
1017.61	469	1801.65	1801.65
1018.11	468.5	1801.97	1801.97
1018.61	468	1819.9	1819.9
1019.11	467.5	1785.98	1785.98
1019.61	467	1805.89	1805.89
1020.11	466.5	1818.28	1818.28
1020.61	466	1801.01	1801.01
1021.11	465.5	1796.45	1796.45
1021.61	465	1789.36	1789.36
1022.11	464.5	1818.82	1818.82
1022.61	464	1826.46	1826.46
1023.11	463.5	1792.45	1792.45
1023.61	463	1813.03	1813.03
1024.11	462.5	1824.17	1824.17
1024.61	462	1810.42	1810.42
1025.11	461.5	1814.63	1814.63
1025.61	461	1815.12	1815.12
1026.11	460.5	1812	1812
1026.61	460	1819.15	1819.15
1027.11	459.5	1837.98	1837.98
1027.61	459	1834.54	1834.54
1028.11	458.5	1843.25	1843.25
1028.61	458	1823.73	1823.73
1029.11	457.5	1823	1823
1029.61	457	1853.51	1853.51
1030.11	456.5	1837.51	1837.51
1030.61	456	1830.56	1830.56
1031.11	455.5	1811.46	1811.46
1031.61	455	1836.3	1836.3
1032.11	454.5	1850.4	1850.4
1032.61	454	1838.95	1838.95
1033.11	453.5	1844.23	1844.23
1033.61	453	1843.65	1843.65
1034.11	452.5	1853.12	1853.12
1034.61	452	1842.32	1842.32
1035.11	451.5	1853.44	1853.44
1035.61	451	1861.91	1861.91
1036.11	450.5	1855.94	1855.94
1036.61	450	1854.31	1854.31
1037.11	449.5	1870.29	1870.29
1037.61	449	1863.29	1863.29
1038.11	448.5	1858.14	1858.14
1038.61	448	1846.93	1846.93
1039.11	447.5	1862.68	1862.68
1039.61	447	1870.36	1870.36
1040.11	446.5	1860.55	1860.55
1040.61	446	1898	1898
1041.11	445.5	1867.46	1867.46
1041.61	445	1859.78	1859.78
1042.11	444.5	1863.8	1863.8
1042.61	444	1901.69	1901.69
1043.11	443.5	1888.75	1888.75
1043.61	443	1879	1879
1044.11	442.5	1857.91	1857.91
1044.61	442	1872.02	1872.02
1045.11	441.5	1875.05	1875.05
1045.61	441	1867.07	1867.07
1046.11	440.5	1890.19	1890.19
1046.61	440	1891.84	1891.84
1047.11	439.5	1874.26	1874.26
1047.61	439	1887.39	1887.39
1048.11	438.5	1892.21	1892.21
1048.61	438	1905.16	1905.16
1049.11	437.5	1903.09	1903.09
1049.61	437	1906.26	1906.26
1050.11	436.5	1909.21	1909.21
1050.61	436	1915.31	1915.31
1051.11	435.5	1902.97	1902.97
1051.61	435	1884.98	1884.98
1052.11	434.5	1907.56	1907.56
1052.61	434	1907.62	1907.62
1053.11	433.5	1914.81	1914.81
1053.61	433	1924.69	1924.69
1054.11	432.5	1924.51	1924.51
1054.61	432	1925.64	1925.64
1055.11	431.5	1932.8	1932.8
1055.61	431	1933.94	1933.94
1056.11	430.5	1928.01	1928.01
1056.61	430	1917.99	1917.99
1057.11	429.5	1942.27	1942.27
1057.61	429	1934.55	1934.55
1058.11	428.5	1925.82	1925.82
1058.61	428	1922.15	1922.15
1059.11	427.5	1931.41	1931.41
1059.61	427	1930.58	1930.58
1060.11	426.5	1930.99	1930.99
1060.61	426	1934.69	1934.69
1061.11	425.5	1938.73	1938.73
1061.61	425	1954.71	1954.71
1062.11	424.5	1941.32	1941.32
1062.61	424	1964.3	1964.3
1063.11	423.5	1969.04	1969.04
1063.61	423	1973.78	1973.78
1064.11	422.5	1970.04	1970.04
1064.61	422	1957	1957
1065.11	421.5	1969.43	1969.43
1065.61	421	1958.09	1958.09
1066.11	420.5	1954.63	1954.63
1066.61	420	1972.8	1972.8
1067.11	419.5	1956.79	1956.79
1067.61	419	1961.41	1961.41
1068.11	418.5	1971.19	1971.19
1068.61	418	1984.85	1984.85
1069.11	417.5	1989.57	1989.57
1069.61	417	1987.82	1987.82
1070.11	416.5	1971.37	1971.37
1070.61	416	1991.48	1991.48
1071.11	415.5	1984.55	1984.55
1071.61	415	1967.53	1967.53
1072.11	414.5	1987.56	1987.56
1072.61	414	2012.33	2012.33
1073.11	413.5	2007.5	2007.5
1073.61	413	2012.4	2012.4
1074.11	412.5	2019.81	2019.81
1074.61	412	1986.27	1986.27
1075.11	411.5	2001.91	2001.91
1075.61	411	2005.46	2005.46
1076.11	410.5	2006.54	2006.54
1076.61	410	2010.14	2010.14
1077.11	409.5	2018.72	2018.72
1077.61	409	2032.13	2032.13
1078.11	408.5	2023.96	2023.96
1078.61	408	2033.34	2033.34
1079.11	407.5	2037.06	2037.06
1079.61	407	2038.07	2038.07
1080.11	406.5	2073.57	2073.57
1080.61	406	2050.53	2050.53
1081.11	405.5	2028.34	2028.34
1081.61	405	2050.89	2050.89
1082.11	404.5	2035.39	2035.39
1082.61	404	2042.37	2042.37
1083.11	403.5	2049.33	2049.33
1083.61	403	2064.35	2064.35
1084.11	402.5	2049.07	2049.07
1084.61	402	2035.92	2035.92
1085.11	401.5	2013.65	2013.65
1085.61	401	2028.04	2028.04
1086.11	400.5	2019.75	2019.75
1086.61	400	2019.64	2019.64
1087.11	399.5	2038.76	2038.76
1087.61	399	2018.73	2018.73
1088.11	398.5	2028.63	2028.63
1088.61	398	2028.93	2028.93
1089.11	397.5	2026.99	2026.99
1089.61	397	2005.94	2005.94
1090.11	396.5	2006.5	2006.5
1090.61	396	2016.72	2016.72
1091.11	395.5	2013.34	2013.34
1091.61	395	2006.15	2006.15
1092.11	394.5	1993.79	1993.79
1092.61	394	1995.53	1995.53
1093.11	393.5	1998.4	1998.4
1093.61	393	1995.81	1995.81
1094.11	392.5	1985.55	1985.55
1094.61	392	2003.87	2003.87
1095.11	391.5	1993.66	1993.66
1095.61	391	1977.56	1977.56
1096.11	390.5	1987.98	1987.98
1096.61	390	1997.82	1997.82
1097.11	389.5	1959.78	1959.78
1097.61	389	1995.97	1995.97
1098.11	388.5	1984.55	1984.55
1098.61	388	2001.43	2001.43
1099.11	387.5	2002.59	2002.59
1099.61	387	2011.51	2011.51
1100.11	386.5	2005.72	2005.72
1100.61	386	1993.59	1993.59
1101.11	385.5	2007.05	2007.05
1101.61	385	2030.19	2030.19
1102.11	384.5	2020.55	2020.55
1102.61	384	1991.3	1991.3
1103.11	383.5	2002.95	2002.95
1103.61	383	2015.09	2015.09
1104.11	382.5	1996.99	1996.99
1104.61	382	2002.48	2002.48
1105.11	381.5	2024.02	2024.02
1105.61	381	2014.65	2014.65
1106.11	380.5	2020.18	2020.18
1106.61	380	2031.57	2031.57
1107.11	379.5	2028.34	2028.34
1107.61	379	2035.33	2035.33
1108.11	378.5	2024.89	2024.89
1108.61	378	2009.31	2009.31
1109.11	377.5	2017.3	2017.3
1109.61	377	2036.5	2036.5
1110.11	376.5	2027.34	2027.34
1110.61	376	2043.7	2043.7
1111.11	375.5	2052.69	2052.69
1111.61	375	2049.73	2049.73
1112.11	374.5	2033.12	2033.12
1112.61	374	2028.66	2028.66
1113.11	373.5	2037.16	2037.16
1113.61	373	2038.28	2038.28
1114.11	372.5	2056.13	2056.13
1114.61	372	2025.83	2025.83
1115.11	371.5	2043.59	2043.59
1115.61	371	2060.23	2060.23
1116.11	370.5	2046.5	2046.5
1116.61	370	2056.93	2056.93
1117.11	369.5	2056.82	2056.82
1117.61	369	2036.75	2036.75
1118.11	368.5	2061.7	2061.7
1118.61	368	2080.58	2080.58
1119.11	367.5	2064.52	2064.52
1119.61	367	2065.01	2065.01
1120.11	366.5	2052.28	2052.28
1120.61	366	2050.66	2050.66
1121.11	365.5	2052.05	2052.05
1121.61	365	2064.64	2064.64
1122.11	364.5	2071.88	2071.88
1122.61	364	2072.44	2072.44
1123.11	363.5	2078.95	2078.95
1123.61	363	2071.39	2071.39
1124.11	362.5	2060.46	2060.46
1124.61	362	2068.11	2068.11
1125.11	361.5	2056.62	2056.62
1125.61	361	2078.41	2078.41
1126.11	360.5	2089.75	2089.75
1126.61	360	2076.82	2076.82
1127.11	359.5	2080.23	2080.23
1127.61	359	2103.11	2103.11
1128.11	358.5	2089.09	2089.09
1128.61	358	2094.1	2094.1
1129.11	357.5	2105.66	2105.66
1129.61	357	2101.52	2101.52
1130.11	356.5	2095.59	2095.59
1130.61	356	2098.92	2098.92
1131.11	355.5	2109.38	2109.38
1131.61	355	2097.4	2097.4
1132.11	354.5	2136.42	2136.42
1132.61	354	2096.11	2096.11
1133.11	353.5	2089.21	2089.21
1133.61	353	2111.63	2111.63
1134.11	352.5	2120.95	2120.95
1134.61	352	2142.35	2142.35
1135.11	351.5	2127.21	2127.21
1135.61	351	2139.06	2139.06
1136.11	350.5	2135.28	2135.28
1136.61	350	2126.44	2126.44
1137.11	349.5	2131.24	2131.24
1137.61	349	2135.53	2135.53
1138.11	348.5	2137.44	2137.44
1138.61	348	2134.88	2134.88
1139.11	347.5	2129.08	2129.08
1139.61	347	2138.76	2138.76
1140.11	346.5	2139.87	2139.87
1140.61	346	2136.27	2136.27
1141.11	345.5	2133.47	2133.47
1141.61	345	2120.35	2120.35
1142.11	344.5	2142.06	2142.06
1142.61	344	2131.98	2131.98
1143.11	343.5	2141.26	2141.26
1143.61	343	2152.25	2152.25
1144.11	342.5	2136.77	2136.77
1144.61	342	2157.66	2157.66
1145.11	341.5	2177.63	2177.63
1145.61	341	2160.92	2160.92
1146.11	340.5	2142.46	2142.46
1146.61	340	2161.6	2161.6
1147.11	339.5	2153.96	2153.96
1147.61	339	2137.51	2137.51
1148.11	338.5	2150.12	2150.12
1148.61	338	2158.24	2158.24
1149.11	337.5	2158.29	2158.29
1149.61	337	2164.72	2164.72
1150.11	336.5	2175.94	2175.94
1150.61	336	2156.46	2156.46
1151.11	335.5	2164.02	2164.02
1151.61	335	2182.78	2182.78
1152.11	334.5	2180.26	2180.26
1152.61	334	2178.02	2178.02
1153.11	333.5	2162.1	2162.1
1153.61	333	2158.98	2158.98
1154.11	332.5	2169.82	2169.82
1154.61	332	2182.02	2182.02
1155.11	331.5	2175.67	2175.67
1155.61	331	2201.61	2201.61
1156.11	330.5	2216.47	2216.47
1156.61	330	2199.04	2199.04
1157.11	329.5	2207.12	2207.12
1157.61	329	2193.26	2193.26
1158.11	328.5	2184.17	2184.17
1158.61	328	2208.53	2208.53
1159.11	327.5	2204.66	2204.66
1159.61	327	2206.32	2206.32
1160.11	326.5	2223.85	2223.85
1160.61	326	2215.61	2215.61
1161.11	325.5	2190.79	2190.79
1161.61	325	2199.12	2199.12
1162.11	324.5	2229.56	2229.56
1162.61	324	2235.44	2235.44
1163.11	323.5	2217.22	2217.22
1163.61	323	2204.46	2204.46
1164.11	322.5	2227.72	2227.72
1164.61	322	2243.75	2243.75
1165.11	321.5	2257.38	2257.38
1165.61	321	2261.87	2261.87
1166.11	320.5	2272.28	2272.28
1166.61	320	2276.18	2276.18
1167.11	319.5	2295	2295
1167.61	319	2324.86	2324.86
1168.11	318.5	2294.29	2294.29
1168.61	318	2292.4	2292.4
1169.11	317.5	2273.57	2273.57
1169.61	317	2246.4	2246.4
1170.11	316.5	2239.57	2239.57
1170.61	316	2264.36	2264.36
1171.11	315.5	2256.79	2256.79
1171.61	315	2281	2281
1172.11	314.5	2277.03	2277.03
1172.61	314	2264.1	2264.1
1173.11	313.5	2239.42	2239.42
1173.61	313	2251.08	2251.08
1174.11	312.5	2264.28	2264.28
1174.61	312	2257.61	2257.61
1175.11	311.5	2283.77	2283.77
1175.61	311	2267.55	2267.55
1176.11	310.5	2290.02	2290.02
1176.61	310	2287.63	2287.63
1177.11	309.5	2293.39	2293.39
1177.61	309	2260.95	2260.95
1178.11	308.5	2254.43	2254.43
1178.61	308	2262.1	2262.1
1179.11	307.5	2273.39	2273.39
1179.61	307	2273.89	2273.89
1180.11	306.5	2276.88	2276.88
1180.61	306	2289.73	2289.73
1181.11	305.5	2303.23	2303.23
1181.61	305	2288.12	2288.12
1182.11	304.5	2273.97	2273.97
1182.61	304	2308.4	2308.4
1183.11	303.5	2286.86	2286.86
1183.61	303	2287.81	2287.81
1184.11	302.5	2300.9	2300.9
1184.61	302	2304.8	2304.8
1185.11	301.5	2303.52	2303.52
1185.61	301	2289.93	2289.93
1186.11	300.5	2284.52	2284.52
1186.61	300	2297.23	2297.23
1187.11	299.5	2314.6	2314.6
1187.61	299	2304.56	2304.56
1188.11	298.5	2303.78	2303.78
1188.61	298	2305.6	2305.6
1189.11	297.5	2305.53	2305.53
1189.61	297	2314.33	2314.33
1190.11	296.5	2308.36	2308.36
1190.61	296	2306.25	2306.25
1191.11	295.5	2316.53	2316.53
1191.61	295	2327.84	2327.84
1192.11	294.5	2337.56	2337.56
1192.61	294	2340.32	2340.32
1193.11	293.5	2332.61	2332.61
1193.61	293	2327.34	2327.34
1194.11	292.5	2353.63	2353.63
1194.61	292	2347.29	2347.29
1195.11	291.5	2365.99	2365.99
1195.61	291	2354.01	2354.01
1196.11	290.5	2386.84	2386.84
1196.61	290	2417.16	2417.16
1197.11	289.5	2470.39	2470.39
1197.61	289	2567.11	2567.11
1198.11	288.5	2639.77	2639.77
1198.61	288	2691.46	2691.46
1199.11	287.5	2636.34	2636.34
1199.61	287	2572.62	2572.62
1200.11	286.5	2557.04	2557.04
1200.61	286	2625.26	2625.26
1201.11	285.5	2698.38	2698.38
1201.61	285	2755.66	2755.66
1202.11	284.5	2762.16	2762.16
1202.61	284	2688.29	2688.29
1203.11	283.5	2556.55	2556.55
1203.61	283	2425.74	2425.74
1204.11	282.5	2368.06	2368.06
1204.61	282	2336.59	2336.59
1205.11	281.5	2330.09	2330.09
1205.61	281	2337.89	2337.89
1206.11	280.5	2363.61	2363.61
1206.61	280	2370.01	2370.01
1207.11	279.5	2320.11	2320.11
1207.61	279	2325.59	2325.59
1208.11	278.5	2339.12	2339.12
1208.61	278	2361.62	2361.62
1209.11	277.5	2347.07	2347.07
1209.61	277	2379.4	2379.4
1210.11	276.5	2380.9	2380.9
1210.61	276	2363.71	2363.71
1211.11	275.5	2350.63	2350.63
1211.61	275	2372.48	2372.48
1212.11	274.5	2360.82	2360.82
1212.61	274	2363.3	2363.3
1213.11	273.5	2357.45	2357.45
1213.61	273	2343.37	2343.37
1214.11	272.5	2339.72	2339.72
1214.61	272	2370.78	2370.78
1215.11	271.5	2382.4	2382.4
1215.61	271	2361.71	2361.71
1216.11	270.5	2375.22	2375.22
1216.61	270	2380	2380
1217.11	269.5	2362.86	2362.86
1217.61	269	2382.37	2382.37
1218.11	268.5	2399.72	2399.72
1218.61	268	2404.37	2404.37
1219.11	267.5	2415.3	2415.3
1219.61	267	2376.15	2376.15
1220.11	266.5	2385.44	2385.44
1220.61	266	2372.71	2372.71
1221.11	265.5	2402.24	2402.24
1221.61	265	2403.85	2403.85
1222.11	264.5	2408.28	2408.28
1222.61	264	2386.74	2386.74
1223.11	263.5	2383.69	2383.69
1223.61	263	2409.46	2409.46
1224.11	262.5	2416.08	2416.08
1224.61	262	2430.97	2430.97
1225.11	261.5	2410.4	2410.4
1225.61	261	2406.4	2406.4
1226.11	260.5	2370.68	2370.68
1226.61	260	2393.89	2393.89
1227.11	259.5	2404.2	2404.2
1227.61	259	2419.36	2419.36
1228.11	258.5	2407.38	2407.38
1228.61	258	2421.9	2421.9
1229.11	257.5	2441.29	2441.29
1229.61	257	2412.88	2412.88
1230.11	256.5	2394.48	2394.48
1230.61	256	2426.44	2426.44
1231.11	255.5	2431.03	2431.03
1231.61	255	2437.69	2437.69
1232.11	254.5	2444.6	2444.6
1232.61	254	2451.03	2451.03
1233.11	253.5	2462.94	2462.94
1233.61	253	2439.75	2439.75
1234.11	252.5	2433.22	2433.22
1234.61	252	2431.54	2431.54
1235.11	251.5	2436.73	2436.73
1235.61	251	2425.1	2425.1
1236.11	250.5	2456.1	2456.1
1236.61	250	2449.5	2449.5
1237.11	249.5	2454.37	2454.37
1237.61	249	2476.87	2476.87
1238.11	248.5	2458.29	2458.29
1238.61	248	2470.01	2470.01
1239.11	247.5	2440.64	2440.64
1239.61	247	2451.93	2451.93
1240.11	246.5	2464.6	2464.6
1240.61	246	2480.23	2480.23
1241.11	245.5	2509.92	2509.92
1241.61	245	2511.3	2511.3
1242.11	244.5	2520.63	2520.63
1242.61	244	2570.64	2570.64
1243.11	243.5	2582.16	2582.16
1243.61	243	2613.56	2613.56
1244.11	242.5	2605.28	2605.28
1244.61	242	2633.28	2633.28
1245.11	241.5	2634.96	2634.96
1245.61	241	2612.3	2612.3
1246.11	240.5	2563.96	2563.96
1246.61	240	2497.36	2497.36
1247.11	239.5	2475.75	2475.75
1247.61	239	2482.35	2482.35
1248.11	238.5	2473.72	2473.72
1248.61	238	2471.25	2471.25
1249.11	237.5	2487.78	2487.78
1249.61	237	2502.24	2502.24
1250.11	236.5	2478.13	2478.13
1250.61	236	2509.38	2509.38
1251.11	235.5	2485.98	2485.98
1251.61	235	2482.66	2482.66
1252.11	234.5	2495.3	2495.3
1252.61	234	2525.9	2525.9
1253.11	233.5	2520.85	2520.85
1253.61	233	2535.28	2535.28
1254.11	232.5	2532.91	2532.91
1254.61	232	2541.83	2541.83
1255.11	231.5	2553.3	2553.3
1255.61	231	2518.85	2518.85
1256.11	230.5	2524.17	2524.17
1256.61	230	2534.68	2534.68
1257.11	229.5	2527.83	2527.83
1257.61	229	2527.58	2527.58
1258.11	228.5	2522.36	2522.36
1258.61	228	2535.11	2535.11
1259.11	227.5	2556.45	2556.45
1259.61	227	2535.4	2535.4
1260.11	226.5	2552.34	2552.34
1260.61	226	2543.31	2543.31
1261.11	225.5	2550.02	2550.02
1261.61	225	2554.45	2554.45
1262.11	224.5	2564.96	2564.96
1262.61	224	2556.48	2556.48
1263.11	223.5	2581.83	2581.83
1263.61	223	2567.66	2567.66
1264.11	222.5	2564.6	2564.6
1264.61	222	2593.54	2593.54
1265.11	221.5	2584.15	2584.15
1265.61	221	2575.77	2575.77
1266.11	220.5	2578.63	2578.63
1266.61	220	2614.79	2614.79
1267.11	219.5	2586.44	2586.44
1267.61	219	2568.22	2568.22
1268.11	218.5	2574.08	2574.08
1268.61	218	2578.61	2578.61
1269.11	217.5	2596.13	2596.13
1269.61	217	2608.89	2608.89
1270.11	216.5	2600.43	2600.43
1270.61	216	2610.98	2610.98
1271.11	215.5	2614.57	2614.57
1271.61	215	2622.4	2622.4
1272.11	214.5	2602.62	2602.62
1272.61	214	2622.17	2622.17
1273.11	213.5	2611.21	2611.21
1273.61	213	2592.34	2592.34
1274.11	212.5	2602.88	2602.88
1274.61	212	2614.02	2614.02
1275.11	211.5	2617.07	2617.07
1275.61	211	2634.94	2634.94
1276.11	210.5	2641.2	2641.2
1276.61	210	2637.99	2637.99
1277.11	209.5	2649.86	2649.86
1277.61	209	2659.58	2659.58
1278.11	208.5	2665.14	2665.14
1278.61	208	2661.92	2661.92
1279.11	207.5	2640	2640
1279.61	207	2643.71	2643.71
1280.11	206.5	2674.02	2674.02
1280.61	206	2660.1	2660.1
1281.11	205.5	2648.72	2648.72
1281.61	205	2669.17	2669.17
1282.11	204.5	2667.23	2667.23
1282.61	204	2669.91	2669.91
1283.11	203.5	2690.36	2690.36
1283.61	203	2688.29	2688.29
1284.11	202.5	2711.71	2711.71
1284.61	202	2678.95	2678.95
1285.11	201.5	2712.57	2712.57
1285.61	201	2710.86	2710.86
1286.11	200.5	2725.8	2725.8
1286.61	200	2716.87	2716.87
1287.11	199.5	2708.05	2708.05
1287.61	199	2710.09	2710.09
1288.11	198.5	2714.05	2714.05
1288.61	198	2698.92	2698.92
1289.11	197.5	2707.69	2707.69
1289.61	197	2730.96	2730.96
1290.11	196.5	2725.75	2725.75
1290.61	196	2720.44	2720.44
1291.11	195.5	2749.59	2749.59
1291.61	195	2755.28	2755.28
1292.11	194.5	2757.8	2757.8
1292.61	194	2749.64	2749.64
1293.11	193.5	2751.66	2751.66
1293.61	193	2754.28	2754.28
1294.11	192.5	2778.61	2778.61
1294.61	192	2760.8	2760.8
1295.11	191.5	2801.53	2801.53
1295.61	191	2792.76	2792.76
1296.11	190.5	2760.45	2760.45
1296.61	190	2744.92	2744.92
1297.11	189.5	2789.33	2789.33
1297.61	189	2789.74	2789.74
1298.11	188.5	2778.94	2778.94
1298.61	188	2801.58	2801.58
1299.11	187.5	2813.25	2813.25
1299.61	187	2792.05	2792.05
1300.11	186.5	2815.57	2815.57
1300.61	186	2798.15	2798.15
1301.11	185.5	2827.49	2827.49
1301.61	185	2819.18	2819.18
1302.11	184.5	2820.7	2820.7
1302.61	184	2834.76	2834.76
1303.11	183.5	2863.56	2863.56
1303.61	183	2857.87	2857.87
1304.11	182.5	2860.26	2860.26
1304.61	182	2852.46	2852.46
1305.11	181.5	2863.35	2863.35
1305.61	181	2892.39	2892.39
1306.11	180.5	2887.57	2887.57
1306.61	180	2884.15	2884.15
1307.11	179.5	2891.34	2891.34
1307.61	179	2874.44	2874.44
1308.11	178.5	2907.42	2907.42
1308.61	178	2878.8	2878.8
1309.11	177.5	2886.59	2886.59
1309.61	177	2902.67	2902.67
1310.11	176.5	2887.1	2887.1
1310.61	176	2911.4	2911.4
1311.11	175.5	2924.07	2924.07
1311.61	175	2915.98	2915.98
1312.11	174.5	2969.64	2969.64
1312.61	174	2963.7	2963.7
1313.11	173.5	2932.97	2932.97
1313.61	173	2961.18	2961.18
1314.11	172.5	2961.85	2961.85
1314.61	172	2952.47	2952.47
1315.11	171.5	2993.12	2993.12
1315.61	171	3003.48	3003.48
1316.11	170.5	2993.1	2993.1
1316.61	170	2999.01	2999.01
1317.11	169.5	3024.93	3024.93
1317.61	169	3049.55	3049.55
1318.11	168.5	3039.19	3039.19
1318.61	168	3085.21	3085.21
1319.11	167.5	3060.61	3060.61
1319.61	167	3034.09	3034.09
1320.11	166.5	3043.49	3043.49
1320.61	166	3064.11	3064.11
1321.11	165.5	3051.26	3051.26
1321.61	165	3059.82	3059.82
1322.11	164.5	3059.12	3059.12
1322.61	164	3079.48	3079.48
1323.11	163.5	3108.97	3108.97
1323.61	163	3102.43	3102.43
1324.11	162.5	3095.92	3095.92
1324.61	162	3089.79	3089.79
1325.11	161.5	3098.11	3098.11
1325.61	161	3113.82	3113.82
1326.11	160.5	3120.24	3120.24
1326.61	160	3102.81	3102.81
1327.11	159.5	3101.82	3101.82
1327.61	159	3088.41	3088.41
1328.11	158.5	3099.02	3099.02
1328.61	158	3121	3121
1329.11	157.5	3156.5	3156.5
1329.61	157	3161.85	3161.85
1330.11	156.5	3146.83	3146.83
1330.61	156	3163.85	3163.85
1331.11	155.5	3160.19	3160.19
1331.61	155	3179.1	3179.1
1332.11	154.5	3195.64	3195.64
1332.61	154	3224.26	3224.26
1333.11	153.5	3214.87	3214.87
1333.61	153	3238.48	3238.48
1334.11	152.5	3227.19	3227.19
1334.61	152	3215.49	3215.49
1335.11	151.5	3230.03	3230.03
1335.61	151	3275.63	3275.63
1336.11	150.5	3248.7	3248.7
1336.61	150	3253.45	3253.45
1337.11	149.5	3285.98	3285.98
1337.61	149	3272.02	3272.02
1338.11	148.5	3276.29	3276.29
1338.61	148	3290.71	3290.71
1339.11	147.5	3289.05	3289.05
1339.61	147	3294.55	3294.55
1340.11	146.5	3309.82	3309.82
1340.61	146	3335.19	3335.19
1341.11	145.5	3352.8	3352.8
1341.61	145	3348.23	3348.23
1342.11	144.5	3346.46	3346.46
1342.61	144	3371.35	3371.35
1343.11	143.5	3399.53	3399.53
1343.61	143	3389.22	3389.22
1344.11	142.5	3416.03	3416.03
1344.61	142	3400.12	3400.12
1345.11	141.5	3406.51	3406.51
1345.61	141	3425.98	3425.98
1346.11	140.5	3439.27	3439.27
1346.61	140	3446.89	3446.89
1347.11	139.5	3466.25	3466.25
1347.61	139	3489.4	3489.4
1348.11	138.5	3450.63	3450.63
1348.61	138	3490.84	3490.84
1349.11	137.5	3474.31	3474.31
1349.61	137	3487.12	3487.12
1350.11	136.5	3497.28	3497.28
1350.61	136	3536.23	3536.23
1351.11	135.5	3549.1	3549.1
1351.61	135	3547.91	3547.91
1352.11	134.5	3569.59	3569.59
1352.61	134	3539.23	3539.23
1353.11	133.5	3558.59	3558.59
1353.61	133	3596.22	3596.22
1354.11	132.5	3599.68	3599.68
1354.61	132	3601.93	3601.93
1355.11	131.5	3611.52	3611.52
1355.61	131	3599.25	3599.25
1356.11	130.5	3603.84	3603.84
1356.61	130	3624.5	3624.5
1357.11	129.5	3649.22	3649.22
1357.61	129	3638.57	3638.57
1358.11	128.5	3629.63	3629.63
1358.61	128	3691.09	3691.09
1359.11	127.5	3748.28	3748.28
1359.61	127	3760.17	3760.17
1360.11	126.5	3903.43	3903.43
1360.61	126	4028.44	4028.44
1361.11	125.5	4207.09	4207.09
1361.61	125	4509.66	4509.66
1362.11	124.5	4853.07	4853.07
1362.61	124	5388.36	5388.36
1363.11	123.5	5973.39	5973.39
1363.61	123	6435.5	6435.5
1364.11	122.5	6699.17	6699.17
1364.61	122	6477.53	6477.53
1365.11	121.5	5887.68	5887.68
1365.61	121	5148.56	5148.56
1366.11	120.5	4469.85	4469.85
1366.61	120	3964.2	3964.2
1367.11	119.5	3645.19	3645.19
1367.61	119	3440.37	3440.37
1368.11	118.5	3314.74	3314.74
1368.61	118	3238.26	3238.26
1369.11	117.5	3163.21	3163.21
1369.61	117	3111.76	3111.76
1370.11	116.5	3069.49	3069.49
1370.61	116	3022.82	3022.82
1371.11	115.5	3038.24	3038.24
1371.61	115	3034.63	3034.63
1372.11	114.5	2997.32	2997.32
1372.61	114	2991.61	2991.61
1373.11	113.5	3007.24	3007.24
1373.61	113	2986.69	2986.69
1374.11	112.5	2998.79	2998.79
1374.61	112	2982.47	2982.47
1375.11	111.5	3008.83	3008.83
1375.61	111	3001.38	3001.38
1376.11	110.5	2992.17	2992.17
1376.61	110	3014.1	3014.1
1377.11	109.5	3052.84	3052.84
1377.61	109	3060.32	3060.32
1378.11	108.5	3046	3046
1378.61	108	3055.18	3055.18
1379.11	107.5	3067.06	3067.06
1379.61	107	3057.5	3057.5
1380.11	106.5	3111.12	3111.12
1380.61	106	3099.08	3099.08
1381.11	105.5	3117.01	3117.01
1381.61	105	3101.08	3101.08
1382.11	104.5	3118.55	3118.55
1382.61	104	3148.58	3148.58
1383.11	103.5	3146.96	3146.96
1383.61	103	3182.99	3182.99
1384.11	102.5	3194.96	3194.96
1384.61	102	3217.81	3217.81
1385.11	101.5	3205.05	3205.05
1385.61	101	3239.68	3239.68
1386.11	100.5	3268.72	3268.72
1386.61	100	3262.91	3262.91
1387.11	99.5	3274.24	3274.24
1387.61	99	3284.91	3284.91
1388.11	98.5	3295.39	3295.39
1388.61	98	3307.27	3307.27
1389.11	97.5	3339.62	3339.62
1389.61	97	3369.05	3369.05
1390.11	96.5	3389.99	3389.99
1390.61	96	3404.62	3404.62
1391.11	95.5	3426.88	3426.88
1391.61	95	3427.4	3427.4
1392.11	94.5	3416.55	3416.55
1392.61	94	3403.14	3403.14
1393.11	93.5	3355.51	3355.51
1393.61	93	3352.08	3352.08
1394.11	92.5	3325.94	3325.94
1394.61	92	3271.06	3271.06
1395.11	91.5	3243.21	3243.21
1395.61	91	3236.69	3236.69
1396.11	90.5	3172.07	3172.07
1396.61	90	3137.17	3137.17
1397.11	89.5	3160.28	3160.28
1397.61	89	3177.18	3177.18
1398.11	88.5	3158.31	3158.31
1398.61	88	3170.41	3170.41
1399.11	87.5	3164.99	3164.99
1399.61	87	3149.08	3149.08
1400.11	86.5	3184.13	3184.13
1400.61	86	3187.81	3187.81
1401.11	85.5	3184.55	3184.55
1401.61	85	3179.79	3179.79
1402.11	84.5	3191.62	3191.62
1402.61	84	3208.73	3208.73
1403.11	83.5	3196.84	3196.84
1403.61	83	3233.78	3233.78
1404.11	82.5	3293.39	3293.39
1404.61	82	3416.72	3416.72
1405.11	81.5	3504.51	3504.51
1405.61	81	3702.91	3702.91
1406.11	80.5	4002.53	4002.53
1406.61	80	4389.96	4389.96
1407.11	79.5	4979.16	4979.16
1407.61	79	5755.31	5755.31
1408.11	78.5	6632.3	6632.3
1408.61	78	7583.93	7583.93
1409.11	77.5	8289	8289
1409.61	77	8849.94	8849.94
1410.11	76.5	9287.1	9287.1
1410.61	76	9651.54	9651.54
1411.11	75.5	9942.47	9942.47
1411.61	75	9638.06	9638.06
1412.11	74.5	8645.26	8645.26
1412.61	74	7062.53	7062.53
1413.11	73.5	5313.27	5313.27
1413.61	73	3915.03	3915.03
1414.11	72.5	2956.53	2956.53
1414.61	72	2361.49	2361.49
1415.11	71.5	1936.24	1936.24
1415.61	71	1666	1666
1416.11	70.5	1471.73	1471.73
1416.61	70	1324.43	1324.43
1417.11	69.5	1214.06	1214.06
1417.61	69	1123.39	1123.39
1418.11	68.5	1048.76	1048.76
1418.61	68	989.493	989.493
1419.11	67.5	953.898	953.898
1419.61	67	920.479	920.479
1420.11	66.5	896.184	896.184
1420.61	66	878.662	878.662
1421.11	65.5	853.168	853.168
1421.61	65	824.526	824.526
1422.11	64.5	813.618	813.618
1422.61	64	807.22	807.22
1423.11	63.5	800.066	800.066
1423.61	63	785.315	785.315
1424.11	62.5	772.863	772.863
1424.61	62	778.159	778.159
1425.11	61.5	764.058	764.058
1425.61	61	752.421	752.421
1426.11	60.5	753.505	753.505
1426.61	60	758.606	758.606
1427.11	59.5	748.957	748.957
1427.61	59	746.263	746.263
1428.11	58.5	731.561	731.561
1428.61	58	739.83	739.83
1429.11	57.5	741.309	741.309
1429.61	57	730.257	730.257
1430.11	56.5	737.572	737.572
1430.61	56	744.942	744.942
1431.11	55.5	732.551	732.551
1431.61	55	726.016	726.016
1432.11	54.5	722.854	722.854
1432.61	54	732.286	732.286
1433.11	53.5	734.326	734.326
1433.61	53	735.559	735.559
1434.11	52.5	725.381	725.381
1434.61	52	727.435	727.435
1435.11	51.5	734.32	734.32
1435.61	51	734.486	734.486
1436.11	50.5	733.574	733.574
1436.61	50	735.007	735.007
1437.11	49.5	726.982	726.982
1437.61	49	735.527	735.527
1438.11	48.5	736.953	736.953
1438.61	48	748.835	748.835
1439.11	47.5	744.51	744.51
1439.61	47	745.164	745.164
1440.11	46.5	744.833	744.833
1440.61	46	746.322	746.322
1441.11	45.5	757.751	757.751
1441.61	45	757.711	757.711