C:\Users\Mark\ownCloud\Muelheim Group\Projects\Gas phase background\EX321_CEC356_Au Ag and Cu in O2.vms
Pr:Ag3d
	Characteristic Energy eV	1486.61	Acquisition Time s	1
KE_Pr:Ag3d	BE_Pr:Ag3d	CPS_Pr:Ag3d
1036.61	450	1001.13
1036.71	449.9	1014.29
1036.81	449.8	999.657
1036.91	449.7	1000.54
1037.01	449.6	1005.02
1037.11	449.5	999.268
1037.21	449.4	1020.24
1037.31	449.3	1005.97
1037.41	449.2	987.004
1037.51	449.1	997.431
1037.61	449	992.67
1037.71	448.9	993.966
1037.81	448.8	1007.76
1037.91	448.7	1010.79
1038.01	448.6	1019.29
1038.11	448.5	1015.82
1038.21	448.4	1011.16
1038.31	448.3	996.525
1038.41	448.2	1007.1
1038.51	448.1	1008.93
1038.61	448	1006.07
1038.71	447.9	1006.53
1038.81	447.8	1032.72
1038.91	447.7	1019.03
1039.01	447.6	1008.1
1039.11	447.5	1014.91
1039.21	447.4	1009.79
1039.31	447.3	1001.33
1039.41	447.2	1015.33
1039.51	447.1	1010.77
1039.61	447	1018.45
1039.71	446.9	992.926
1039.81	446.8	1017.31
1039.91	446.7	1021.42
1040.01	446.6	1021.93
1040.11	446.5	1026.67
1040.21	446.4	998.806
1040.31	446.3	1008.8
1040.41	446.2	1015.55
1040.51	446.1	995.445
1040.61	446	991.232
1040.71	445.9	999.67
1040.81	445.8	1011.91
1040.91	445.7	996.937
1041.01	445.6	1014.63
1041.11	445.5	1007.98
1041.21	445.4	1016.91
1041.31	445.3	1019.93
1041.41	445.2	1009.09
1041.51	445.1	1008.5
1041.61	445	1015.02
1041.71	444.9	999.302
1041.81	444.8	1010.26
1041.91	444.7	1001.34
1042.01	444.6	1019.08
1042.11	444.5	1016.81
1042.21	444.4	1006.25
1042.31	444.3	1015.17
1042.41	444.2	1019.59
1042.51	444.1	1017
1042.61	444	996.284
1042.71	443.9	999.126
1042.81	443.8	1022.54
1042.91	443.7	1019.29
1043.01	443.6	1025.53
1043.11	443.5	1012.46
1043.21	443.4	1002.11
1043.31	443.3	1000.42
1043.41	443.2	1014.08
1043.51	443.1	1011.66
1043.61	443	991.661
1043.71	442.9	1004.82
1043.81	442.8	1000.02
1043.91	442.7	1006.53
1044.01	442.6	1002.09
1044.11	442.5	1004.7
1044.21	442.4	1018.12
1044.31	442.3	1014.35
1044.41	442.2	1001.27
1044.51	442.1	1002.78
1044.61	442	1004.63
1044.71	441.9	1004.37
1044.81	441.8	1005.99
1044.91	441.7	1002.29
1045.01	441.6	1019.69
1045.11	441.5	1012.63
1045.21	441.4	1003.54
1045.31	441.3	1002.32
1045.41	441.2	1007.01
1045.51	441.1	1017.8
1045.61	441	1000.26
1045.71	440.9	1000.39
1045.81	440.8	1001.95
1045.91	440.7	1012.51
1046.01	440.6	991.443
1046.11	440.5	1013.75
1046.21	440.4	1016.41
1046.31	440.3	1012.35
1046.41	440.2	1018.22
1046.51	440.1	997.493
1046.61	440	1011.2
1046.71	439.9	1001.97
1046.81	439.8	1008.46
1046.91	439.7	1009.23
1047.01	439.6	1009.37
1047.11	439.5	1023.15
1047.21	439.4	1003.2
1047.31	439.3	1017.98
1047.41	439.2	1006.17
1047.51	439.1	1007.55
1047.61	439	1014.05
1047.71	438.9	996.097
1047.81	438.8	1007.62
1047.91	438.7	1018.87
1048.01	438.6	1012.06
1048.11	438.5	1011.16
1048.21	438.4	1025.54
1048.31	438.3	1019.43
1048.41	438.2	1004.58
1048.51	438.1	1004.45
1048.61	438	1005.29
1048.71	437.9	998.788
1048.81	437.8	1014.53
1048.91	437.7	1013.27
1049.01	437.6	1007.03
1049.11	437.5	1022.32
1049.21	437.4	1003.03
1049.31	437.3	1005.7
1049.41	437.2	1011.44
1049.51	437.1	1009.96
1049.61	437	1007.26
1049.71	436.9	1018.83
1049.81	436.8	1017.96
1049.91	436.7	1013.85
1050.01	436.6	1004.91
1050.11	436.5	1003.11
1050.21	436.4	1015.16
1050.31	436.3	1008.37
1050.41	436.2	1009.58
1050.51	436.1	1002.74
1050.61	436	998.242
1050.71	435.9	1001.04
1050.81	435.8	1010.93
1050.91	435.7	1022.23
1051.01	435.6	1004.58
1051.11	435.5	1001.87
1051.21	435.4	1008.54
1051.31	435.3	1009.18
1051.41	435.2	1004.12
1051.51	435.1	1021.49
1051.61	435	1004.81
1051.71	434.9	1011.72
1051.81	434.8	1006.4
1051.91	434.7	1012.26
1052.01	434.6	998.644
1052.11	434.5	1013.83
1052.21	434.4	1009.51
1052.31	434.3	1011.6
1052.41	434.2	1020.06
1052.51	434.1	1020.9
1052.61	434	1023.78
1052.71	433.9	1015.51
1052.81	433.8	1008.94
1052.91	433.7	1018.37
1053.01	433.6	1020.57
1053.11	433.5	998
1053.21	433.4	1007.36
1053.31	433.3	1018.65
1053.41	433.2	1008.49
1053.51	433.1	1013.07
1053.61	433	1005.77
1053.71	432.9	990.699
1053.81	432.8	997.506
1053.91	432.7	1006.8
1054.01	432.6	1015.17
1054.11	432.5	1008.9
1054.21	432.4	997.014
1054.31	432.3	1009.68
1054.41	432.2	1010.28
1054.51	432.1	1013.25
1054.61	432	1000.46
1054.71	431.9	1007.64
1054.81	431.8	1007.71
1054.91	431.7	1004.18
1055.01	431.6	1019.45
1055.11	431.5	1019.25
1055.21	431.4	1016.16
1055.31	431.3	1005.93
1055.41	431.2	1005.11
1055.51	431.1	1020.29
1055.61	431	1014.14
1055.71	430.9	1007.29
1055.81	430.8	995.831
1055.91	430.7	1012.35
1056.01	430.6	1013.94
1056.11	430.5	997.238
1056.21	430.4	999.265
1056.31	430.3	1015.25
1056.41	430.2	1018.19
1056.51	430.1	1007.32
1056.61	430	1009.88
1056.71	429.9	1018.08
1056.81	429.8	1007.32
1056.91	429.7	1012.81
1057.01	429.6	1004.77
1057.11	429.5	1007.89
1057.21	429.4	1000.58
1057.31	429.3	1011.88
1057.41	429.2	1007.33
1057.51	429.1	1022.06
1057.61	429	1010.69
1057.71	428.9	1010.81
1057.81	428.8	1011.41
1057.91	428.7	1009.73
1058.01	428.6	1007.66
1058.11	428.5	1026.61
1058.21	428.4	1013.59
1058.31	428.3	1008.6
1058.41	428.2	1010.79
1058.51	428.1	1017.82
1058.61	428	999.002
1058.71	427.9	1007.61
1058.81	427.8	994.74
1058.91	427.7	1009.35
1059.01	427.6	1014.32
1059.11	427.5	1012.9
1059.21	427.4	1010.58
1059.31	427.3	1004.47
1059.41	427.2	1010.27
1059.51	427.1	1011.67
1059.61	427	1013.1
1059.71	426.9	1019.55
1059.81	426.8	1005.51
1059.91	426.7	1015.62
1060.01	426.6	1010.87
1060.11	426.5	1009.94
1060.21	426.4	1026.61
1060.31	426.3	1002.49
1060.41	426.2	997.64
1060.51	426.1	1000.28
1060.61	426	1013.81
1060.71	425.9	996.466
1060.81	425.8	1002.44
1060.91	425.7	1007.21
1061.01	425.6	1002.14
1061.11	425.5	1002.08
1061.21	425.4	1010.05
1061.31	425.3	1006.84
1061.41	425.2	1009.68
1061.51	425.1	1018.88
1061.61	425	1025.29
1061.71	424.9	1021.15
1061.81	424.8	1016.93
1061.91	424.7	997.618
1062.01	424.6	1005.77
1062.11	424.5	996.662
1062.21	424.4	995.77
1062.31	424.3	1003.29
1062.41	424.2	1006.25
1062.51	424.1	1020.27
1062.61	424	1009.76
1062.71	423.9	1013.12
1062.81	423.8	1005.28
1062.91	423.7	1006.42
1063.01	423.6	1002.9
1063.11	423.5	994.327
1063.21	423.4	1010.11
1063.31	423.3	1017.94
1063.41	423.2	1006.66
1063.51	423.1	1008.31
1063.61	423	1019.12
1063.71	422.9	1016.48
1063.81	422.8	1030.16
1063.91	422.7	1014.22
1064.01	422.6	1022.36
1064.11	422.5	1014.35
1064.21	422.4	1025.25
1064.31	422.3	1018.51
1064.41	422.2	1022.47
1064.51	422.1	1014.56
1064.61	422	1004.02
1064.71	421.9	1005.56
1064.81	421.8	998.769
1064.91	421.7	995.159
1065.01	421.6	1009.89
1065.11	421.5	1009.1
1065.21	421.4	1001.35
1065.31	421.3	989.676
1065.41	421.2	998.353
1065.51	421.1	996.181
1065.61	421	999.801
1065.71	420.9	1007.82
1065.81	420.8	999.758
1065.91	420.7	997.955
1066.01	420.6	1005.64
1066.11	420.5	1004.32
1066.21	420.4	1009.55
1066.31	420.3	1000.63
1066.41	420.2	1010.41
1066.51	420.1	1007.57
1066.61	420	1006.65
1066.71	419.9	1009.5
1066.81	419.8	1002.99
1066.91	419.7	1000.15
1067.01	419.6	1004.24
1067.11	419.5	1011.28
1067.21	419.4	1020
1067.31	419.3	1015.26
1067.41	419.2	1003.04
1067.51	419.1	1007.82
1067.61	419	1000.92
1067.71	418.9	1012.62
1067.81	418.8	994.921
1067.91	418.7	981.842
1068.01	418.6	987.111
1068.11	418.5	1004.8
1068.21	418.4	1010.12
1068.31	418.3	1001.52
1068.41	418.2	995.431
1068.51	418.1	1000.76
1068.61	418	988.298
1068.71	417.9	993.784
1068.81	417.8	1001.96
1068.91	417.7	1009
1069.01	417.6	1013.33
1069.11	417.5	1002.39
1069.21	417.4	1003.69
1069.31	417.3	1000.28
1069.41	417.2	992.869
1069.51	417.1	991.94
1069.61	417	1000.45
1069.71	416.9	992.631
1069.81	416.8	1004.56
1069.91	416.7	1011.77
1070.01	416.6	1002.51
1070.11	416.5	997.663
1070.21	416.4	1000.58
1070.31	416.3	989.013
1070.41	416.2	986.715
1070.51	416.1	982.01
1070.61	416	996.563
1070.71	415.9	986.942
1070.81	415.8	987.04
1070.91	415.7	990.268
1071.01	415.6	991.605
1071.11	415.5	997.635
1071.21	415.4	991.273
1071.31	415.3	995.443
1071.41	415.2	992.889
1071.51	415.1	1000.73
1071.61	415	987.396
1071.71	414.9	984.868
1071.81	414.8	999.523
1071.91	414.7	994.824
1072.01	414.6	1006.29
1072.11	414.5	999.773
1072.21	414.4	986.107
1072.31	414.3	976.951
1072.41	414.2	1004.96
1072.51	414.1	1010.99
1072.61	414	1012.36
1072.71	413.9	997.537
1072.81	413.8	987.615
1072.91	413.7	994.588
1073.01	413.6	1003.52
1073.11	413.5	996.402
1073.21	413.4	1017.3
1073.31	413.3	1004.34
1073.41	413.2	983.422
1073.51	413.1	990.286
1073.61	413	989.481
1073.71	412.9	990.614
1073.81	412.8	993.461
1073.91	412.7	1000.47
1074.01	412.6	986.983
1074.11	412.5	994.34
1074.21	412.4	991.197
1074.31	412.3	994.86
1074.41	412.2	987.328
1074.51	412.1	984.263
1074.61	412	986.156
1074.71	411.9	1002.81
1074.81	411.8	992.526
1074.91	411.7	990.185
1075.01	411.6	1000.27
1075.11	411.5	1000.78
1075.21	411.4	1001.33
1075.31	411.3	980.232
1075.41	411.2	995.379
1075.51	411.1	991.438
1075.61	411	996.829
1075.71	410.9	991.052
1075.81	410.8	991.746
1075.91	410.7	988.369
1076.01	410.6	979.586
1076.11	410.5	975.445
1076.21	410.4	996.375
1076.31	410.3	995.265
1076.41	410.2	995.887
1076.51	410.1	980.862
1076.61	410	986.341
1076.71	409.9	984.328
1076.81	409.8	973.518
1076.91	409.7	986.468
1077.01	409.6	992.769
1077.11	409.5	986.716
1077.21	409.4	994.732
1077.31	409.3	987.154
1077.41	409.2	971.307
1077.51	409.1	980.724
1077.61	409	990.142
1077.71	408.9	993.827
1077.81	408.8	981.3
1077.91	408.7	970.379
1078.01	408.6	981.476
1078.11	408.5	971.258
1078.21	408.4	974.041
1078.31	408.3	980.81
1078.41	408.2	977.718
1078.51	408.1	975.654
1078.61	408	976.869
1078.71	407.9	983.556
1078.81	407.8	987.593
1078.91	407.7	980.132
1079.01	407.6	971.571
1079.11	407.5	963.713
1079.21	407.4	984.16
1079.31	407.3	980.234
1079.41	407.2	962.596
1079.51	407.1	973.853
1079.61	407	977.828
1079.71	406.9	980.858
1079.81	406.8	984.821
1079.91	406.7	977.847
1080.01	406.6	962.289
1080.11	406.5	974.981
1080.21	406.4	972.786
1080.31	406.3	984.631
1080.41	406.2	990.314
1080.51	406.1	978.883
1080.61	406	961.108
1080.71	405.9	978.687
1080.81	405.8	976.708
1080.91	405.7	992.396
1081.01	405.6	965.571
1081.11	405.5	978.207
1081.21	405.4	981.075
1081.31	405.3	973.81
1081.41	405.2	968.616
1081.51	405.1	956.735
1081.61	405	978.94
1081.71	404.9	969.216
1081.81	404.8	970.883
1081.91	404.7	951.109
1082.01	404.6	962.467
1082.11	404.5	968.907
1082.21	404.4	984.052
1082.31	404.3	978.025
1082.41	404.2	965.377
1082.51	404.1	964.318
1082.61	404	972.797
1082.71	403.9	973.235
1082.81	403.8	972.722
1082.91	403.7	975.321
1083.01	403.6	954.556
1083.11	403.5	964.579
1083.21	403.4	968.902
1083.31	403.3	958.793
1083.41	403.2	969.322
1083.51	403.1	968.333
1083.61	403	953.12
1083.71	402.9	965.426
1083.81	402.8	971.148
1083.91	402.7	969.169
1084.01	402.6	971.342
1084.11	402.5	974.181
1084.21	402.4	961.698
1084.31	402.3	967.386
1084.41	402.2	945.593
1084.51	402.1	956.803
1084.61	402	966.677
1084.71	401.9	979.076
1084.81	401.8	965.112
1084.91	401.7	975.188
1085.01	401.6	968.395
1085.11	401.5	957.817
1085.21	401.4	976.89
1085.31	401.3	969.723
1085.41	401.2	968.746
1085.51	401.1	959.024
1085.61	401	967.001
1085.71	400.9	952.469
1085.81	400.8	965.986
1085.91	400.7	972.827
1086.01	400.6	973.97
1086.11	400.5	964.637
1086.21	400.4	965.009
1086.31	400.3	966.388
1086.41	400.2	967.487
1086.51	400.1	972.232
1086.61	400	970.298
1086.71	399.9	956.058
1086.81	399.8	978.984
1086.91	399.7	976.22
1087.01	399.6	968.509
1087.11	399.5	966.267
1087.21	399.4	981.456
1087.31	399.3	973.366
1087.41	399.2	968.992
1087.51	399.1	965.738
1087.61	399	956.279
1087.71	398.9	965.801
1087.81	398.8	984.222
1087.91	398.7	973.137
1088.01	398.6	960.871
1088.11	398.5	956.765
1088.21	398.4	966.988
1088.31	398.3	982.193
1088.41	398.2	970.024
1088.51	398.1	969.92
1088.61	398	971.093
1088.71	397.9	969.977
1088.81	397.8	966.42
1088.91	397.7	966.542
1089.01	397.6	965.766
1089.11	397.5	944.546
1089.21	397.4	959.663
1089.31	397.3	975.634
1089.41	397.2	968.016
1089.51	397.1	970.865
1089.61	397	963.478
1089.71	396.9	970.924
1089.81	396.8	960.74
1089.91	396.7	953.821
1090.01	396.6	955.913
1090.11	396.5	967.01
1090.21	396.4	958.655
1090.31	396.3	966.603
1090.41	396.2	962.063
1090.51	396.1	949.493
1090.61	396	951.204
1090.71	395.9	957.006
1090.81	395.8	957.883
1090.91	395.7	949.206
1091.01	395.6	953.292
1091.11	395.5	972.084
1091.21	395.4	961.708
1091.31	395.3	952.843
1091.41	395.2	966.64
1091.51	395.1	953.628
1091.61	395	940.943
1091.71	394.9	957.078
1091.81	394.8	953.345
1091.91	394.7	959.708
1092.01	394.6	964.761
1092.11	394.5	958.69
1092.21	394.4	957.433
1092.31	394.3	970.465
1092.41	394.2	966.302
1092.51	394.1	971.959
1092.61	394	979.213
1092.71	393.9	969.219
1092.81	393.8	969.994
1092.91	393.7	976.086
1093.01	393.6	988.097
1093.11	393.5	986.75
1093.21	393.4	981.876
1093.31	393.3	979.358
1093.41	393.2	970.216
1093.51	393.1	980.761
1093.61	393	976.282
1093.71	392.9	969.677
1093.81	392.8	970.095
1093.91	392.7	956.663
1094.01	392.6	965.437
1094.11	392.5	957.223
1094.21	392.4	959.828
1094.31	392.3	968.475
1094.41	392.2	982.015
1094.51	392.1	963.908
1094.61	392	976.817
1094.71	391.9	994.247
1094.81	391.8	992.179
1094.91	391.7	996.596
1095.01	391.6	980.759
1095.11	391.5	992.674
1095.21	391.4	1006.59
1095.31	391.3	998.082
1095.41	391.2	990.846
1095.51	391.1	998.597
1095.61	391	993.184
1095.71	390.9	975.795
1095.81	390.8	973.643
1095.91	390.7	965.779
1096.01	390.6	956.997
1096.11	390.5	946.197
1096.21	390.4	950.492
1096.31	390.3	960.794
1096.41	390.2	960.014
1096.51	390.1	968.07
1096.61	390	978.734
1096.71	389.9	978.95
1096.81	389.8	978.984
1096.91	389.7	978.022
1097.01	389.6	973.569
1097.11	389.5	961.277
1097.21	389.4	950.866
1097.31	389.3	947.408
1097.41	389.2	944.932
1097.51	389.1	918.457
1097.61	389	915.475
1097.71	388.9	899.9
1097.81	388.8	894.203
1097.91	388.7	872.766
1098.01	388.6	879.934
1098.11	388.5	892.652
1098.21	388.4	886.214
1098.31	388.3	871.192
1098.41	388.2	873.939
1098.51	388.1	872.626
1098.61	388	862.428
1098.71	387.9	875.171
1098.81	387.8	863.73
1098.91	387.7	877.384
1099.01	387.6	878.43
1099.11	387.5	866.232
1099.21	387.4	873.045
1099.31	387.3	877.431
1099.41	387.2	870.581
1099.51	387.1	866.368
1099.61	387	851.58
1099.71	386.9	846.128
1099.81	386.8	840.941
1099.91	386.7	825.746
1100.01	386.6	817.043
1100.11	386.5	808.676
1100.21	386.4	789.841
1100.31	386.3	791.359
1100.41	386.2	796.557
1100.51	386.1	809.78
1100.61	386	817.343
1100.71	385.9	812.265
1100.81	385.8	818.369
1100.91	385.7	800.602
1101.01	385.6	825.796
1101.11	385.5	833.046
1101.21	385.4	828.717
1101.31	385.3	837.096
1101.41	385.2	837.426
1101.51	385.1	836.225
1101.61	385	818.808
1101.71	384.9	800.889
1101.81	384.8	819.47
1101.91	384.7	806.293
1102.01	384.6	811.254
1102.11	384.5	813.265
1102.21	384.4	808.371
1102.31	384.3	798.734
1102.41	384.2	819.144
1102.51	384.1	826.547
1102.61	384	823.263
1102.71	383.9	831.384
1102.81	383.8	832.313
1102.91	383.7	838.541
1103.01	383.6	856.504
1103.11	383.5	867.484
1103.21	383.4	877.838
1103.31	383.3	879.336
1103.41	383.2	885.132
1103.51	383.1	895.453
1103.61	383	894.138
1103.71	382.9	882.609
1103.81	382.8	880.799
1103.91	382.7	881.15
1104.01	382.6	877.799
1104.11	382.5	850.753
1104.21	382.4	821.814
1104.31	382.3	807.624
1104.41	382.2	777.269
1104.51	382.1	766.481
1104.61	382	752.085
1104.71	381.9	728.056
1104.81	381.8	710.185
1104.91	381.7	679.197
1105.01	381.6	690.902
1105.11	381.5	682.961
1105.21	381.4	678.365
1105.31	381.3	668.45
1105.41	381.2	658.25
1105.51	381.1	655.542
1105.61	381	633.54
1105.71	380.9	619.1
1105.81	380.8	609.189
1105.91	380.7	598.253
1106.01	380.6	584.827
1106.11	380.5	575.282
1106.21	380.4	563.688
1106.31	380.3	544.819
1106.41	380.2	529.944
1106.51	380.1	523.078
1106.61	380	522.392
1106.71	379.9	514.375
1106.81	379.8	515.551
1106.91	379.7	512.383
1107.01	379.6	515.261
1107.11	379.5	510.357
1107.21	379.4	510.958
1107.31	379.3	503.433
1107.41	379.2	500.612
1107.51	379.1	509.766
1107.61	379	517.664
1107.71	378.9	524.52
1107.81	378.8	534.642
1107.91	378.7	542.167
1108.01	378.6	548.708
1108.11	378.5	559.551
1108.21	378.4	571.436
1108.31	378.3	580.166
1108.41	378.2	583.319
1108.51	378.1	594.456
1108.61	378	610.837
1108.71	377.9	625.426
1108.81	377.8	618.184
1108.91	377.7	620.813
1109.01	377.6	640.975
1109.11	377.5	651.911
1109.21	377.4	684.068
1109.31	377.3	704.676
1109.41	377.2	722.062
1109.51	377.1	739.02
1109.61	377	756.06
1109.71	376.9	778.981
1109.81	376.8	790.131
1109.91	376.7	801.094
1110.01	376.6	786.209
1110.11	376.5	787.692
1110.21	376.4	773.44
1110.31	376.3	763.759
1110.41	376.2	741.3
1110.51	376.1	717.34
1110.61	376	693.649
1110.71	375.9	675.215
1110.81	375.8	665.184
1110.91	375.7	669.878
1111.01	375.6	671.307
1111.11	375.5	678.312
1111.21	375.4	685.501
1111.31	375.3	721.56
1111.41	375.2	760.905
1111.51	375.1	824.489
1111.61	375	951.737
1111.71	374.9	1114.04
1111.81	374.8	1372.44
1111.91	374.7	1742.82
1112.01	374.6	2203.43
1112.11	374.5	2773.45
1112.21	374.4	3302.73
1112.31	374.3	3701.22
1112.41	374.2	3807.02
1112.51	374.1	3617.04
1112.61	374	3142.27
1112.71	373.9	2535.69
1112.81	373.8	1962.75
1112.91	373.7	1463.67
1113.01	373.6	1110.22
1113.11	373.5	899.706
1113.21	373.4	756.595
1113.31	373.3	655.791
1113.41	373.2	568.936
1113.51	373.1	512.552
1113.61	373	479.29
1113.71	372.9	465.224
1113.81	372.8	462.468
1113.91	372.7	451.149
1114.01	372.6	435.146
1114.11	372.5	447.485
1114.21	372.4	449.098
1114.31	372.3	450.967
1114.41	372.2	474.034
1114.51	372.1	474.95
1114.61	372	473.838
1114.71	371.9	478.775
1114.81	371.8	469.876
1114.91	371.7	465.198
1115.01	371.6	453.557
1115.11	371.5	438.687
1115.21	371.4	413.636
1115.31	371.3	400.769
1115.41	371.2	385.202
1115.51	371.1	374.109
1115.61	371	386.931
1115.71	370.9	371.777
1115.81	370.8	367.275
1115.91	370.7	376.88
1116.01	370.6	382.007
1116.11	370.5	383.794
1116.21	370.4	388.16
1116.31	370.3	400.409
1116.41	370.2	402.022
1116.51	370.1	418.828
1116.61	370	440.252
1116.71	369.9	446.319
1116.81	369.8	469.592
1116.91	369.7	492.683
1117.01	369.6	522.316
1117.11	369.5	568.777
1117.21	369.4	599.663
1117.31	369.3	661.632
1117.41	369.2	742.819
1117.51	369.1	872.582
1117.61	369	1048.61
1117.71	368.9	1300.32
1117.81	368.8	1669.43
1117.91	368.7	2203.22
1118.01	368.6	2900.64
1118.11	368.5	3694.13
1118.21	368.4	4491.77
1118.31	368.3	5077.88
1118.41	368.2	5267.88
1118.51	368.1	4982.11
1118.61	368	4313.09
1118.71	367.9	3414.89
1118.81	367.8	2562.79
1118.91	367.7	1862.85
1119.01	367.6	1375.76
1119.11	367.5	1030.14
1119.21	367.4	790.525
1119.31	367.3	633.46
1119.41	367.2	510.735
1119.51	367.1	448.674
1119.61	367	389.923
1119.71	366.9	352.921
1119.81	366.8	318.576
1119.91	366.7	301.633
1120.01	366.6	285.968
1120.11	366.5	281.186
1120.21	366.4	271.783
1120.31	366.3	264.855
1120.41	366.2	250.364
1120.51	366.1	246.5
1120.61	366	247.125
1120.71	365.9	232.672
1120.81	365.8	230.724
1120.91	365.7	230.961
1121.01	365.6	235.283
1121.11	365.5	220.737
1121.21	365.4	226.138
1121.31	365.3	217.255
1121.41	365.2	220.943
1121.51	365.1	223.723
1121.61	365	217.852
1121.71	364.9	222.413
1121.81	364.8	211.901
1121.91	364.7	215.872
1122.01	364.6	208.787
1122.11	364.5	211.657
1122.21	364.4	211.307
1122.31	364.3	211.241
1122.41	364.2	209.383
1122.51	364.1	213.928
1122.61	364	205.728
1122.71	363.9	201.109
1122.81	363.8	200.672
1122.91	363.7	198.925
1123.01	363.6	196.412
1123.11	363.5	205.6
1123.21	363.4	197.626
1123.31	363.3	206.003
1123.41	363.2	199.666
1123.51	363.1	201.149
1123.61	363	197.062
1123.71	362.9	192.742
1123.81	362.8	200.917
1123.91	362.7	201.124
1124.01	362.6	195.647
1124.11	362.5	194.335
1124.21	362.4	201.165
1124.31	362.3	198.824
1124.41	362.2	200.587
1124.51	362.1	203.05
1124.61	362	194.394
1124.71	361.9	193.554
1124.81	361.8	193.918
1124.91	361.7	197.954
1125.01	361.6	196.815
1125.11	361.5	196.087
1125.21	361.4	199.571
1125.31	361.3	191.426
1125.41	361.2	198.808
1125.51	361.1	195.522
1125.61	361	194.035
1125.71	360.9	189.671
1125.81	360.8	193.78
1125.91	360.7	191.619
1126.01	360.6	191.93
1126.11	360.5	191.217
1126.21	360.4	195.017
1126.31	360.3	198.958
1126.41	360.2	192.241
1126.51	360.1	188.457
1126.61	360	196.727
1126.71	359.9	198.46
1126.81	359.8	196.944
1126.91	359.7	196.67
1127.01	359.6	199.112
1127.11	359.5	195.697
1127.21	359.4	201.175
1127.31	359.3	194.326
1127.41	359.2	196.23
1127.51	359.1	197.996
1127.61	359	194.947
1127.71	358.9	188.041
1127.81	358.8	196.202
1127.91	358.7	194.343
1128.01	358.6	196.228
1128.11	358.5	190.855
1128.21	358.4	194.919
1128.31	358.3	192.114
1128.41	358.2	190.868
1128.51	358.1	196.139
1128.61	358	199.985
1128.71	357.9	196.203
1128.81	357.8	192.676
1128.91	357.7	194.754
1129.01	357.6	197.797
1129.11	357.5	194.402
1129.21	357.4	195.162
1129.31	357.3	197.759
1129.41	357.2	196.023
1129.51	357.1	201.751
1129.61	357	197.59
1129.71	356.9	191.891
1129.81	356.8	195.399
1129.91	356.7	198.769
1130.01	356.6	194.434
1130.11	356.5	192.574
1130.21	356.4	194.894
1130.31	356.3	192.049
1130.41	356.2	196.128
1130.51	356.1	190.357
1130.61	356	191.119
1130.71	355.9	190.552
1130.81	355.8	187.854
1130.91	355.7	191.73
1131.01	355.6	193.279
1131.11	355.5	197.435
1131.21	355.4	195.323
1131.31	355.3	200.976
1131.41	355.2	192.614
1131.51	355.1	192.492
1131.61	355	194.54
1131.71	354.9	192.742
1131.81	354.8	199.703
1131.91	354.7	197.554
1132.01	354.6	194.763
1132.11	354.5	192.957
1132.21	354.4	193.131
1132.31	354.3	192.503
1132.41	354.2	197.92
1132.51	354.1	197.066
1132.61	354	193.957
1132.71	353.9	192.61
1132.81	353.8	194.42
1132.91	353.7	190.635
1133.01	353.6	199.912
1133.11	353.5	201.402
1133.21	353.4	196.425
1133.31	353.3	201.523
1133.41	353.2	195.418
1133.51	353.1	194.525
1133.61	353	192.471
1133.71	352.9	190.822
1133.81	352.8	191.372
1133.91	352.7	191.772
1134.01	352.6	197.659
1134.11	352.5	197.329
1134.21	352.4	195.43
1134.31	352.3	197.959
1134.41	352.2	195.015
1134.51	352.1	199.593
1134.61	352	198.185
1134.71	351.9	195.466
1134.81	351.8	195.704
1134.91	351.7	197.576
1135.01	351.6	195.938
1135.11	351.5	197.91
1135.21	351.4	202.139
1135.31	351.3	193.157
1135.41	351.2	196.332
1135.51	351.1	195.787
1135.61	351	191.206
1135.71	350.9	193.432
1135.81	350.8	199.373
1135.91	350.7	199.177
1136.01	350.6	195.224
1136.11	350.5	190.667
1136.21	350.4	197.813
1136.31	350.3	201.006
1136.41	350.2	195.251
1136.51	350.1	197.945
1136.61	350	200.601