VAMAS Surface Chemical Analysis Standard Data Transfer Format 1988 May 4
Not Specified
Not Specified
Not Specified
Not Specified
9
Casa Info Follows CasaXPS Version 2.3.20rev1.2G
0
Created by SpecsLab Prodigy, Version 4.63.4-r87993 
SourceAnalyserAngle: 56.500000 d
CasaRowLabel:Ag in vacuum
CasaRowLabel:Ag in vacuum, short shirley
CasaRowLabel:Ag in vacuum, long shirley
CasaRowLabel:Ag in vacuum, short shirley, background subtr.
CasaRowLabel:Ag in vacuum, long shirley, background subtr.
NORM
REGULAR
1
1
Exp Variable
d
0
0
0
0
5
Ag3d
Ag in vacuum
2020
3
6
22
14
31
0
15
Casa Info Follows
0
0
1
CASA region (*Ag 3d*) (*Shirley*) 1039.11 1134.11 17.742184 2 0 0 833.83732 -450 0 0 (*Ag 3d*) 107.878 0 18.04
0
EX340_CEC356_effect of lens modes.sle
Group = Ag in vacuum
First of group = 0
Analyzer lens = LargeArea:1.5kV
Analyzer slit = 4:7x20c\C:mesh
Scan mode = FixedAnalyzerTransmission
Kinetic energy start = 1036.61
Sum of 8 spectra in column containing 8 scans
C:\Users\pielsticker\Lukas\MPI-CEC\Projects\Gas phase background\inelasticscattering\data\N2\Au, Ag, Cu in N2.vms
XPS
1
Al
1486.61
0
0
0
54.5
180
FAT
20
1
4.156
0
0
0
0
0
Ag3d

-1
kinetic energy
eV
1036.61
0.1
2
counts
d
Transmission
d
pulse counting
0.8
1
0
0
0
0
2
ESCAPE DEPTH TYPE
d
0
MFP Exponent
d
0
2002
111.645
16058.8
2.57029
2.69189
7149.55
2.69189
7212.09
2.69176
7195.03
2.69162
7215.52
2.69149
7267.75
2.69136
7148.26
2.69123
7226.14
2.6911
7304.93
2.69097
7204.99
2.69084
7220.56
2.69071
7208.82
2.69058
7201.59
2.69045
7187.93
2.69032
7311.09
2.69019
7308.51
2.69006
7281.85
2.68993
7162.46
2.6898
7162.77
2.68967
7185.3
2.68954
7240.53
2.68941
7218.2
2.68928
7170.12
2.68915
7262.42
2.68902
7181.35
2.68889
7228.18
2.68876
7201.42
2.68863
7179.44
2.6885
7141.15
2.68837
7277.27
2.68824
7186.11
2.68811
7295.79
2.68798
7253.32
2.68785
7103.66
2.68772
7131.25
2.68759
7196.36
2.68746
7281.68
2.68733
7265.37
2.6872
7173.95
2.68708
7122.64
2.68695
7196.81
2.68682
7135.75
2.68669
7118.88
2.68656
7160.16
2.68643
7214.67
2.6863
7232.26
2.68617
7167.63
2.68604
7138.52
2.68591
7193.3
2.68578
7214.42
2.68565
7120.75
2.68552
7269.19
2.68539
7321.18
2.68526
7241.45
2.68513
7269.88
2.685
7268.3
2.68487
7088.43
2.68474
7228.36
2.68461
7276.47
2.68449
7226.6
2.68436
7114.05
2.68423
7259.36
2.6841
7275.82
2.68397
7235.9
2.68384
7116.11
2.68371
7106.91
2.68358
7187.5
2.68345
7093.35
2.68332
7172.08
2.68319
7241.22
2.68306
7185.28
2.68294
7342.22
2.68281
7337.72
2.68268
7134.49
2.68255
7303.82
2.68242
7315.21
2.68229
7207.65
2.68216
7254.06
2.68203
7172.87
2.6819
7244.6
2.68177
7223.47
2.68165
7176.53
2.68152
7158.85
2.68139
7117.1
2.68126
7173.21
2.68113
7169.34
2.681
7322.11
2.68087
7284.14
2.68074
7246.46
2.68062
7232.75
2.68049
7311.4
2.68036
7323.81
2.68023
7093.13
2.6801
7316.31
2.67997
7209.1
2.67984
7226
2.67971
7255.26
2.67959
7251.01
2.67946
7239.68
2.67933
7240.28
2.6792
7263.9
2.67907
7204.9
2.67894
7179.2
2.67881
7141.89
2.67869
7238.73
2.67856
7182.47
2.67843
7248.01
2.6783
7203.22
2.67817
7115.56
2.67804
7210.98
2.67792
7209.8
2.67779
7218
2.67766
7293.85
2.67753
7175.5
2.6774
7208.09
2.67727
7270.91
2.67715
7180.85
2.67702
7244.65
2.67689
7141.78
2.67676
7183.69
2.67663
7214.23
2.67651
7278.79
2.67638
7117.48
2.67625
7133.17
2.67612
7338.38
2.67599
7291.99
2.67586
7252.58
2.67574
7335.14
2.67561
7328.65
2.67548
7280.55
2.67535
7246.18
2.67522
7178.48
2.6751
7197.48
2.67497
7329.31
2.67484
7084.13
2.67471
7160.21
2.67459
7193.21
2.67446
7188.21
2.67433
7345.19
2.6742
7151.73
2.67407
7191.87
2.67395
7208.96
2.67382
7264.74
2.67369
7237.55
2.67356
7154.63
2.67344
7203.66
2.67331
7259.92
2.67318
7260.44
2.67305
7123.22
2.67292
7170.79
2.6728
7239.03
2.67267
7199.52
2.67254
7327.29
2.67241
7197.6
2.67229
7201.9
2.67216
7333.75
2.67203
7325.55
2.6719
7363.27
2.67178
7217.66
2.67165
7303.28
2.67152
7278.45
2.67139
7394.81
2.67127
7273.76
2.67114
7212.64
2.67101
7178.06
2.67088
7269.92
2.67076
7373.08
2.67063
7266.95
2.6705
7329.56
2.67038
7269.66
2.67025
7378.94
2.67012
7336.63
2.66999
7193.82
2.66987
7272.37
2.66974
7110.33
2.66961
7192.26
2.66949
7278.2
2.66936
7308.19
2.66923
7200.82
2.6691
7200.19
2.66898
7157.76
2.66885
7201.63
2.66872
7243.55
2.6686
7253.36
2.66847
7088.15
2.66834
7311.4
2.66821
7245.2
2.66809
7240.1
2.66796
7285.79
2.66783
7288.19
2.66771
7260.64
2.66758
7192.3
2.66745
7193.73
2.66733
7188.6
2.6672
7265.31
2.66707
7351.56
2.66695
7304.94
2.66682
7287.12
2.66669
7246.81
2.66657
7352.27
2.66644
7321.55
2.66631
7298.18
2.66619
7297.93
2.66606
7343.76
2.66593
7259.53
2.66581
7301.35
2.66568
7372.91
2.66555
7446.28
2.66543
7301.99
2.6653
7354.2
2.66517
7302.49
2.66505
7282.05
2.66492
7251.3
2.66479
7208.05
2.66467
7317.16
2.66454
7174.73
2.66441
7210.24
2.66429
7340.74
2.66416
7378.52
2.66403
7203.3
2.66391
7395.44
2.66378
7292.63
2.66366
7204.56
2.66353
7322.22
2.6634
7280.77
2.66328
7164.55
2.66315
7226.73
2.66302
7349.66
2.6629
7299.29
2.66277
7248.8
2.66265
7352.42
2.66252
7302.67
2.66239
7401.85
2.66227
7295.99
2.66214
7291.26
2.66202
7320.35
2.66189
7425.04
2.66176
7395.32
2.66164
7518.35
2.66151
7458.12
2.66139
7280.69
2.66126
7233.73
2.66113
7283.76
2.66101
7358.77
2.66088
7382.91
2.66076
7315.6
2.66063
7313.93
2.6605
7497.68
2.66038
7396.51
2.66025
7403.41
2.66013
7287.91
2.66
7356.6
2.65987
7432.07
2.65975
7431.53
2.65962
7375.54
2.6595
7363.39
2.65937
7493.52
2.65925
7277.98
2.65912
7336.98
2.65899
7418.41
2.65887
7354.34
2.65874
7393.85
2.65862
7371.44
2.65849
7432.12
2.65837
7539.68
2.65824
7424.37
2.65812
7351.03
2.65799
7419.64
2.65786
7378.39
2.65774
7440.73
2.65761
7332.05
2.65749
7412.72
2.65736
7447.6
2.65724
7436.2
2.65711
7346.83
2.65699
7380.03
2.65686
7430.88
2.65674
7455.29
2.65661
7419.29
2.65649
7447.9
2.65636
7453.07
2.65624
7315.14
2.65611
7295.87
2.65598
7290.16
2.65586
7381.01
2.65573
7293.58
2.65561
7421.21
2.65548
7292.42
2.65536
7428.55
2.65523
7344.43
2.65511
7385
2.65498
7303.99
2.65486
7407.07
2.65473
7411.73
2.65461
7376.3
2.65448
7291.36
2.65436
7447.42
2.65423
7452.77
2.65411
7327.58
2.65398
7287.83
2.65386
7351.69
2.65373
7351.7
2.65361
7467.86
2.65348
7372.99
2.65336
7322.47
2.65323
7349.07
2.65311
7474.08
2.65298
7479.8
2.65286
7360.44
2.65273
7397.46
2.65261
7251.01
2.65249
7186.18
2.65236
7245.13
2.65224
7260.92
2.65211
7287.86
2.65199
7358.47
2.65186
7521.02
2.65174
7432.17
2.65161
7260.78
2.65149
7367.05
2.65136
7309.94
2.65124
7518.67
2.65111
7407.31
2.65099
7332.61
2.65087
7433.1
2.65074
7490.19
2.65062
7344.88
2.65049
7244.22
2.65037
7456.39
2.65024
7258.17
2.65012
7349.17
2.64999
7221.22
2.64987
7260.94
2.64975
7312.45
2.64962
7291.54
2.6495
7384.96
2.64937
7337.68
2.64925
7291.9
2.64912
7178.06
2.649
7384.12
2.64888
7422.37
2.64875
7428.03
2.64863
7431.56
2.6485
7440.42
2.64838
7468.36
2.64826
7305.13
2.64813
7300.06
2.64801
7436.39
2.64788
7341.46
2.64776
7469.95
2.64763
7425.03
2.64751
7428.69
2.64739
7432.75
2.64726
7392.38
2.64714
7442.55
2.64701
7416.71
2.64689
7453.86
2.64677
7419.83
2.64664
7373.53
2.64652
7402.02
2.6464
7457.28
2.64627
7457.6
2.64615
7453.76
2.64602
7415.83
2.6459
7416.39
2.64578
7504.14
2.64565
7539.66
2.64553
7523.65
2.6454
7439.28
2.64528
7412.8
2.64516
7445.83
2.64503
7564.51
2.64491
7443.77
2.64479
7464.32
2.64466
7451.94
2.64454
7362.01
2.64442
7542.07
2.64429
7478.02
2.64417
7399.56
2.64404
7473.25
2.64392
7391.69
2.6438
7423.69
2.64367
7537.19
2.64355
7387.6
2.64343
7419.11
2.6433
7483.36
2.64318
7479.19
2.64306
7532.76
2.64293
7482.61
2.64281
7602.67
2.64269
7570.07
2.64256
7536.21
2.64244
7573.38
2.64232
7518.03
2.64219
7523.73
2.64207
7464.42
2.64195
7604.37
2.64182
7559.08
2.6417
7487.52
2.64158
7602.44
2.64145
7592.27
2.64133
7554.43
2.64121
7512.3
2.64108
7546.13
2.64096
7553.11
2.64084
7550.32
2.64072
7683.53
2.64059
7759.25
2.64047
7587.97
2.64035
7720.5
2.64022
7608.74
2.6401
7651.94
2.63998
7717.86
2.63985
7576.43
2.63973
7660.74
2.63961
7628.5
2.63949
7657.66
2.63936
7645.15
2.63924
7718.26
2.63912
7639.73
2.63899
7554.57
2.63887
7681.43
2.63875
7673.92
2.63863
7612.53
2.6385
7629.27
2.63838
7648.24
2.63826
7852.76
2.63813
7709.87
2.63801
7780.52
2.63789
7627.39
2.63777
7588.32
2.63764
7589.1
2.63752
7657.04
2.6374
7764.49
2.63728
7884.29
2.63715
7792.58
2.63703
7815.59
2.63691
7763.21
2.63679
7784.81
2.63666
7780.36
2.63654
7769.49
2.63642
7891.54
2.6363
7853.04
2.63617
7749.11
2.63605
7688.47
2.63593
7795.67
2.63581
7801.86
2.63568
7854.95
2.63556
7806.59
2.63544
7799.83
2.63532
7951.48
2.63519
7864.47
2.63507
7862.35
2.63495
7890.93
2.63483
7835.32
2.63471
7929.21
2.63458
7932.56
2.63446
8030.08
2.63434
7841.01
2.63422
7871.8
2.63409
7839.27
2.63397
7823.97
2.63385
8017.23
2.63373
8093.63
2.63361
8055.4
2.63348
7930.18
2.63336
8008.3
2.63324
8040.15
2.63312
7934.57
2.633
7868.21
2.63287
7816.11
2.63275
7968.93
2.63263
7918.76
2.63251
8068.99
2.63239
7866.63
2.63226
7892.64
2.63214
7863.12
2.63202
7754.38
2.6319
7907.07
2.63178
8108.62
2.63166
8141.2
2.63153
7965.99
2.63141
7914
2.63129
8126.14
2.63117
8106.02
2.63105
8192.21
2.63092
8082.14
2.6308
8147.16
2.63068
8212.5
2.63056
8168.33
2.63044
8178.58
2.63032
8204.08
2.63019
8132.22
2.63007
8191.59
2.62995
8301.73
2.62983
8374.47
2.62971
8396.53
2.62959
8356.86
2.62947
8347.37
2.62934
8356.1
2.62922
8386.48
2.6291
8251
2.62898
8346.68
2.62886
8344.28
2.62874
8329.86
2.62862
8265.47
2.62849
8273.87
2.62837
8463.46
2.62825
8465.35
2.62813
8309.75
2.62801
8530.77
2.62789
8422.92
2.62777
8326.88
2.62764
8400.36
2.62752
8392.3
2.6274
8412.22
2.62728
8296.71
2.62716
8296.92
2.62704
8401.31
2.62692
8382.17
2.6268
8486.41
2.62668
8322.88
2.62655
8428.77
2.62643
8581.33
2.62631
8415.43
2.62619
8361.12
2.62607
8325.39
2.62595
8410.19
2.62583
8373.4
2.62571
8217.55
2.62559
8217.98
2.62547
8215.96
2.62534
8192.4
2.62522
8288.27
2.6251
8260.47
2.62498
8158.98
2.62486
8356.43
2.62474
8353.67
2.62462
8496.96
2.6245
8416.34
2.62438
8435.31
2.62426
8432.39
2.62414
8377.93
2.62401
8461.79
2.62389
8403.63
2.62377
8478.49
2.62365
8432.57
2.62353
8516.09
2.62341
8507.5
2.62329
8509.81
2.62317
8462.3
2.62305
8663.13
2.62293
8580.7
2.62281
8605.37
2.62269
8708.57
2.62257
8699.46
2.62245
8758.22
2.62233
8725
2.62221
8725.89
2.62209
8745.02
2.62196
8650.03
2.62184
8770.84
2.62172
8766.16
2.6216
8870.35
2.62148
8913.03
2.62136
8798.6
2.62124
8752.54
2.62112
8826.64
2.621
8725
2.62088
8885.44
2.62076
8764.39
2.62064
8809.03
2.62052
8729.02
2.6204
8795.2
2.62028
8761.32
2.62016
8779.3
2.62004
8944.46
2.61992
8749.28
2.6198
8750.5
2.61968
8747.15
2.61956
8801.81
2.61944
8690.28
2.61932
8652.04
2.6192
8484.28
2.61908
8697.4
2.61896
8700.83
2.61884
8707.87
2.61872
8693.74
2.6186
8624.5
2.61848
8564.1
2.61836
8625.52
2.61824
8568.13
2.61812
8619.84
2.618
8644.96
2.61788
8581.27
2.61776
8420.68
2.61764
8543.82
2.61752
8580.1
2.6174
8535.56
2.61728
8484.57
2.61716
8437.56
2.61704
8578.68
2.61692
8648.47
2.6168
8494
2.61668
8403.79
2.61656
8486.45
2.61644
8399.3
2.61632
8379.96
2.6162
8478.7
2.61608
8430.33
2.61596
8345.05
2.61584
8299.17
2.61572
8442.87
2.6156
8584.88
2.61548
8473.31
2.61536
8475.38
2.61524
8431.21
2.61512
8382.47
2.61501
8363.76
2.61489
8473.53
2.61477
8692.02
2.61465
8614.54
2.61453
8468.01
2.61441
8491.21
2.61429
8473.27
2.61417
8415.45
2.61405
8541.89
2.61393
8538.4
2.61381
8478.5
2.61369
8524.78
2.61357
8617.12
2.61345
8663.91
2.61333
8617.97
2.61321
8577.77
2.6131
8524.9
2.61298
8530.57
2.61286
8525.25
2.61274
8502.71
2.61262
8543.97
2.6125
8511.76
2.61238
8485.37
2.61226
8431.27
2.61214
8465.08
2.61202
8401.38
2.6119
8383.94
2.61178
8438.37
2.61167
8440.88
2.61155
8234.74
2.61143
8367.48
2.61131
8427.54
2.61119
8360.39
2.61107
8358.2
2.61095
8316.27
2.61083
8331.1
2.61071
8315.02
2.61059
8320.16
2.61048
8398.25
2.61036
8429.53
2.61024
8373.01
2.61012
8428.68
2.61
8507.56
2.60988
8415.46
2.60976
8276.67
2.60964
8407.05
2.60953
8421.43
2.60941
8395.98
2.60929
8368.89
2.60917
8419.37
2.60905
8555.81
2.60893
8589.17
2.60881
8503.82
2.60869
8650.77
2.60858
8691.8
2.60846
8722.73
2.60834
8708.47
2.60822
8744.29
2.6081
8863.55
2.60798
8733.87
2.60786
8715.36
2.60775
8691.53
2.60763
8780.05
2.60751
8751.76
2.60739
8719.86
2.60727
8639.64
2.60715
8612.39
2.60703
8552.88
2.60692
8788.35
2.6068
8510.01
2.60668
8431.36
2.60656
8488.33
2.60644
8375.78
2.60632
8408.46
2.60621
8494.59
2.60609
8445.51
2.60597
8377.72
2.60585
8347.6
2.60573
8166.27
2.60561
8205.44
2.6055
8232.43
2.60538
8230.18
2.60526
8271.3
2.60514
8153.02
2.60502
8076.87
2.60491
8221.84
2.60479
8245.44
2.60467
8304.38
2.60455
8176.97
2.60443
8232.46
2.60432
8355.17
2.6042
8476.47
2.60408
8517.14
2.60396
8494.56
2.60384
8618.38
2.60373
8679.64
2.60361
8848.88
2.60349
9118.01
2.60337
9131.7
2.60325
9476.13
2.60314
9743.74
2.60302
9888.09
2.6029
9986.34
2.60278
10027.8
2.60266
9736.3
2.60255
9454.53
2.60243
8894.25
2.60231
8681.24
2.60219
8553.96
2.60208
8378.92
2.60196
8473.44
2.60184
8501.71
2.60172
8672.49
2.6016
8764.15
2.60149
8733.02
2.60137
8895.11
2.60125
8956.47
2.60113
9044.3
2.60102
9166.04
2.6009
9441.68
2.60078
9839.47
2.60066
9934.57
2.60055
10319.9
2.60043
10586.1
2.60031
10975.2
2.60019
11500
2.60008
12140.2
2.59996
12838.5
2.59984
13701.3
2.59972
15482.5
2.59961
17459.4
2.59949
19961.3
2.59937
23708.3
2.59925
28149.1
2.59914
34042.1
2.59902
42014.6
2.5989
52075.4
2.59878
63390.9
2.59867
75659.3
2.59855
87177.8
2.59843
93030.4
2.59832
89609.9
2.5982
76148.8
2.59808
57685.6
2.59796
39613.5
2.59785
27114.7
2.59773
19266
2.59761
14618.2
2.5975
12111.3
2.59738
10437.9
2.59726
9442.25
2.59714
8768.67
2.59703
8255.06
2.59691
7948.62
2.59679
7883.68
2.59668
7793.88
2.59656
7786.01
2.59644
7944.36
2.59632
8146.01
2.59621
8394.65
2.59609
8446.08
2.59597
8567.58
2.59586
8717.66
2.59574
8542.44
2.59562
7985.22
2.59551
7561.51
2.59539
6934.09
2.59527
6447.48
2.59516
6111.17
2.59504
5764.81
2.59492
5492.96
2.59481
5536.71
2.59469
5481.4
2.59457
5446.31
2.59446
5593.67
2.59434
5698.52
2.59422
5889.42
2.59411
6124.22
2.59399
6275.85
2.59387
6577.21
2.59376
6825.32
2.59364
7122.52
2.59352
7583.83
2.59341
8152.4
2.59329
8734.25
2.59317
9448.91
2.59306
10295.4
2.59294
11635.4
2.59282
13223.2
2.59271
15315.2
2.59259
18292.1
2.59247
22355.2
2.59236
27516.4
2.59224
34203.2
2.59212
43157.4
2.59201
54455.6
2.59189
68532.6
2.59178
85273.1
2.59166
103041
2.59154
118676
2.59143
127237
2.59131
122291
2.59119
104007
2.59108
77968.8
2.59096
51640
2.59084
33090.7
2.59073
21662.7
2.59061
15332.1
2.5905
11126.2
2.59038
8624.83
2.59026
7089.69
2.59015
5911.89
2.59003
5179.58
2.58992
4481.13
2.5898
4027.56
2.58968
3657.62
2.58957
3374.64
2.58945
3102.97
2.58934
2863.9
2.58922
2778.01
2.5891
2642.39
2.58899
2515.9
2.58887
2378.24
2.58876
2253.01
2.58864
2170.85
2.58852
2088.89
2.58841
1995.92
2.58829
1970.24
2.58818
1840.52
2.58806
1821.26
2.58794
1787.43
2.58783
1750.62
2.58771
1709.48
2.5876
1662.02
2.58748
1651.31
2.58736
1583.59
2.58725
1546.7
2.58713
1528.24
2.58702
1582.86
2.5869
1547.44
2.58679
1503.72
2.58667
1428.62
2.58655
1358.84
2.58644
1399.45
2.58632
1395.38
2.58621
1379.22
2.58609
1371.58
2.58598
1349.88
2.58586
1305.13
2.58575
1304.85
2.58563
1278.88
2.58551
1338.29
2.5854
1334.14
2.58528
1302.66
2.58517
1306.21
2.58505
1283.67
2.58494
1278.12
2.58482
1284.8
2.58471
1288.47
2.58459
1231.46
2.58448
1232.98
2.58436
1240.53
2.58425
1192.57
2.58413
1198.52
2.58401
1184.33
2.5839
1178.39
2.58378
1171.37
2.58367
1156.41
2.58355
1164.44
2.58344
1159.06
2.58332
1180.45
2.58321
1166.53
2.58309
1196.75
2.58298
1167.33
2.58286
1177.13
2.58275
1193.75
2.58263
1174.17
2.58252
1169.58
2.5824
1166.48
2.58229
1171
2.58217
1101.19
2.58206
1101.59
2.58194
1132.01
2.58183
1166.56
2.58171
1159
2.5816
1157.59
2.58148
1158.42
2.58137
1081.92
2.58125
1118.57
2.58114
1135.54
2.58102
1110.55
2.58091
1160.69
2.58079
1167.56
2.58068
1120.85
2.58056
1073.44
2.58045
1117.51
2.58033
1174.05
2.58022
1157.39
2.5801
1136.91
2.57999
1144.1
2.57987
1067.87
2.57976
1096.8
2.57964
1084.97
2.57953
1049.28
2.57941
1103
2.5793
1097.18
2.57918
1151.45
2.57907
1092.07
2.57896
1099.99
2.57884
1138.45
2.57873
1161.39
2.57861
1103.44
2.5785
1100.71
2.57838
1100.38
2.57827
1128.5
2.57815
1116.95
2.57804
1179.52
2.57792
1176.22
2.57781
1105.23
2.5777
1144.89
2.57758
1097.9
2.57747
1082.95
2.57735
1135.14
2.57724
1090.59
2.57712
1089.51
2.57701
1120.59
2.57689
1082.26
2.57678
1070.49
2.57667
1082.03
2.57655
1079.52
2.57644
1089.85
2.57632
1088.31
2.57621
1131.71
2.57609
1087.03
2.57598
1075.76
2.57587
1090
2.57575
1144.47
2.57564
1087.54
2.57552
1097.43
2.57541
1087.02
2.5753
1111.08
2.57518
1061.81
2.57507
1058.42
2.57495
1061.48
2.57484
1092.94
2.57472
1087.43
2.57461
1131.69
2.5745
1087.64
2.57438
1101.69
2.57427
1084.87
2.57415
1064.88
2.57404
1106.36
2.57393
1092.69
2.57381
1105.71
2.5737
1106.37
2.57358
1055.72
2.57347
1075.01
2.57336
1091.52
2.57324
1077.73
2.57313
1042.35
2.57302
1074.87
2.5729
1080.64
2.57279
1040.78
2.57267
1082
2.57256
1092.65
2.57245
1062.55
2.57233
1106.25
2.57222
1101.05
2.5721
1063
2.57199
1070.28
2.57188
1114.67
2.57176
1087.46
2.57165
1048.46
2.57154
1089.41
2.57142
1021.31
2.57131
1064.38
2.5712
1095.59
2.57108
1082.4
2.57097
1096.78
2.57085
1045.8
2.57074
1096.03
2.57063
1095.27
2.57051
1097.59
2.5704
1073.97
2.57029
Ag3d
Ag in vacuum, short shirley
2020
3
6
22
14
31
0
17
Casa Info Follows
1
BackgroundSubtract
0
1
CASA region (*Ag 3d*) (*Shirley*) 1102.5638 1133.9582 17.742184 2 0 0 833.83732 -450 0 0 (*Ag 3d*) 107.878 0 18.04
0
EX340_CEC356_effect of lens modes.sle
Group = Ag in vacuum
First of group = 0
Analyzer lens = LargeArea:1.5kV
Analyzer slit = 4:7x20c\C:mesh
Scan mode = FixedAnalyzerTransmission
Kinetic energy start = 1036.61
Sum of 8 spectra in column containing 8 scans
C:\Users\pielsticker\Lukas\MPI-CEC\Projects\Gas phase background\inelasticscattering\data\N2\Au, Ag, Cu in N2.vms
CasaXP3
XPS
1
Al
1486.61
0
0
0
54.5
180
FAT
20
1
4.156
0
0
0
0
0
Ag3d

-1
kinetic energy
eV
1036.61
0.1
2
counts
d
Transmission
d
pulse counting
0.8
1
0
0
0
0
2
ESCAPE DEPTH TYPE
d
0
MFP Exponent
d
0
2002
111.645
16058.8
2.57029
2.69189
7149.55
2.69189
7212.09
2.69176
7195.03
2.69162
7215.52
2.69149
7267.75
2.69136
7148.26
2.69123
7226.14
2.6911
7304.93
2.69097
7204.99
2.69084
7220.56
2.69071
7208.82
2.69058
7201.59
2.69045
7187.93
2.69032
7311.09
2.69019
7308.51
2.69006
7281.85
2.68993
7162.46
2.6898
7162.77
2.68967
7185.3
2.68954
7240.53
2.68941
7218.2
2.68928
7170.12
2.68915
7262.42
2.68902
7181.35
2.68889
7228.18
2.68876
7201.42
2.68863
7179.44
2.6885
7141.15
2.68837
7277.27
2.68824
7186.11
2.68811
7295.79
2.68798
7253.32
2.68785
7103.66
2.68772
7131.25
2.68759
7196.36
2.68746
7281.68
2.68733
7265.37
2.6872
7173.95
2.68708
7122.64
2.68695
7196.81
2.68682
7135.75
2.68669
7118.88
2.68656
7160.16
2.68643
7214.67
2.6863
7232.26
2.68617
7167.63
2.68604
7138.52
2.68591
7193.3
2.68578
7214.42
2.68565
7120.75
2.68552
7269.19
2.68539
7321.18
2.68526
7241.45
2.68513
7269.88
2.685
7268.3
2.68487
7088.43
2.68474
7228.36
2.68461
7276.47
2.68449
7226.6
2.68436
7114.05
2.68423
7259.36
2.6841
7275.82
2.68397
7235.9
2.68384
7116.11
2.68371
7106.91
2.68358
7187.5
2.68345
7093.35
2.68332
7172.08
2.68319
7241.22
2.68306
7185.28
2.68294
7342.22
2.68281
7337.72
2.68268
7134.49
2.68255
7303.82
2.68242
7315.21
2.68229
7207.65
2.68216
7254.06
2.68203
7172.87
2.6819
7244.6
2.68177
7223.47
2.68165
7176.53
2.68152
7158.85
2.68139
7117.1
2.68126
7173.21
2.68113
7169.34
2.681
7322.11
2.68087
7284.14
2.68074
7246.46
2.68062
7232.75
2.68049
7311.4
2.68036
7323.81
2.68023
7093.13
2.6801
7316.31
2.67997
7209.1
2.67984
7226
2.67971
7255.26
2.67959
7251.01
2.67946
7239.68
2.67933
7240.28
2.6792
7263.9
2.67907
7204.9
2.67894
7179.2
2.67881
7141.89
2.67869
7238.73
2.67856
7182.47
2.67843
7248.01
2.6783
7203.22
2.67817
7115.56
2.67804
7210.98
2.67792
7209.8
2.67779
7218
2.67766
7293.85
2.67753
7175.5
2.6774
7208.09
2.67727
7270.91
2.67715
7180.85
2.67702
7244.65
2.67689
7141.78
2.67676
7183.69
2.67663
7214.23
2.67651
7278.79
2.67638
7117.48
2.67625
7133.17
2.67612
7338.38
2.67599
7291.99
2.67586
7252.58
2.67574
7335.14
2.67561
7328.65
2.67548
7280.55
2.67535
7246.18
2.67522
7178.48
2.6751
7197.48
2.67497
7329.31
2.67484
7084.13
2.67471
7160.21
2.67459
7193.21
2.67446
7188.21
2.67433
7345.19
2.6742
7151.73
2.67407
7191.87
2.67395
7208.96
2.67382
7264.74
2.67369
7237.55
2.67356
7154.63
2.67344
7203.66
2.67331
7259.92
2.67318
7260.44
2.67305
7123.22
2.67292
7170.79
2.6728
7239.03
2.67267
7199.52
2.67254
7327.29
2.67241
7197.6
2.67229
7201.9
2.67216
7333.75
2.67203
7325.55
2.6719
7363.27
2.67178
7217.66
2.67165
7303.28
2.67152
7278.45
2.67139
7394.81
2.67127
7273.76
2.67114
7212.64
2.67101
7178.06
2.67088
7269.92
2.67076
7373.08
2.67063
7266.95
2.6705
7329.56
2.67038
7269.66
2.67025
7378.94
2.67012
7336.63
2.66999
7193.82
2.66987
7272.37
2.66974
7110.33
2.66961
7192.26
2.66949
7278.2
2.66936
7308.19
2.66923
7200.82
2.6691
7200.19
2.66898
7157.76
2.66885
7201.63
2.66872
7243.55
2.6686
7253.36
2.66847
7088.15
2.66834
7311.4
2.66821
7245.2
2.66809
7240.1
2.66796
7285.79
2.66783
7288.19
2.66771
7260.64
2.66758
7192.3
2.66745
7193.73
2.66733
7188.6
2.6672
7265.31
2.66707
7351.56
2.66695
7304.94
2.66682
7287.12
2.66669
7246.81
2.66657
7352.27
2.66644
7321.55
2.66631
7298.18
2.66619
7297.93
2.66606
7343.76
2.66593
7259.53
2.66581
7301.35
2.66568
7372.91
2.66555
7446.28
2.66543
7301.99
2.6653
7354.2
2.66517
7302.49
2.66505
7282.05
2.66492
7251.3
2.66479
7208.05
2.66467
7317.16
2.66454
7174.73
2.66441
7210.24
2.66429
7340.74
2.66416
7378.52
2.66403
7203.3
2.66391
7395.44
2.66378
7292.63
2.66366
7204.56
2.66353
7322.22
2.6634
7280.77
2.66328
7164.55
2.66315
7226.73
2.66302
7349.66
2.6629
7299.29
2.66277
7248.8
2.66265
7352.42
2.66252
7302.67
2.66239
7401.85
2.66227
7295.99
2.66214
7291.26
2.66202
7320.35
2.66189
7425.04
2.66176
7395.32
2.66164
7518.35
2.66151
7458.12
2.66139
7280.69
2.66126
7233.73
2.66113
7283.76
2.66101
7358.77
2.66088
7382.91
2.66076
7315.6
2.66063
7313.93
2.6605
7497.68
2.66038
7396.51
2.66025
7403.41
2.66013
7287.91
2.66
7356.6
2.65987
7432.07
2.65975
7431.53
2.65962
7375.54
2.6595
7363.39
2.65937
7493.52
2.65925
7277.98
2.65912
7336.98
2.65899
7418.41
2.65887
7354.34
2.65874
7393.85
2.65862
7371.44
2.65849
7432.12
2.65837
7539.68
2.65824
7424.37
2.65812
7351.03
2.65799
7419.64
2.65786
7378.39
2.65774
7440.73
2.65761
7332.05
2.65749
7412.72
2.65736
7447.6
2.65724
7436.2
2.65711
7346.83
2.65699
7380.03
2.65686
7430.88
2.65674
7455.29
2.65661
7419.29
2.65649
7447.9
2.65636
7453.07
2.65624
7315.14
2.65611
7295.87
2.65598
7290.16
2.65586
7381.01
2.65573
7293.58
2.65561
7421.21
2.65548
7292.42
2.65536
7428.55
2.65523
7344.43
2.65511
7385
2.65498
7303.99
2.65486
7407.07
2.65473
7411.73
2.65461
7376.3
2.65448
7291.36
2.65436
7447.42
2.65423
7452.77
2.65411
7327.58
2.65398
7287.83
2.65386
7351.69
2.65373
7351.7
2.65361
7467.86
2.65348
7372.99
2.65336
7322.47
2.65323
7349.07
2.65311
7474.08
2.65298
7479.8
2.65286
7360.44
2.65273
7397.46
2.65261
7251.01
2.65249
7186.18
2.65236
7245.13
2.65224
7260.92
2.65211
7287.86
2.65199
7358.47
2.65186
7521.02
2.65174
7432.17
2.65161
7260.78
2.65149
7367.05
2.65136
7309.94
2.65124
7518.67
2.65111
7407.31
2.65099
7332.61
2.65087
7433.1
2.65074
7490.19
2.65062
7344.88
2.65049
7244.22
2.65037
7456.39
2.65024
7258.17
2.65012
7349.17
2.64999
7221.22
2.64987
7260.94
2.64975
7312.45
2.64962
7291.54
2.6495
7384.96
2.64937
7337.68
2.64925
7291.9
2.64912
7178.06
2.649
7384.12
2.64888
7422.37
2.64875
7428.03
2.64863
7431.56
2.6485
7440.42
2.64838
7468.36
2.64826
7305.13
2.64813
7300.06
2.64801
7436.39
2.64788
7341.46
2.64776
7469.95
2.64763
7425.03
2.64751
7428.69
2.64739
7432.75
2.64726
7392.38
2.64714
7442.55
2.64701
7416.71
2.64689
7453.86
2.64677
7419.83
2.64664
7373.53
2.64652
7402.02
2.6464
7457.28
2.64627
7457.6
2.64615
7453.76
2.64602
7415.83
2.6459
7416.39
2.64578
7504.14
2.64565
7539.66
2.64553
7523.65
2.6454
7439.28
2.64528
7412.8
2.64516
7445.83
2.64503
7564.51
2.64491
7443.77
2.64479
7464.32
2.64466
7451.94
2.64454
7362.01
2.64442
7542.07
2.64429
7478.02
2.64417
7399.56
2.64404
7473.25
2.64392
7391.69
2.6438
7423.69
2.64367
7537.19
2.64355
7387.6
2.64343
7419.11
2.6433
7483.36
2.64318
7479.19
2.64306
7532.76
2.64293
7482.61
2.64281
7602.67
2.64269
7570.07
2.64256
7536.21
2.64244
7573.38
2.64232
7518.03
2.64219
7523.73
2.64207
7464.42
2.64195
7604.37
2.64182
7559.08
2.6417
7487.52
2.64158
7602.44
2.64145
7592.27
2.64133
7554.43
2.64121
7512.3
2.64108
7546.13
2.64096
7553.11
2.64084
7550.32
2.64072
7683.53
2.64059
7759.25
2.64047
7587.97
2.64035
7720.5
2.64022
7608.74
2.6401
7651.94
2.63998
7717.86
2.63985
7576.43
2.63973
7660.74
2.63961
7628.5
2.63949
7657.66
2.63936
7645.15
2.63924
7718.26
2.63912
7639.73
2.63899
7554.57
2.63887
7681.43
2.63875
7673.92
2.63863
7612.53
2.6385
7629.27
2.63838
7648.24
2.63826
7852.76
2.63813
7709.87
2.63801
7780.52
2.63789
7627.39
2.63777
7588.32
2.63764
7589.1
2.63752
7657.04
2.6374
7764.49
2.63728
7884.29
2.63715
7792.58
2.63703
7815.59
2.63691
7763.21
2.63679
7784.81
2.63666
7780.36
2.63654
7769.49
2.63642
7891.54
2.6363
7853.04
2.63617
7749.11
2.63605
7688.47
2.63593
7795.67
2.63581
7801.86
2.63568
7854.95
2.63556
7806.59
2.63544
7799.83
2.63532
7951.48
2.63519
7864.47
2.63507
7862.35
2.63495
7890.93
2.63483
7835.32
2.63471
7929.21
2.63458
7932.56
2.63446
8030.08
2.63434
7841.01
2.63422
7871.8
2.63409
7839.27
2.63397
7823.97
2.63385
8017.23
2.63373
8093.63
2.63361
8055.4
2.63348
7930.18
2.63336
8008.3
2.63324
8040.15
2.63312
7934.57
2.633
7868.21
2.63287
7816.11
2.63275
7968.93
2.63263
7918.76
2.63251
8068.99
2.63239
7866.63
2.63226
7892.64
2.63214
7863.12
2.63202
7754.38
2.6319
7907.07
2.63178
8108.62
2.63166
8141.2
2.63153
7965.99
2.63141
7914
2.63129
8126.14
2.63117
8106.02
2.63105
8192.21
2.63092
8082.14
2.6308
8147.16
2.63068
8212.5
2.63056
8168.33
2.63044
8178.58
2.63032
8204.08
2.63019
8132.22
2.63007
8191.59
2.62995
8301.73
2.62983
8374.47
2.62971
8396.53
2.62959
8356.86
2.62947
8347.37
2.62934
8356.1
2.62922
8386.48
2.6291
8251
2.62898
8346.68
2.62886
8344.28
2.62874
8329.86
2.62862
8265.47
2.62849
8273.87
2.62837
8463.46
2.62825
8465.35
2.62813
8309.75
2.62801
8530.77
2.62789
8422.92
2.62777
8326.88
2.62764
8400.36
2.62752
8392.3
2.6274
8412.22
2.62728
8296.71
2.62716
8296.92
2.62704
8401.31
2.62692
8382.17
2.6268
8486.41
2.62668
8322.88
2.62655
8428.77
2.62643
8581.33
2.62631
8415.43
2.62619
8361.12
2.62607
8325.39
2.62595
8410.19
2.62583
8373.4
2.62571
8217.55
2.62559
8217.98
2.62547
8215.96
2.62534
8192.4
2.62522
8288.27
2.6251
8260.47
2.62498
8158.98
2.62486
8356.43
2.62474
8353.67
2.62462
8496.96
2.6245
8416.34
2.62438
8435.31
2.62426
8432.39
2.62414
8377.93
2.62401
8461.79
2.62389
8403.63
2.62377
8478.49
2.62365
8432.57
2.62353
8516.09
2.62341
8507.5
2.62329
8509.81
2.62317
8462.3
2.62305
8663.13
2.62293
8580.7
2.62281
8605.37
2.62269
8708.57
2.62257
8699.46
2.62245
8758.22
2.62233
8725
2.62221
8725.89
2.62209
8745.02
2.62196
8650.03
2.62184
8770.84
2.62172
8766.16
2.6216
8870.35
2.62148
8913.03
2.62136
8798.6
2.62124
8752.54
2.62112
8826.64
2.621
8725
2.62088
8885.44
2.62076
8764.39
2.62064
8809.03
2.62052
8729.02
2.6204
8795.2
2.62028
8761.32
2.62016
8779.3
2.62004
8944.46
2.61992
8749.28
2.6198
8750.5
2.61968
8747.15
2.61956
8801.81
2.61944
8690.28
2.61932
8652.04
2.6192
8484.28
2.61908
8697.4
2.61896
8700.83
2.61884
8707.87
2.61872
8693.74
2.6186
8624.5
2.61848
8564.1
2.61836
8625.52
2.61824
8568.13
2.61812
8619.84
2.618
8644.96
2.61788
8581.27
2.61776
8420.68
2.61764
8543.82
2.61752
8580.1
2.6174
8535.56
2.61728
8484.57
2.61716
8437.56
2.61704
8578.68
2.61692
8648.47
2.6168
8494
2.61668
8403.79
2.61656
8486.45
2.61644
8399.3
2.61632
8379.96
2.6162
8478.7
2.61608
8430.33
2.61596
8345.05
2.61584
8299.17
2.61572
8442.87
2.6156
8584.88
2.61548
8473.31
2.61536
8475.38
2.61524
8431.21
2.61512
8382.47
2.61501
8363.76
2.61489
8473.53
2.61477
8692.02
2.61465
8614.54
2.61453
8468.01
2.61441
8491.21
2.61429
8473.27
2.61417
8415.45
2.61405
8541.89
2.61393
8538.4
2.61381
8478.5
2.61369
8524.78
2.61357
8617.12
2.61345
8663.91
2.61333
8617.97
2.61321
8577.77
2.6131
8524.9
2.61298
8530.57
2.61286
8525.25
2.61274
8502.71
2.61262
8543.97
2.6125
8511.76
2.61238
8485.37
2.61226
8431.27
2.61214
8465.08
2.61202
8401.38
2.6119
8383.94
2.61178
8438.37
2.61167
8440.88
2.61155
8234.74
2.61143
8367.48
2.61131
8427.54
2.61119
8360.39
2.61107
8358.2
2.61095
8316.27
2.61083
8331.1
2.61071
8315.02
2.61059
8320.16
2.61048
8398.25
2.61036
8429.53
2.61024
8373.01
2.61012
8428.68
2.61
8507.56
2.60988
8415.46
2.60976
8276.67
2.60964
8407.05
2.60953
8421.43
2.60941
8395.98
2.60929
8368.89
2.60917
8419.37
2.60905
8555.81
2.60893
8589.17
2.60881
8503.82
2.60869
8650.77
2.60858
8691.8
2.60846
8722.73
2.60834
8708.47
2.60822
8744.29
2.6081
8863.55
2.60798
8733.87
2.60786
8715.36
2.60775
8691.53
2.60763
8780.05
2.60751
8751.76
2.60739
8719.86
2.60727
8639.64
2.60715
8612.39
2.60703
8552.88
2.60692
8788.35
2.6068
8510.01
2.60668
8431.36
2.60656
8488.33
2.60644
8375.78
2.60632
8408.46
2.60621
8494.59
2.60609
8445.51
2.60597
8377.72
2.60585
8347.6
2.60573
8166.27
2.60561
8205.44
2.6055
8232.43
2.60538
8230.18
2.60526
8271.3
2.60514
8153.02
2.60502
8076.87
2.60491
8221.84
2.60479
8245.44
2.60467
8304.38
2.60455
8176.97
2.60443
8232.46
2.60432
8355.17
2.6042
8476.47
2.60408
8517.14
2.60396
8494.56
2.60384
8618.38
2.60373
8679.64
2.60361
8848.88
2.60349
9118.01
2.60337
9131.7
2.60325
9476.13
2.60314
9743.74
2.60302
9888.09
2.6029
9986.34
2.60278
10027.8
2.60266
9736.3
2.60255
9454.53
2.60243
8894.25
2.60231
8681.24
2.60219
8553.96
2.60208
8378.92
2.60196
8473.44
2.60184
8501.71
2.60172
8672.49
2.6016
8764.15
2.60149
8733.02
2.60137
8895.11
2.60125
8956.47
2.60113
9044.3
2.60102
9166.04
2.6009
9441.68
2.60078
9839.47
2.60066
9934.57
2.60055
10319.9
2.60043
10586.1
2.60031
10975.2
2.60019
11500
2.60008
12140.2
2.59996
12838.5
2.59984
13701.3
2.59972
15482.5
2.59961
17459.4
2.59949
19961.3
2.59937
23708.3
2.59925
28149.1
2.59914
34042.1
2.59902
42014.6
2.5989
52075.4
2.59878
63390.9
2.59867
75659.3
2.59855
87177.8
2.59843
93030.4
2.59832
89609.9
2.5982
76148.8
2.59808
57685.6
2.59796
39613.5
2.59785
27114.7
2.59773
19266
2.59761
14618.2
2.5975
12111.3
2.59738
10437.9
2.59726
9442.25
2.59714
8768.67
2.59703
8255.06
2.59691
7948.62
2.59679
7883.68
2.59668
7793.88
2.59656
7786.01
2.59644
7944.36
2.59632
8146.01
2.59621
8394.65
2.59609
8446.08
2.59597
8567.58
2.59586
8717.66
2.59574
8542.44
2.59562
7985.22
2.59551
7561.51
2.59539
6934.09
2.59527
6447.48
2.59516
6111.17
2.59504
5764.81
2.59492
5492.96
2.59481
5536.71
2.59469
5481.4
2.59457
5446.31
2.59446
5593.67
2.59434
5698.52
2.59422
5889.42
2.59411
6124.22
2.59399
6275.85
2.59387
6577.21
2.59376
6825.32
2.59364
7122.52
2.59352
7583.83
2.59341
8152.4
2.59329
8734.25
2.59317
9448.91
2.59306
10295.4
2.59294
11635.4
2.59282
13223.2
2.59271
15315.2
2.59259
18292.1
2.59247
22355.2
2.59236
27516.4
2.59224
34203.2
2.59212
43157.4
2.59201
54455.6
2.59189
68532.6
2.59178
85273.1
2.59166
103041
2.59154
118676
2.59143
127237
2.59131
122291
2.59119
104007
2.59108
77968.8
2.59096
51640
2.59084
33090.7
2.59073
21662.7
2.59061
15332.1
2.5905
11126.2
2.59038
8624.83
2.59026
7089.69
2.59015
5911.89
2.59003
5179.58
2.58992
4481.13
2.5898
4027.56
2.58968
3657.62
2.58957
3374.64
2.58945
3102.97
2.58934
2863.9
2.58922
2778.01
2.5891
2642.39
2.58899
2515.9
2.58887
2378.24
2.58876
2253.01
2.58864
2170.85
2.58852
2088.89
2.58841
1995.92
2.58829
1970.24
2.58818
1840.52
2.58806
1821.26
2.58794
1787.43
2.58783
1750.62
2.58771
1709.48
2.5876
1662.02
2.58748
1651.31
2.58736
1583.59
2.58725
1546.7
2.58713
1528.24
2.58702
1582.86
2.5869
1547.44
2.58679
1503.72
2.58667
1428.62
2.58655
1358.84
2.58644
1399.45
2.58632
1395.38
2.58621
1379.22
2.58609
1371.58
2.58598
1349.88
2.58586
1305.13
2.58575
1304.85
2.58563
1278.88
2.58551
1338.29
2.5854
1334.14
2.58528
1302.66
2.58517
1306.21
2.58505
1283.67
2.58494
1278.12
2.58482
1284.8
2.58471
1288.47
2.58459
1231.46
2.58448
1232.98
2.58436
1240.53
2.58425
1192.57
2.58413
1198.52
2.58401
1184.33
2.5839
1178.39
2.58378
1171.37
2.58367
1156.41
2.58355
1164.44
2.58344
1159.06
2.58332
1180.45
2.58321
1166.53
2.58309
1196.75
2.58298
1167.33
2.58286
1177.13
2.58275
1193.75
2.58263
1174.17
2.58252
1169.58
2.5824
1166.48
2.58229
1171
2.58217
1101.19
2.58206
1101.59
2.58194
1132.01
2.58183
1166.56
2.58171
1159
2.5816
1157.59
2.58148
1158.42
2.58137
1081.92
2.58125
1118.57
2.58114
1135.54
2.58102
1110.55
2.58091
1160.69
2.58079
1167.56
2.58068
1120.85
2.58056
1073.44
2.58045
1117.51
2.58033
1174.05
2.58022
1157.39
2.5801
1136.91
2.57999
1144.1
2.57987
1067.87
2.57976
1096.8
2.57964
1084.97
2.57953
1049.28
2.57941
1103
2.5793
1097.18
2.57918
1151.45
2.57907
1092.07
2.57896
1099.99
2.57884
1138.45
2.57873
1161.39
2.57861
1103.44
2.5785
1100.71
2.57838
1100.38
2.57827
1128.5
2.57815
1116.95
2.57804
1179.52
2.57792
1176.22
2.57781
1105.23
2.5777
1144.89
2.57758
1097.9
2.57747
1082.95
2.57735
1135.14
2.57724
1090.59
2.57712
1089.51
2.57701
1120.59
2.57689
1082.26
2.57678
1070.49
2.57667
1082.03
2.57655
1079.52
2.57644
1089.85
2.57632
1088.31
2.57621
1131.71
2.57609
1087.03
2.57598
1075.76
2.57587
1090
2.57575
1144.47
2.57564
1087.54
2.57552
1097.43
2.57541
1087.02
2.5753
1111.08
2.57518
1061.81
2.57507
1058.42
2.57495
1061.48
2.57484
1092.94
2.57472
1087.43
2.57461
1131.69
2.5745
1087.64
2.57438
1101.69
2.57427
1084.87
2.57415
1064.88
2.57404
1106.36
2.57393
1092.69
2.57381
1105.71
2.5737
1106.37
2.57358
1055.72
2.57347
1075.01
2.57336
1091.52
2.57324
1077.73
2.57313
1042.35
2.57302
1074.87
2.5729
1080.64
2.57279
1040.78
2.57267
1082
2.57256
1092.65
2.57245
1062.55
2.57233
1106.25
2.57222
1101.05
2.5721
1063
2.57199
1070.28
2.57188
1114.67
2.57176
1087.46
2.57165
1048.46
2.57154
1089.41
2.57142
1021.31
2.57131
1064.38
2.5712
1095.59
2.57108
1082.4
2.57097
1096.78
2.57085
1045.8
2.57074
1096.03
2.57063
1095.27
2.57051
1097.59
2.5704
1073.97
2.57029
Ag3d
Ag in vacuum, long shirley
2020
3
6
22
14
31
0
17
Casa Info Follows
1
BackgroundSubtract
0
1
CASA region (*Ag 3d*) (*Shirley*) 1070.5707 1133.9582 17.742184 2 0 0 833.83732 -450 0 0 (*Ag 3d*) 107.878 0 18.04
0
EX340_CEC356_effect of lens modes.sle
Group = Ag in vacuum
First of group = 0
Analyzer lens = LargeArea:1.5kV
Analyzer slit = 4:7x20c\C:mesh
Scan mode = FixedAnalyzerTransmission
Kinetic energy start = 1036.61
Sum of 8 spectra in column containing 8 scans
C:\Users\pielsticker\Lukas\MPI-CEC\Projects\Gas phase background\inelasticscattering\data\N2\Au, Ag, Cu in N2.vms
CasaXP3
XPS
1
Al
1486.61
0
0
0
54.5
180
FAT
20
1
4.156
0
0
0
0
0
Ag3d

-1
kinetic energy
eV
1036.61
0.1
2
counts
d
Transmission
d
pulse counting
0.8
1
0
0
0
0
2
ESCAPE DEPTH TYPE
d
0
MFP Exponent
d
0
2002
111.645
16058.8
2.57029
2.69189
7149.55
2.69189
7212.09
2.69176
7195.03
2.69162
7215.52
2.69149
7267.75
2.69136
7148.26
2.69123
7226.14
2.6911
7304.93
2.69097
7204.99
2.69084
7220.56
2.69071
7208.82
2.69058
7201.59
2.69045
7187.93
2.69032
7311.09
2.69019
7308.51
2.69006
7281.85
2.68993
7162.46
2.6898
7162.77
2.68967
7185.3
2.68954
7240.53
2.68941
7218.2
2.68928
7170.12
2.68915
7262.42
2.68902
7181.35
2.68889
7228.18
2.68876
7201.42
2.68863
7179.44
2.6885
7141.15
2.68837
7277.27
2.68824
7186.11
2.68811
7295.79
2.68798
7253.32
2.68785
7103.66
2.68772
7131.25
2.68759
7196.36
2.68746
7281.68
2.68733
7265.37
2.6872
7173.95
2.68708
7122.64
2.68695
7196.81
2.68682
7135.75
2.68669
7118.88
2.68656
7160.16
2.68643
7214.67
2.6863
7232.26
2.68617
7167.63
2.68604
7138.52
2.68591
7193.3
2.68578
7214.42
2.68565
7120.75
2.68552
7269.19
2.68539
7321.18
2.68526
7241.45
2.68513
7269.88
2.685
7268.3
2.68487
7088.43
2.68474
7228.36
2.68461
7276.47
2.68449
7226.6
2.68436
7114.05
2.68423
7259.36
2.6841
7275.82
2.68397
7235.9
2.68384
7116.11
2.68371
7106.91
2.68358
7187.5
2.68345
7093.35
2.68332
7172.08
2.68319
7241.22
2.68306
7185.28
2.68294
7342.22
2.68281
7337.72
2.68268
7134.49
2.68255
7303.82
2.68242
7315.21
2.68229
7207.65
2.68216
7254.06
2.68203
7172.87
2.6819
7244.6
2.68177
7223.47
2.68165
7176.53
2.68152
7158.85
2.68139
7117.1
2.68126
7173.21
2.68113
7169.34
2.681
7322.11
2.68087
7284.14
2.68074
7246.46
2.68062
7232.75
2.68049
7311.4
2.68036
7323.81
2.68023
7093.13
2.6801
7316.31
2.67997
7209.1
2.67984
7226
2.67971
7255.26
2.67959
7251.01
2.67946
7239.68
2.67933
7240.28
2.6792
7263.9
2.67907
7204.9
2.67894
7179.2
2.67881
7141.89
2.67869
7238.73
2.67856
7182.47
2.67843
7248.01
2.6783
7203.22
2.67817
7115.56
2.67804
7210.98
2.67792
7209.8
2.67779
7218
2.67766
7293.85
2.67753
7175.5
2.6774
7208.09
2.67727
7270.91
2.67715
7180.85
2.67702
7244.65
2.67689
7141.78
2.67676
7183.69
2.67663
7214.23
2.67651
7278.79
2.67638
7117.48
2.67625
7133.17
2.67612
7338.38
2.67599
7291.99
2.67586
7252.58
2.67574
7335.14
2.67561
7328.65
2.67548
7280.55
2.67535
7246.18
2.67522
7178.48
2.6751
7197.48
2.67497
7329.31
2.67484
7084.13
2.67471
7160.21
2.67459
7193.21
2.67446
7188.21
2.67433
7345.19
2.6742
7151.73
2.67407
7191.87
2.67395
7208.96
2.67382
7264.74
2.67369
7237.55
2.67356
7154.63
2.67344
7203.66
2.67331
7259.92
2.67318
7260.44
2.67305
7123.22
2.67292
7170.79
2.6728
7239.03
2.67267
7199.52
2.67254
7327.29
2.67241
7197.6
2.67229
7201.9
2.67216
7333.75
2.67203
7325.55
2.6719
7363.27
2.67178
7217.66
2.67165
7303.28
2.67152
7278.45
2.67139
7394.81
2.67127
7273.76
2.67114
7212.64
2.67101
7178.06
2.67088
7269.92
2.67076
7373.08
2.67063
7266.95
2.6705
7329.56
2.67038
7269.66
2.67025
7378.94
2.67012
7336.63
2.66999
7193.82
2.66987
7272.37
2.66974
7110.33
2.66961
7192.26
2.66949
7278.2
2.66936
7308.19
2.66923
7200.82
2.6691
7200.19
2.66898
7157.76
2.66885
7201.63
2.66872
7243.55
2.6686
7253.36
2.66847
7088.15
2.66834
7311.4
2.66821
7245.2
2.66809
7240.1
2.66796
7285.79
2.66783
7288.19
2.66771
7260.64
2.66758
7192.3
2.66745
7193.73
2.66733
7188.6
2.6672
7265.31
2.66707
7351.56
2.66695
7304.94
2.66682
7287.12
2.66669
7246.81
2.66657
7352.27
2.66644
7321.55
2.66631
7298.18
2.66619
7297.93
2.66606
7343.76
2.66593
7259.53
2.66581
7301.35
2.66568
7372.91
2.66555
7446.28
2.66543
7301.99
2.6653
7354.2
2.66517
7302.49
2.66505
7282.05
2.66492
7251.3
2.66479
7208.05
2.66467
7317.16
2.66454
7174.73
2.66441
7210.24
2.66429
7340.74
2.66416
7378.52
2.66403
7203.3
2.66391
7395.44
2.66378
7292.63
2.66366
7204.56
2.66353
7322.22
2.6634
7280.77
2.66328
7164.55
2.66315
7226.73
2.66302
7349.66
2.6629
7299.29
2.66277
7248.8
2.66265
7352.42
2.66252
7302.67
2.66239
7401.85
2.66227
7295.99
2.66214
7291.26
2.66202
7320.35
2.66189
7425.04
2.66176
7395.32
2.66164
7518.35
2.66151
7458.12
2.66139
7280.69
2.66126
7233.73
2.66113
7283.76
2.66101
7358.77
2.66088
7382.91
2.66076
7315.6
2.66063
7313.93
2.6605
7497.68
2.66038
7396.51
2.66025
7403.41
2.66013
7287.91
2.66
7356.6
2.65987
7432.07
2.65975
7431.53
2.65962
7375.54
2.6595
7363.39
2.65937
7493.52
2.65925
7277.98
2.65912
7336.98
2.65899
7418.41
2.65887
7354.34
2.65874
7393.85
2.65862
7371.44
2.65849
7432.12
2.65837
7539.68
2.65824
7424.37
2.65812
7351.03
2.65799
7419.64
2.65786
7378.39
2.65774
7440.73
2.65761
7332.05
2.65749
7412.72
2.65736
7447.6
2.65724
7436.2
2.65711
7346.83
2.65699
7380.03
2.65686
7430.88
2.65674
7455.29
2.65661
7419.29
2.65649
7447.9
2.65636
7453.07
2.65624
7315.14
2.65611
7295.87
2.65598
7290.16
2.65586
7381.01
2.65573
7293.58
2.65561
7421.21
2.65548
7292.42
2.65536
7428.55
2.65523
7344.43
2.65511
7385
2.65498
7303.99
2.65486
7407.07
2.65473
7411.73
2.65461
7376.3
2.65448
7291.36
2.65436
7447.42
2.65423
7452.77
2.65411
7327.58
2.65398
7287.83
2.65386
7351.69
2.65373
7351.7
2.65361
7467.86
2.65348
7372.99
2.65336
7322.47
2.65323
7349.07
2.65311
7474.08
2.65298
7479.8
2.65286
7360.44
2.65273
7397.46
2.65261
7251.01
2.65249
7186.18
2.65236
7245.13
2.65224
7260.92
2.65211
7287.86
2.65199
7358.47
2.65186
7521.02
2.65174
7432.17
2.65161
7260.78
2.65149
7367.05
2.65136
7309.94
2.65124
7518.67
2.65111
7407.31
2.65099
7332.61
2.65087
7433.1
2.65074
7490.19
2.65062
7344.88
2.65049
7244.22
2.65037
7456.39
2.65024
7258.17
2.65012
7349.17
2.64999
7221.22
2.64987
7260.94
2.64975
7312.45
2.64962
7291.54
2.6495
7384.96
2.64937
7337.68
2.64925
7291.9
2.64912
7178.06
2.649
7384.12
2.64888
7422.37
2.64875
7428.03
2.64863
7431.56
2.6485
7440.42
2.64838
7468.36
2.64826
7305.13
2.64813
7300.06
2.64801
7436.39
2.64788
7341.46
2.64776
7469.95
2.64763
7425.03
2.64751
7428.69
2.64739
7432.75
2.64726
7392.38
2.64714
7442.55
2.64701
7416.71
2.64689
7453.86
2.64677
7419.83
2.64664
7373.53
2.64652
7402.02
2.6464
7457.28
2.64627
7457.6
2.64615
7453.76
2.64602
7415.83
2.6459
7416.39
2.64578
7504.14
2.64565
7539.66
2.64553
7523.65
2.6454
7439.28
2.64528
7412.8
2.64516
7445.83
2.64503
7564.51
2.64491
7443.77
2.64479
7464.32
2.64466
7451.94
2.64454
7362.01
2.64442
7542.07
2.64429
7478.02
2.64417
7399.56
2.64404
7473.25
2.64392
7391.69
2.6438
7423.69
2.64367
7537.19
2.64355
7387.6
2.64343
7419.11
2.6433
7483.36
2.64318
7479.19
2.64306
7532.76
2.64293
7482.61
2.64281
7602.67
2.64269
7570.07
2.64256
7536.21
2.64244
7573.38
2.64232
7518.03
2.64219
7523.73
2.64207
7464.42
2.64195
7604.37
2.64182
7559.08
2.6417
7487.52
2.64158
7602.44
2.64145
7592.27
2.64133
7554.43
2.64121
7512.3
2.64108
7546.13
2.64096
7553.11
2.64084
7550.32
2.64072
7683.53
2.64059
7759.25
2.64047
7587.97
2.64035
7720.5
2.64022
7608.74
2.6401
7651.94
2.63998
7717.86
2.63985
7576.43
2.63973
7660.74
2.63961
7628.5
2.63949
7657.66
2.63936
7645.15
2.63924
7718.26
2.63912
7639.73
2.63899
7554.57
2.63887
7681.43
2.63875
7673.92
2.63863
7612.53
2.6385
7629.27
2.63838
7648.24
2.63826
7852.76
2.63813
7709.87
2.63801
7780.52
2.63789
7627.39
2.63777
7588.32
2.63764
7589.1
2.63752
7657.04
2.6374
7764.49
2.63728
7884.29
2.63715
7792.58
2.63703
7815.59
2.63691
7763.21
2.63679
7784.81
2.63666
7780.36
2.63654
7769.49
2.63642
7891.54
2.6363
7853.04
2.63617
7749.11
2.63605
7688.47
2.63593
7795.67
2.63581
7801.86
2.63568
7854.95
2.63556
7806.59
2.63544
7799.83
2.63532
7951.48
2.63519
7864.47
2.63507
7862.35
2.63495
7890.93
2.63483
7835.32
2.63471
7929.21
2.63458
7932.56
2.63446
8030.08
2.63434
7841.01
2.63422
7871.8
2.63409
7839.27
2.63397
7823.97
2.63385
8017.23
2.63373
8093.63
2.63361
8055.4
2.63348
7930.18
2.63336
8008.3
2.63324
8040.15
2.63312
7934.57
2.633
7868.21
2.63287
7816.11
2.63275
7968.93
2.63263
7918.76
2.63251
8068.99
2.63239
7866.63
2.63226
7892.64
2.63214
7863.12
2.63202
7754.38
2.6319
7907.07
2.63178
8108.62
2.63166
8141.2
2.63153
7965.99
2.63141
7914
2.63129
8126.14
2.63117
8106.02
2.63105
8192.21
2.63092
8082.14
2.6308
8147.16
2.63068
8212.5
2.63056
8168.33
2.63044
8178.58
2.63032
8204.08
2.63019
8132.22
2.63007
8191.59
2.62995
8301.73
2.62983
8374.47
2.62971
8396.53
2.62959
8356.86
2.62947
8347.37
2.62934
8356.1
2.62922
8386.48
2.6291
8251
2.62898
8346.68
2.62886
8344.28
2.62874
8329.86
2.62862
8265.47
2.62849
8273.87
2.62837
8463.46
2.62825
8465.35
2.62813
8309.75
2.62801
8530.77
2.62789
8422.92
2.62777
8326.88
2.62764
8400.36
2.62752
8392.3
2.6274
8412.22
2.62728
8296.71
2.62716
8296.92
2.62704
8401.31
2.62692
8382.17
2.6268
8486.41
2.62668
8322.88
2.62655
8428.77
2.62643
8581.33
2.62631
8415.43
2.62619
8361.12
2.62607
8325.39
2.62595
8410.19
2.62583
8373.4
2.62571
8217.55
2.62559
8217.98
2.62547
8215.96
2.62534
8192.4
2.62522
8288.27
2.6251
8260.47
2.62498
8158.98
2.62486
8356.43
2.62474
8353.67
2.62462
8496.96
2.6245
8416.34
2.62438
8435.31
2.62426
8432.39
2.62414
8377.93
2.62401
8461.79
2.62389
8403.63
2.62377
8478.49
2.62365
8432.57
2.62353
8516.09
2.62341
8507.5
2.62329
8509.81
2.62317
8462.3
2.62305
8663.13
2.62293
8580.7
2.62281
8605.37
2.62269
8708.57
2.62257
8699.46
2.62245
8758.22
2.62233
8725
2.62221
8725.89
2.62209
8745.02
2.62196
8650.03
2.62184
8770.84
2.62172
8766.16
2.6216
8870.35
2.62148
8913.03
2.62136
8798.6
2.62124
8752.54
2.62112
8826.64
2.621
8725
2.62088
8885.44
2.62076
8764.39
2.62064
8809.03
2.62052
8729.02
2.6204
8795.2
2.62028
8761.32
2.62016
8779.3
2.62004
8944.46
2.61992
8749.28
2.6198
8750.5
2.61968
8747.15
2.61956
8801.81
2.61944
8690.28
2.61932
8652.04
2.6192
8484.28
2.61908
8697.4
2.61896
8700.83
2.61884
8707.87
2.61872
8693.74
2.6186
8624.5
2.61848
8564.1
2.61836
8625.52
2.61824
8568.13
2.61812
8619.84
2.618
8644.96
2.61788
8581.27
2.61776
8420.68
2.61764
8543.82
2.61752
8580.1
2.6174
8535.56
2.61728
8484.57
2.61716
8437.56
2.61704
8578.68
2.61692
8648.47
2.6168
8494
2.61668
8403.79
2.61656
8486.45
2.61644
8399.3
2.61632
8379.96
2.6162
8478.7
2.61608
8430.33
2.61596
8345.05
2.61584
8299.17
2.61572
8442.87
2.6156
8584.88
2.61548
8473.31
2.61536
8475.38
2.61524
8431.21
2.61512
8382.47
2.61501
8363.76
2.61489
8473.53
2.61477
8692.02
2.61465
8614.54
2.61453
8468.01
2.61441
8491.21
2.61429
8473.27
2.61417
8415.45
2.61405
8541.89
2.61393
8538.4
2.61381
8478.5
2.61369
8524.78
2.61357
8617.12
2.61345
8663.91
2.61333
8617.97
2.61321
8577.77
2.6131
8524.9
2.61298
8530.57
2.61286
8525.25
2.61274
8502.71
2.61262
8543.97
2.6125
8511.76
2.61238
8485.37
2.61226
8431.27
2.61214
8465.08
2.61202
8401.38
2.6119
8383.94
2.61178
8438.37
2.61167
8440.88
2.61155
8234.74
2.61143
8367.48
2.61131
8427.54
2.61119
8360.39
2.61107
8358.2
2.61095
8316.27
2.61083
8331.1
2.61071
8315.02
2.61059
8320.16
2.61048
8398.25
2.61036
8429.53
2.61024
8373.01
2.61012
8428.68
2.61
8507.56
2.60988
8415.46
2.60976
8276.67
2.60964
8407.05
2.60953
8421.43
2.60941
8395.98
2.60929
8368.89
2.60917
8419.37
2.60905
8555.81
2.60893
8589.17
2.60881
8503.82
2.60869
8650.77
2.60858
8691.8
2.60846
8722.73
2.60834
8708.47
2.60822
8744.29
2.6081
8863.55
2.60798
8733.87
2.60786
8715.36
2.60775
8691.53
2.60763
8780.05
2.60751
8751.76
2.60739
8719.86
2.60727
8639.64
2.60715
8612.39
2.60703
8552.88
2.60692
8788.35
2.6068
8510.01
2.60668
8431.36
2.60656
8488.33
2.60644
8375.78
2.60632
8408.46
2.60621
8494.59
2.60609
8445.51
2.60597
8377.72
2.60585
8347.6
2.60573
8166.27
2.60561
8205.44
2.6055
8232.43
2.60538
8230.18
2.60526
8271.3
2.60514
8153.02
2.60502
8076.87
2.60491
8221.84
2.60479
8245.44
2.60467
8304.38
2.60455
8176.97
2.60443
8232.46
2.60432
8355.17
2.6042
8476.47
2.60408
8517.14
2.60396
8494.56
2.60384
8618.38
2.60373
8679.64
2.60361
8848.88
2.60349
9118.01
2.60337
9131.7
2.60325
9476.13
2.60314
9743.74
2.60302
9888.09
2.6029
9986.34
2.60278
10027.8
2.60266
9736.3
2.60255
9454.53
2.60243
8894.25
2.60231
8681.24
2.60219
8553.96
2.60208
8378.92
2.60196
8473.44
2.60184
8501.71
2.60172
8672.49
2.6016
8764.15
2.60149
8733.02
2.60137
8895.11
2.60125
8956.47
2.60113
9044.3
2.60102
9166.04
2.6009
9441.68
2.60078
9839.47
2.60066
9934.57
2.60055
10319.9
2.60043
10586.1
2.60031
10975.2
2.60019
11500
2.60008
12140.2
2.59996
12838.5
2.59984
13701.3
2.59972
15482.5
2.59961
17459.4
2.59949
19961.3
2.59937
23708.3
2.59925
28149.1
2.59914
34042.1
2.59902
42014.6
2.5989
52075.4
2.59878
63390.9
2.59867
75659.3
2.59855
87177.8
2.59843
93030.4
2.59832
89609.9
2.5982
76148.8
2.59808
57685.6
2.59796
39613.5
2.59785
27114.7
2.59773
19266
2.59761
14618.2
2.5975
12111.3
2.59738
10437.9
2.59726
9442.25
2.59714
8768.67
2.59703
8255.06
2.59691
7948.62
2.59679
7883.68
2.59668
7793.88
2.59656
7786.01
2.59644
7944.36
2.59632
8146.01
2.59621
8394.65
2.59609
8446.08
2.59597
8567.58
2.59586
8717.66
2.59574
8542.44
2.59562
7985.22
2.59551
7561.51
2.59539
6934.09
2.59527
6447.48
2.59516
6111.17
2.59504
5764.81
2.59492
5492.96
2.59481
5536.71
2.59469
5481.4
2.59457
5446.31
2.59446
5593.67
2.59434
5698.52
2.59422
5889.42
2.59411
6124.22
2.59399
6275.85
2.59387
6577.21
2.59376
6825.32
2.59364
7122.52
2.59352
7583.83
2.59341
8152.4
2.59329
8734.25
2.59317
9448.91
2.59306
10295.4
2.59294
11635.4
2.59282
13223.2
2.59271
15315.2
2.59259
18292.1
2.59247
22355.2
2.59236
27516.4
2.59224
34203.2
2.59212
43157.4
2.59201
54455.6
2.59189
68532.6
2.59178
85273.1
2.59166
103041
2.59154
118676
2.59143
127237
2.59131
122291
2.59119
104007
2.59108
77968.8
2.59096
51640
2.59084
33090.7
2.59073
21662.7
2.59061
15332.1
2.5905
11126.2
2.59038
8624.83
2.59026
7089.69
2.59015
5911.89
2.59003
5179.58
2.58992
4481.13
2.5898
4027.56
2.58968
3657.62
2.58957
3374.64
2.58945
3102.97
2.58934
2863.9
2.58922
2778.01
2.5891
2642.39
2.58899
2515.9
2.58887
2378.24
2.58876
2253.01
2.58864
2170.85
2.58852
2088.89
2.58841
1995.92
2.58829
1970.24
2.58818
1840.52
2.58806
1821.26
2.58794
1787.43
2.58783
1750.62
2.58771
1709.48
2.5876
1662.02
2.58748
1651.31
2.58736
1583.59
2.58725
1546.7
2.58713
1528.24
2.58702
1582.86
2.5869
1547.44
2.58679
1503.72
2.58667
1428.62
2.58655
1358.84
2.58644
1399.45
2.58632
1395.38
2.58621
1379.22
2.58609
1371.58
2.58598
1349.88
2.58586
1305.13
2.58575
1304.85
2.58563
1278.88
2.58551
1338.29
2.5854
1334.14
2.58528
1302.66
2.58517
1306.21
2.58505
1283.67
2.58494
1278.12
2.58482
1284.8
2.58471
1288.47
2.58459
1231.46
2.58448
1232.98
2.58436
1240.53
2.58425
1192.57
2.58413
1198.52
2.58401
1184.33
2.5839
1178.39
2.58378
1171.37
2.58367
1156.41
2.58355
1164.44
2.58344
1159.06
2.58332
1180.45
2.58321
1166.53
2.58309
1196.75
2.58298
1167.33
2.58286
1177.13
2.58275
1193.75
2.58263
1174.17
2.58252
1169.58
2.5824
1166.48
2.58229
1171
2.58217
1101.19
2.58206
1101.59
2.58194
1132.01
2.58183
1166.56
2.58171
1159
2.5816
1157.59
2.58148
1158.42
2.58137
1081.92
2.58125
1118.57
2.58114
1135.54
2.58102
1110.55
2.58091
1160.69
2.58079
1167.56
2.58068
1120.85
2.58056
1073.44
2.58045
1117.51
2.58033
1174.05
2.58022
1157.39
2.5801
1136.91
2.57999
1144.1
2.57987
1067.87
2.57976
1096.8
2.57964
1084.97
2.57953
1049.28
2.57941
1103
2.5793
1097.18
2.57918
1151.45
2.57907
1092.07
2.57896
1099.99
2.57884
1138.45
2.57873
1161.39
2.57861
1103.44
2.5785
1100.71
2.57838
1100.38
2.57827
1128.5
2.57815
1116.95
2.57804
1179.52
2.57792
1176.22
2.57781
1105.23
2.5777
1144.89
2.57758
1097.9
2.57747
1082.95
2.57735
1135.14
2.57724
1090.59
2.57712
1089.51
2.57701
1120.59
2.57689
1082.26
2.57678
1070.49
2.57667
1082.03
2.57655
1079.52
2.57644
1089.85
2.57632
1088.31
2.57621
1131.71
2.57609
1087.03
2.57598
1075.76
2.57587
1090
2.57575
1144.47
2.57564
1087.54
2.57552
1097.43
2.57541
1087.02
2.5753
1111.08
2.57518
1061.81
2.57507
1058.42
2.57495
1061.48
2.57484
1092.94
2.57472
1087.43
2.57461
1131.69
2.5745
1087.64
2.57438
1101.69
2.57427
1084.87
2.57415
1064.88
2.57404
1106.36
2.57393
1092.69
2.57381
1105.71
2.5737
1106.37
2.57358
1055.72
2.57347
1075.01
2.57336
1091.52
2.57324
1077.73
2.57313
1042.35
2.57302
1074.87
2.5729
1080.64
2.57279
1040.78
2.57267
1082
2.57256
1092.65
2.57245
1062.55
2.57233
1106.25
2.57222
1101.05
2.5721
1063
2.57199
1070.28
2.57188
1114.67
2.57176
1087.46
2.57165
1048.46
2.57154
1089.41
2.57142
1021.31
2.57131
1064.38
2.5712
1095.59
2.57108
1082.4
2.57097
1096.78
2.57085
1045.8
2.57074
1096.03
2.57063
1095.27
2.57051
1097.59
2.5704
1073.97
2.57029
Ag3d
Ag in vacuum, short shirley, background subtr.
2020
3
6
22
14
31
0
15
Casa Info Follows
0
0
0
0
EX340_CEC356_effect of lens modes.sle
Group = Ag in vacuum
First of group = 0
Analyzer lens = LargeArea:1.5kV
Analyzer slit = 4:7x20c\C:mesh
Scan mode = FixedAnalyzerTransmission
Kinetic energy start = 1036.61
Sum of 8 spectra in column containing 8 scans
C:\Users\pielsticker\Lukas\MPI-CEC\Projects\Gas phase background\inelasticscattering\data\N2\Au, Ag, Cu in N2.vms
CasaXP3
XPS
1e+037
Al
1486.61
0
0
0
54.5
180
FAT
20
1
4.156
0
0
0
0
0
Ag3d

-1
kinetic energy
eV
1036.61
0.1
2
counts
d
Transmission
d
pulse counting
0.8
1
0
0
0
0
2
ESCAPE DEPTH TYPE
d
0
MFP Exponent
d
0
2002
111.645
16058.8
2.57029
2.69189
0
2.69189
0
2.69176
0
2.69162
0
2.69149
0
2.69136
0
2.69123
0
2.6911
0
2.69097
0
2.69084
0
2.69071
0
2.69058
0
2.69045
0
2.69032
0
2.69019
0
2.69006
0
2.68993
0
2.6898
0
2.68967
0
2.68954
0
2.68941
0
2.68928
0
2.68915
0
2.68902
0
2.68889
0
2.68876
0
2.68863
0
2.6885
0
2.68837
0
2.68824
0
2.68811
0
2.68798
0
2.68785
0
2.68772
0
2.68759
0
2.68746
0
2.68733
0
2.6872
0
2.68708
0
2.68695
0
2.68682
0
2.68669
0
2.68656
0
2.68643
0
2.6863
0
2.68617
0
2.68604
0
2.68591
0
2.68578
0
2.68565
0
2.68552
0
2.68539
0
2.68526
0
2.68513
0
2.685
0
2.68487
0
2.68474
0
2.68461
0
2.68449
0
2.68436
0
2.68423
0
2.6841
0
2.68397
0
2.68384
0
2.68371
0
2.68358
0
2.68345
0
2.68332
0
2.68319
0
2.68306
0
2.68294
0
2.68281
0
2.68268
0
2.68255
0
2.68242
0
2.68229
0
2.68216
0
2.68203
0
2.6819
0
2.68177
0
2.68165
0
2.68152
0
2.68139
0
2.68126
0
2.68113
0
2.681
0
2.68087
0
2.68074
0
2.68062
0
2.68049
0
2.68036
0
2.68023
0
2.6801
0
2.67997
0
2.67984
0
2.67971
0
2.67959
0
2.67946
0
2.67933
0
2.6792
0
2.67907
0
2.67894
0
2.67881
0
2.67869
0
2.67856
0
2.67843
0
2.6783
0
2.67817
0
2.67804
0
2.67792
0
2.67779
0
2.67766
0
2.67753
0
2.6774
0
2.67727
0
2.67715
0
2.67702
0
2.67689
0
2.67676
0
2.67663
0
2.67651
0
2.67638
0
2.67625
0
2.67612
0
2.67599
0
2.67586
0
2.67574
0
2.67561
0
2.67548
0
2.67535
0
2.67522
0
2.6751
0
2.67497
0
2.67484
0
2.67471
0
2.67459
0
2.67446
0
2.67433
0
2.6742
0
2.67407
0
2.67395
0
2.67382
0
2.67369
0
2.67356
0
2.67344
0
2.67331
0
2.67318
0
2.67305
0
2.67292
0
2.6728
0
2.67267
0
2.67254
0
2.67241
0
2.67229
0
2.67216
0
2.67203
0
2.6719
0
2.67178
0
2.67165
0
2.67152
0
2.67139
0
2.67127
0
2.67114
0
2.67101
0
2.67088
0
2.67076
0
2.67063
0
2.6705
0
2.67038
0
2.67025
0
2.67012
0
2.66999
0
2.66987
0
2.66974
0
2.66961
0
2.66949
0
2.66936
0
2.66923
0
2.6691
0
2.66898
0
2.66885
0
2.66872
0
2.6686
0
2.66847
0
2.66834
0
2.66821
0
2.66809
0
2.66796
0
2.66783
0
2.66771
0
2.66758
0
2.66745
0
2.66733
0
2.6672
0
2.66707
0
2.66695
0
2.66682
0
2.66669
0
2.66657
0
2.66644
0
2.66631
0
2.66619
0
2.66606
0
2.66593
0
2.66581
0
2.66568
0
2.66555
0
2.66543
0
2.6653
0
2.66517
0
2.66505
0
2.66492
0
2.66479
0
2.66467
0
2.66454
0
2.66441
0
2.66429
0
2.66416
0
2.66403
0
2.66391
0
2.66378
0
2.66366
0
2.66353
0
2.6634
0
2.66328
0
2.66315
0
2.66302
0
2.6629
0
2.66277
0
2.66265
0
2.66252
0
2.66239
0
2.66227
0
2.66214
0
2.66202
0
2.66189
0
2.66176
0
2.66164
0
2.66151
0
2.66139
0
2.66126
0
2.66113
0
2.66101
0
2.66088
0
2.66076
0
2.66063
0
2.6605
0
2.66038
0
2.66025
0
2.66013
0
2.66
0
2.65987
0
2.65975
0
2.65962
0
2.6595
0
2.65937
0
2.65925
0
2.65912
0
2.65899
0
2.65887
0
2.65874
0
2.65862
0
2.65849
0
2.65837
0
2.65824
0
2.65812
0
2.65799
0
2.65786
0
2.65774
0
2.65761
0
2.65749
0
2.65736
0
2.65724
0
2.65711
0
2.65699
0
2.65686
0
2.65674
0
2.65661
0
2.65649
0
2.65636
0
2.65624
0
2.65611
0
2.65598
0
2.65586
0
2.65573
0
2.65561
0
2.65548
0
2.65536
0
2.65523
0
2.65511
0
2.65498
0
2.65486
0
2.65473
0
2.65461
0
2.65448
0
2.65436
0
2.65423
0
2.65411
0
2.65398
0
2.65386
0
2.65373
0
2.65361
0
2.65348
0
2.65336
0
2.65323
0
2.65311
0
2.65298
0
2.65286
0
2.65273
0
2.65261
0
2.65249
0
2.65236
0
2.65224
0
2.65211
0
2.65199
0
2.65186
0
2.65174
0
2.65161
0
2.65149
0
2.65136
0
2.65124
0
2.65111
0
2.65099
0
2.65087
0
2.65074
0
2.65062
0
2.65049
0
2.65037
0
2.65024
0
2.65012
0
2.64999
0
2.64987
0
2.64975
0
2.64962
0
2.6495
0
2.64937
0
2.64925
0
2.64912
0
2.649
0
2.64888
0
2.64875
0
2.64863
0
2.6485
0
2.64838
0
2.64826
0
2.64813
0
2.64801
0
2.64788
0
2.64776
0
2.64763
0
2.64751
0
2.64739
0
2.64726
0
2.64714
0
2.64701
0
2.64689
0
2.64677
0
2.64664
0
2.64652
0
2.6464
0
2.64627
0
2.64615
0
2.64602
0
2.6459
0
2.64578
0
2.64565
0
2.64553
0
2.6454
0
2.64528
0
2.64516
0
2.64503
0
2.64491
0
2.64479
0
2.64466
0
2.64454
0
2.64442
0
2.64429
0
2.64417
0
2.64404
0
2.64392
0
2.6438
0
2.64367
0
2.64355
0
2.64343
0
2.6433
0
2.64318
0
2.64306
0
2.64293
0
2.64281
0
2.64269
0
2.64256
0
2.64244
0
2.64232
0
2.64219
0
2.64207
0
2.64195
0
2.64182
0
2.6417
0
2.64158
0
2.64145
0
2.64133
0
2.64121
0
2.64108
0
2.64096
0
2.64084
0
2.64072
0
2.64059
0
2.64047
0
2.64035
0
2.64022
0
2.6401
0
2.63998
0
2.63985
0
2.63973
0
2.63961
0
2.63949
0
2.63936
0
2.63924
0
2.63912
0
2.63899
0
2.63887
0
2.63875
0
2.63863
0
2.6385
0
2.63838
0
2.63826
0
2.63813
0
2.63801
0
2.63789
0
2.63777
0
2.63764
0
2.63752
0
2.6374
0
2.63728
0
2.63715
0
2.63703
0
2.63691
0
2.63679
0
2.63666
0
2.63654
0
2.63642
0
2.6363
0
2.63617
0
2.63605
0
2.63593
0
2.63581
0
2.63568
0
2.63556
0
2.63544
0
2.63532
0
2.63519
0
2.63507
0
2.63495
0
2.63483
0
2.63471
0
2.63458
0
2.63446
0
2.63434
0
2.63422
0
2.63409
0
2.63397
0
2.63385
0
2.63373
0
2.63361
0
2.63348
0
2.63336
0
2.63324
0
2.63312
0
2.633
0
2.63287
0
2.63275
0
2.63263
0
2.63251
0
2.63239
0
2.63226
0
2.63214
0
2.63202
0
2.6319
0
2.63178
0
2.63166
0
2.63153
0
2.63141
0
2.63129
0
2.63117
0
2.63105
0
2.63092
0
2.6308
0
2.63068
0
2.63056
0
2.63044
0
2.63032
0
2.63019
0
2.63007
0
2.62995
0
2.62983
0
2.62971
0
2.62959
0
2.62947
0
2.62934
0
2.62922
0
2.6291
0
2.62898
0
2.62886
0
2.62874
0
2.62862
0
2.62849
0
2.62837
0
2.62825
0
2.62813
0
2.62801
0
2.62789
0
2.62777
0
2.62764
0
2.62752
0
2.6274
0
2.62728
0
2.62716
0
2.62704
0
2.62692
0
2.6268
0
2.62668
0
2.62655
0
2.62643
0
2.62631
0
2.62619
0
2.62607
0
2.62595
0
2.62583
0
2.62571
0
2.62559
0
2.62547
0
2.62534
0
2.62522
0
2.6251
0
2.62498
0
2.62486
0
2.62474
0
2.62462
0
2.6245
0
2.62438
0
2.62426
0
2.62414
0
2.62401
0
2.62389
0
2.62377
0
2.62365
0
2.62353
0
2.62341
0
2.62329
0
2.62317
0
2.62305
0
2.62293
0
2.62281
0
2.62269
0
2.62257
0
2.62245
0
2.62233
0
2.62221
0
2.62209
0
2.62196
0
2.62184
0
2.62172
0
2.6216
0
2.62148
0
2.62136
0
2.62124
0
2.62112
0
2.621
0
2.62088
0
2.62076
0
2.62064
0
2.62052
0
2.6204
0
2.62028
0
2.62016
0
2.62004
0
2.61992
0
2.6198
0
2.61968
0
2.61956
0
2.61944
0
2.61932
0
2.6192
0
2.61908
0
2.61896
0
2.61884
0
2.61872
0
2.6186
0
2.61848
0
2.61836
0
2.61824
0
2.61812
0
2.618
0
2.61788
0
2.61776
0
2.61764
0
2.61752
0
2.6174
0
2.61728
0
2.61716
0
2.61704
0
2.61692
0
2.6168
0
2.61668
0
2.61656
0
2.61644
0
2.61632
0
2.6162
0
2.61608
0
2.61596
0
2.61584
0
2.61572
0
2.6156
0
2.61548
0
2.61536
0
2.61524
0
2.61512
0
2.61501
0
2.61489
0
2.61477
0
2.61465
0
2.61453
0
2.61441
0
2.61429
0
2.61417
0
2.61405
0
2.61393
0
2.61381
0
2.61369
0
2.61357
0
2.61345
0
2.61333
0
2.61321
0
2.6131
0
2.61298
0
2.61286
0
2.61274
0
2.61262
0
2.6125
0
2.61238
0
2.61226
0
2.61214
0
2.61202
0
2.6119
0
2.61178
0
2.61167
0
2.61155
0
2.61143
0
2.61131
0
2.61119
0
2.61107
0
2.61095
0
2.61083
0
2.61071
0
2.61059
0
2.61048
0
2.61036
0
2.61024
0
2.61012
0
2.61
0
2.60988
15.6191
2.60976
-122.733
2.60964
7.67435
2.60953
22.1333
2.60941
-3.30489
2.60929
-30.2868
2.60917
20.2655
2.60905
157.267
2.60893
191.309
2.60881
106.339
2.60869
254.196
2.60858
296.283
2.60846
328.384
2.60834
315.249
2.60822
352.326
2.6081
473.275
2.60798
344.825
2.60786
327.484
2.60775
304.741
2.60763
394.669
2.60751
367.691
2.60739
336.993
2.60727
257.693
2.60715
231.268
2.60703
172.373
2.60692
409.303
2.6068
131.432
2.60668
52.9712
2.60656
110.335
2.60644
-2.20725
2.60632
30.5819
2.60621
117.13
2.60609
68.2934
2.60597
0.505237
2.60585
-29.5095
2.60573
-210.09
2.60561
-170.312
2.6055
-142.813
2.60538
-144.547
2.60526
-103.059
2.60514
-220.552
2.60502
-295.647
2.60491
-150.142
2.60479
-126.092
2.60467
-66.9131
2.60455
-193.632
2.60443
-137.651
2.60432
-14.888
2.6042
106.793
2.60408
147.991
2.60396
125.86
2.60384
250.574
2.60373
312.951
2.60361
483.917
2.60349
755.744
2.60337
772.189
2.60325
1120.62
2.60314
1393.2
2.60302
1543.05
2.6029
1647.18
2.60278
1694.69
2.60266
1408.21
2.60255
1130.48
2.60243
572.237
2.60231
360.513
2.60219
234.068
2.60208
59.2396
2.60196
154.31
2.60184
183.234
2.60172
355.282
2.6016
448.542
2.60149
418.907
2.60137
583.077
2.60125
646.745
2.60113
737.205
2.60102
862.021
2.6009
1141.73
2.60078
1545.04
2.60066
1646.01
2.60055
2038.61
2.60043
2313.07
2.60031
2711.84
2.60019
3248.23
2.60008
3902.36
2.59996
4617.13
2.59984
5499.55
2.59972
7306.82
2.59961
9316.96
2.59949
11861.2
2.59937
15664.1
2.59925
20176.9
2.59914
26163.2
2.59902
34257.9
2.5989
44477.4
2.59878
55992.7
2.59867
68505.5
2.59855
80310.6
2.59843
86471.7
2.59832
83348.6
2.5982
70137.7
2.59808
51859.6
2.59796
33908.5
2.59785
21486.3
2.59773
13686.5
2.59761
9071.02
2.5975
6587.62
2.59738
4931.82
2.59726
3950.26
2.59714
3288.41
2.59703
2784.74
2.59691
2487.17
2.59679
2430.91
2.59668
2349.49
2.59656
2350
2.59644
2517.34
2.59632
2728.72
2.59621
2988.02
2.59609
3050.34
2.59597
3183.19
2.59586
3345.21
2.59574
3181.34
2.59562
2633.52
2.59551
2217.72
2.59539
1595.99
2.59527
1113.36
2.59516
779.828
2.59504
435.02
2.59492
163.754
2.59481
208.247
2.59469
153.485
2.59457
118.819
2.59446
267.132
2.59434
373.314
2.59422
566.234
2.59411
803.902
2.59399
958.954
2.59387
1264.83
2.59376
1518.35
2.59364
1822.05
2.59352
2291.54
2.59341
2870.35
2.59329
3464.56
2.59317
4194.19
2.59306
5058.73
2.59294
6421.64
2.59282
8038.12
2.59271
10166.4
2.59259
13190.4
2.59247
17315.2
2.59236
22556.9
2.59224
29348.4
2.59212
38439.8
2.59201
49916.1
2.59189
64222.2
2.59178
81252.6
2.59166
99375.1
2.59154
115422
2.59143
124427
2.59131
119909
2.59119
101989
2.59108
76222.3
2.59096
50072.2
2.59084
31635.8
2.59073
20280.1
2.59061
13999.5
2.5905
9828.64
2.59038
7353.51
2.59026
5839.2
2.59015
4678.09
2.59003
3959.91
2.58992
3273.14
2.5898
2829.67
2.58968
2468.54
2.58957
2193.38
2.58945
1928.59
2.58934
1695.57
2.58922
1615.45
2.5891
1485.12
2.58899
1363.5
2.58887
1230.23
2.58876
1108.96
2.58864
1030.47
2.58852
951.909
2.58841
862.015
2.58829
839.329
2.58818
712.15
2.58806
695.371
2.58794
663.91
2.58783
629.346
2.58771
590.312
2.5876
544.796
2.58748
535.998
2.58736
469.955
2.58725
434.615
2.58713
417.646
2.58702
473.957
2.5869
440.107
2.58679
397.806
2.58667
323.862
2.58655
254.992
2.58644
296.66
2.58632
293.638
2.58621
278.471
2.58609
271.801
2.58598
250.997
2.58586
206.985
2.58575
207.445
2.58563
182.125
2.58551
242.4
2.5854
239.103
2.58528
208.366
2.58517
212.675
2.58505
190.816
2.58494
185.929
2.58482
193.299
2.58471
197.674
2.58459
141.168
2.58448
143.199
2.58436
151.289
2.58425
103.699
2.58413
110.041
2.58401
96.1947
2.5839
90.5779
2.58378
83.8571
2.58367
69.1438
2.58355
77.4501
2.58344
72.3282
2.58332
94.0537
2.58321
80.4207
2.58309
111.037
2.58298
81.9091
2.58286
92.0375
2.58275
109.047
2.58263
89.7869
2.58252
85.502
2.5824
82.697
2.58229
87.5293
2.58217
17.7828
2.58206
18.2479
2.58194
48.8422
2.58183
83.6908
2.58171
76.4034
2.5816
75.2619
2.58148
76.3644
2.58137
-0.135156
2.58125
36.6456
2.58114
53.8076
2.58102
28.9208
2.58091
79.3439
2.58079
86.5226
2.58068
39.9551
2.58056
-7.42837
2.58045
36.7728
2.58033
93.647
2.58022
77.2626
2.5801
56.986
2.57999
64.4057
2.57987
-11.7822
2.57976
17.2092
2.57964
5.39845
2.57953
-30.1839
2.57941
23.6204
2.5793
17.8642
2.57918
72.3925
2.57907
13.059
2.57896
21.0542
2.57884
59.7273
2.57873
82.9633
2.57861
25.1028
2.5785
22.453
2.57838
22.2022
2.57827
50.5024
2.57815
39.0918
2.57804
102.026
2.57792
99.0794
2.57781
28.19
2.5777
68.0929
2.57758
21.1785
2.57747
6.25077
2.57735
58.65
2.57724
14.1505
2.57712
13.1173
2.57701
44.3556
2.57689
6.04716
2.57678
-5.7025
2.57667
5.8584
2.57655
3.36039
2.57644
13.7394
2.57632
12.2431
2.57621
55.8423
2.57609
11.2023
2.57598
-0.0674484
2.57587
14.2233
2.57575
68.9393
2.57564
12.0523
2.57552
22.0208
2.57541
11.6524
2.5753
35.8403
2.57518
-13.382
2.57507
-16.7123
2.57495
-13.6038
2.57484
17.9201
2.57472
12.4546
2.57461
56.9177
2.5745
12.9137
2.57438
27.0603
2.57427
10.277
2.57415
-9.67851
2.57404
31.9154
2.57393
18.3107
2.57381
31.4429
2.5737
32.2178
2.57358
-18.3666
2.57347
0.926667
2.57336
0
2.57324
0
2.57313
0
2.57302
0
2.5729
0
2.57279
0
2.57267
0
2.57256
0
2.57245
0
2.57233
0
2.57222
0
2.5721
0
2.57199
0
2.57188
0
2.57176
0
2.57165
0
2.57154
0
2.57142
0
2.57131
0
2.5712
0
2.57108
0
2.57097
0
2.57085
0
2.57074
0
2.57063
0
2.57051
0
2.5704
0
2.57029
Ag3d
Ag in vacuum, long shirley, background subtr.
2020
3
6
22
14
31
0
15
Casa Info Follows
0
0
0
0
EX340_CEC356_effect of lens modes.sle
Group = Ag in vacuum
First of group = 0
Analyzer lens = LargeArea:1.5kV
Analyzer slit = 4:7x20c\C:mesh
Scan mode = FixedAnalyzerTransmission
Kinetic energy start = 1036.61
Sum of 8 spectra in column containing 8 scans
C:\Users\pielsticker\Lukas\MPI-CEC\Projects\Gas phase background\inelasticscattering\data\N2\Au, Ag, Cu in N2.vms
CasaXP3
XPS
1e+037
Al
1486.61
0
0
0
54.5
180
FAT
20
1
4.156
0
0
0
0
0
Ag3d

-1
kinetic energy
eV
1036.61
0.1
2
counts
d
Transmission
d
pulse counting
0.8
1
0
0
0
0
2
ESCAPE DEPTH TYPE
d
0
MFP Exponent
d
0
2002
111.645
16058.8
2.57029
2.69189
0
2.69189
0
2.69176
0
2.69162
0
2.69149
0
2.69136
0
2.69123
0
2.6911
0
2.69097
0
2.69084
0
2.69071
0
2.69058
0
2.69045
0
2.69032
0
2.69019
0
2.69006
0
2.68993
0
2.6898
0
2.68967
0
2.68954
0
2.68941
0
2.68928
0
2.68915
0
2.68902
0
2.68889
0
2.68876
0
2.68863
0
2.6885
0
2.68837
0
2.68824
0
2.68811
0
2.68798
0
2.68785
0
2.68772
0
2.68759
0
2.68746
0
2.68733
0
2.6872
0
2.68708
0
2.68695
0
2.68682
0
2.68669
0
2.68656
0
2.68643
0
2.6863
0
2.68617
0
2.68604
0
2.68591
0
2.68578
0
2.68565
0
2.68552
0
2.68539
0
2.68526
0
2.68513
0
2.685
0
2.68487
0
2.68474
0
2.68461
0
2.68449
0
2.68436
0
2.68423
0
2.6841
0
2.68397
0
2.68384
0
2.68371
0
2.68358
0
2.68345
0
2.68332
0
2.68319
0
2.68306
0
2.68294
0
2.68281
0
2.68268
0
2.68255
0
2.68242
0
2.68229
0
2.68216
0
2.68203
0
2.6819
0
2.68177
0
2.68165
0
2.68152
0
2.68139
0
2.68126
0
2.68113
0
2.681
0
2.68087
0
2.68074
0
2.68062
0
2.68049
0
2.68036
0
2.68023
0
2.6801
0
2.67997
0
2.67984
0
2.67971
0
2.67959
0
2.67946
0
2.67933
0
2.6792
0
2.67907
0
2.67894
0
2.67881
0
2.67869
0
2.67856
0
2.67843
0
2.6783
0
2.67817
0
2.67804
0
2.67792
0
2.67779
0
2.67766
0
2.67753
0
2.6774
0
2.67727
0
2.67715
0
2.67702
0
2.67689
0
2.67676
0
2.67663
0
2.67651
0
2.67638
0
2.67625
0
2.67612
0
2.67599
0
2.67586
0
2.67574
0
2.67561
0
2.67548
0
2.67535
0
2.67522
0
2.6751
0
2.67497
0
2.67484
0
2.67471
0
2.67459
0
2.67446
0
2.67433
0
2.6742
0
2.67407
0
2.67395
0
2.67382
0
2.67369
0
2.67356
0
2.67344
0
2.67331
0
2.67318
0
2.67305
0
2.67292
0
2.6728
0
2.67267
0
2.67254
0
2.67241
0
2.67229
0
2.67216
0
2.67203
0
2.6719
0
2.67178
0
2.67165
0
2.67152
0
2.67139
0
2.67127
0
2.67114
0
2.67101
0
2.67088
0
2.67076
0
2.67063
0
2.6705
0
2.67038
0
2.67025
0
2.67012
0
2.66999
0
2.66987
0
2.66974
0
2.66961
0
2.66949
0
2.66936
0
2.66923
0
2.6691
0
2.66898
0
2.66885
0
2.66872
0
2.6686
0
2.66847
0
2.66834
0
2.66821
0
2.66809
0
2.66796
0
2.66783
0
2.66771
0
2.66758
0
2.66745
0
2.66733
0
2.6672
0
2.66707
0
2.66695
0
2.66682
0
2.66669
0
2.66657
0
2.66644
0
2.66631
0
2.66619
0
2.66606
0
2.66593
0
2.66581
0
2.66568
0
2.66555
0
2.66543
0
2.6653
0
2.66517
0
2.66505
0
2.66492
0
2.66479
0
2.66467
0
2.66454
0
2.66441
0
2.66429
0
2.66416
0
2.66403
0
2.66391
0
2.66378
0
2.66366
0
2.66353
0
2.6634
0
2.66328
0
2.66315
0
2.66302
0
2.6629
0
2.66277
0
2.66265
0
2.66252
0
2.66239
0
2.66227
0
2.66214
0
2.66202
0
2.66189
0
2.66176
0
2.66164
0
2.66151
0
2.66139
0
2.66126
0
2.66113
0
2.66101
0
2.66088
0
2.66076
0
2.66063
0
2.6605
0
2.66038
0
2.66025
0
2.66013
0
2.66
0
2.65987
0
2.65975
0
2.65962
0
2.6595
0
2.65937
0
2.65925
0
2.65912
0
2.65899
0
2.65887
0
2.65874
0
2.65862
0
2.65849
0
2.65837
0
2.65824
0
2.65812
0
2.65799
0
2.65786
0
2.65774
0
2.65761
0
2.65749
0
2.65736
0
2.65724
0
2.65711
0
2.65699
0
2.65686
0
2.65674
0
2.65661
0
2.65649
0
2.65636
0
2.65624
0
2.65611
0
2.65598
0
2.65586
0
2.65573
0
2.65561
0
2.65548
0
2.65536
0
2.65523
0
2.65511
0
2.65498
0
2.65486
0
2.65473
0
2.65461
0
2.65448
0
2.65436
0
2.65423
0
2.65411
0
2.65398
0
2.65386
0
2.65373
0
2.65361
0
2.65348
0
2.65336
0
2.65323
0
2.65311
0
2.65298
0
2.65286
0
2.65273
0
2.65261
0
2.65249
0
2.65236
0
2.65224
0
2.65211
0
2.65199
0
2.65186
0
2.65174
0
2.65161
0
2.65149
0
2.65136
0
2.65124
0
2.65111
0
2.65099
0
2.65087
0
2.65074
0
2.65062
0
2.65049
0
2.65037
0
2.65024
0
2.65012
0
2.64999
0
2.64987
0
2.64975
0
2.64962
0
2.6495
0
2.64937
0
2.64925
0
2.64912
0
2.649
0
2.64888
0
2.64875
0.711742
2.64863
4.25215
2.6485
13.1443
2.64838
41.1851
2.64826
-121.747
2.64813
-126.507
2.64801
9.84668
2.64788
-84.8756
2.64776
43.7214
2.64763
-1.19571
2.64751
2.47034
2.64739
6.54636
2.64726
-33.7411
2.64714
16.4692
2.64701
-9.3479
2.64689
27.8703
2.64677
-6.14467
2.64664
-52.3166
2.64652
-23.7685
2.6464
31.5688
2.64627
31.967
2.64615
28.196
2.64602
-9.71025
2.6459
-9.12791
2.64578
78.815
2.64565
114.615
2.64553
98.8473
2.6454
14.5128
2.64528
-11.938
2.64516
21.1438
2.64503
140.167
2.64491
19.4744
2.64479
40.1226
2.64466
27.8107
2.64454
-61.9677
2.64442
118.382
2.64429
54.4653
2.64417
-23.9362
2.64404
49.8759
2.64392
-31.6068
2.6438
0.394198
2.64367
114.174
2.64355
-35.33
2.64343
-3.81063
2.6433
60.5876
2.64318
56.556
2.64306
110.396
2.64293
60.394
2.64281
180.897
2.64269
148.66
2.64256
115.082
2.64244
152.625
2.64232
97.5141
2.64219
103.467
2.64207
44.2656
2.64195
184.668
2.64182
139.719
2.6417
68.3266
2.64158
183.696
2.64145
173.952
2.64133
136.446
2.64121
94.5471
2.64108
128.692
2.64096
136.005
2.64084
133.542
2.64072
267.406
2.64059
343.968
2.64047
173.111
2.64035
306.391
2.64022
195.108
2.6401
238.893
2.63998
305.561
2.63985
164.533
2.63973
249.454
2.63961
217.747
2.63949
247.512
2.63936
235.579
2.63924
309.446
2.63912
231.482
2.63899
146.681
2.63887
274.212
2.63875
267.357
2.63863
206.472
2.6385
223.759
2.63838
243.325
2.63826
448.943
2.63813
306.804
2.63801
378.38
2.63789
225.803
2.63777
187.191
2.63764
188.432
2.63752
257.001
2.6374
365.345
2.63728
486.335
2.63715
395.593
2.63703
419.63
2.63691
368.151
2.63679
390.707
2.63666
387.204
2.63654
377.257
2.63642
500.532
2.6363
463.166
2.63617
360.117
2.63605
300.212
2.63593
408.411
2.63581
415.618
2.63568
469.858
2.63556
422.532
2.63544
416.792
2.63532
569.836
2.63519
484.01
2.63507
483.073
2.63495
512.908
2.63483
458.419
2.63471
553.664
2.63458
558.381
2.63446
657.51
2.63434
469.589
2.63422
501.606
2.63409
470.227
2.63397
456.043
2.63385
650.896
2.63373
729.08
2.63361
692.544
2.63348
568.716
2.63336
648.423
2.63324
681.942
2.63312
577.775
2.633
512.67
2.63287
461.7
2.63275
616.027
2.63263
567.245
2.63251
719.235
2.63239
518.143
2.63226
545.488
2.63214
517.234
2.63202
409.496
2.6319
563.565
2.63178
766.992
2.63166
801.533
2.63153
627.86
2.63141
577.282
2.63129
791.359
2.63117
773.131
2.63105
861.429
2.63092
753.202
2.6308
820.229
2.63068
887.741
2.63056
845.641
2.63044
857.99
2.63032
885.657
2.63019
815.794
2.63007
877.31
2.62995
989.873
2.62983
1065.22
2.62971
1089.95
2.62959
1052.85
2.62947
1045.92
2.62934
1057.24
2.62922
1090.29
2.6291
957.15
2.62898
1055.41
2.62886
1055.6
2.62874
1043.73
2.62862
981.742
2.62849
992.571
2.62837
1185.06
2.62825
1189.86
2.62813
1036.8
2.62801
1260.9
2.62789
1155.88
2.62777
1062.44
2.62764
1138.71
2.62752
1133.42
2.6274
1156.17
2.62728
1043.22
2.62716
1045.98
2.62704
1153.2
2.62692
1136.84
2.6268
1244.12
2.62668
1083.24
2.62655
1192.05
2.62643
1347.91
2.62631
1184.91
2.62619
1133.37
2.62607
1100.33
2.62595
1188.04
2.62583
1154.08
2.62571
1000.67
2.62559
1003.56
2.62547
1004
2.62534
982.843
2.62522
1081.36
2.6251
1056.14
2.62498
956.995
2.62486
1157.28
2.62474
1157.35
2.62462
1303.83
2.6245
1226.21
2.62438
1248.23
2.62426
1248.37
2.62414
1196.84
2.62401
1283.84
2.62389
1228.69
2.62377
1306.74
2.62365
1263.92
2.62353
1350.74
2.62341
1345.44
2.62329
1351.06
2.62317
1306.75
2.62305
1511.28
2.62293
1432.35
2.62281
1460.6
2.62269
1567.63
2.62257
1562.35
2.62245
1625.08
2.62233
1595.77
2.62221
1600.57
2.62209
1623.68
2.62196
1532.44
2.62184
1657.3
2.62172
1656.68
2.6216
1765.19
2.62148
1812.3
2.62136
1702.04
2.62124
1660.04
2.62112
1738.39
2.621
1640.77
2.62088
1805.63
2.62076
1688.71
2.62064
1737.6
2.62052
1661.66
2.6204
1732.07
2.62028
1702.36
2.62016
1724.56
2.62004
1894.36
2.61992
1703.34
2.6198
1708.75
2.61968
1709.58
2.61956
1768.57
2.61944
1661.1
2.61932
1626.84
2.6192
1462.66
2.61908
1679.89
2.61896
1687.45
2.61884
1698.65
2.61872
1688.65
2.6186
1623.38
2.61848
1566.82
2.61836
1632.23
2.61824
1578.7
2.61812
1634.41
2.618
1663.6
2.61788
1603.84
2.61776
1446.79
2.61764
1573.78
2.61752
1614.01
2.6174
1573.32
2.61728
1526.06
2.61716
1482.68
2.61704
1627.79
2.61692
1701.74
2.6168
1551.07
2.61668
1464.44
2.61656
1550.89
2.61644
1467.34
2.61632
1451.55
2.6162
1554.09
2.61608
1509.41
2.61596
1427.63
2.61584
1385.14
2.61572
1532.59
2.6156
1678.71
2.61548
1570.98
2.61536
1576.91
2.61524
1536.5
2.61512
1491.41
2.61501
1476.31
2.61489
1589.97
2.61477
1812.9
2.61465
1739.67
2.61453
1597.05
2.61441
1624.23
2.61429
1610.23
2.61417
1556.22
2.61405
1686.78
2.61393
1687.42
2.61381
1631.51
2.61369
1681.91
2.61357
1778.6
2.61345
1829.87
2.61333
1788.31
2.61321
1752.39
2.6131
1703.69
2.61298
1713.56
2.61286
1712.43
2.61274
1694.03
2.61262
1739.55
2.6125
1711.53
2.61238
1689.27
2.61226
1639.18
2.61214
1677.1
2.61202
1617.35
2.6119
1603.84
2.61178
1662.34
2.61167
1668.93
2.61155
1466.38
2.61143
1603.04
2.61131
1667.18
2.61119
1603.96
2.61107
1605.7
2.61095
1567.6
2.61083
1586.31
2.61071
1574.09
2.61059
1583.1
2.61048
1665.26
2.61036
1700.71
2.61024
1648.22
2.61012
1708.07
2.61
1791.33
2.60988
1703.4
2.60976
1568.45
2.60964
1703
2.60953
1721.59
2.60941
1700.3
2.60929
1677.31
2.60917
1732.03
2.60905
1873.06
2.60893
1911.09
2.60881
1830.22
2.60869
1982.02
2.60858
2028.01
2.60846
2063.99
2.60834
2054.76
2.60822
2095.71
2.6081
2220.4
2.60798
2095.85
2.60786
2082.44
2.60775
2063.66
2.60763
2157.46
2.60751
2134.39
2.60739
2107.65
2.60727
2032.4
2.60715
2010.07
2.60703
1955.35
2.60692
2196.19
2.6068
1922.55
2.60668
1848.43
2.60656
1910.07
2.60644
1801.93
2.60632
1839.11
2.60621
1929.96
2.60609
1885.5
2.60597
1822.17
2.60585
1796.44
2.60573
1619.07
2.60561
1662.31
2.6055
1693.45
2.60538
1695.35
2.60526
1740.72
2.60514
1626.42
2.60502
1554.08
2.60491
1703.22
2.60479
1731.05
2.60467
1794.38
2.60455
1671.06
2.60443
1730.79
2.60432
1858.04
2.6042
1984.2
2.60408
2029.84
2.60396
2012.18
2.60384
2141.24
2.60373
2207.9
2.60361
2382.97
2.60349
2658.61
2.60337
2678.85
2.60325
3030.7
2.60314
3306.4
2.60302
3459.22
2.6029
3566.19
2.60278
3616.5
2.60266
3333.16
2.60255
3058.87
2.60243
2504.72
2.60231
2297.34
2.60219
2175.38
2.60208
2005.25
2.60196
2104.92
2.60184
2138.42
2.60172
2314.86
2.6016
2412.43
2.60149
2387.14
2.60137
2555.48
2.60125
2623.26
2.60113
2717.74
2.60102
2846.45
2.6009
3129.75
2.60078
3536.19
2.60066
3640.2
2.60055
4035.4
2.60043
4312.15
2.60031
4712.79
2.60019
5250.43
2.60008
5905.08
2.59996
6619.58
2.59984
7500.74
2.59972
9304.71
2.59961
11309.3
2.59949
13845.1
2.59937
17635.2
2.59925
22130.2
2.59914
28091.9
2.59902
36152.9
2.5989
46327
2.59878
57783.9
2.59867
70224.2
2.59855
81943.2
2.59843
88011.2
2.59832
84798.2
2.5982
71512.1
2.59808
53179
2.59796
35193
2.59785
22749.9
2.59773
14937.7
2.59761
10315.2
2.5975
7827.44
2.59738
6169.14
2.59726
5186.18
2.59714
4523.67
2.59703
4019.9
2.59691
3722.57
2.59679
3666.6
2.59668
3585.57
2.59656
3586.48
2.59644
3754.02
2.59632
3965.37
2.59621
4224.35
2.59609
4286.27
2.59597
4418.58
2.59586
4579.86
2.59574
4415.45
2.59562
3867.69
2.59551
3452.43
2.59539
2831.94
2.59527
2351.09
2.59516
2019.72
2.59504
1677.46
2.59492
1409.06
2.59481
1456.37
2.59469
1404.5
2.59457
1372.77
2.59446
1523.86
2.59434
1632.7
2.59422
1828.08
2.59411
2067.94
2.59399
2225.01
2.59387
2532.57
2.59376
2787.5
2.59364
3092.27
2.59352
3562.3
2.59341
4141
2.59329
4734.43
2.59317
5462.46
2.59306
6324.43
2.59294
7683.23
2.59282
9293.77
2.59271
11413.7
2.59259
14425.9
2.59247
18534.4
2.59236
23753.7
2.59224
30515.2
2.59212
39566.2
2.59201
50989.1
2.59189
65225.8
2.59178
82167.3
2.59166
100180
2.59154
116099
2.59143
124966
2.59131
120315
2.59119
102281
2.59108
76429.8
2.59096
50223.9
2.59084
31752.3
2.59073
20374.2
2.59061
14078
2.5905
9896.33
2.59038
7413.1
2.59026
5892.38
2.59015
4726.15
2.59003
4003.63
2.58992
3313.29
2.5898
2866.74
2.58968
2502.92
2.58957
2225.39
2.58945
1958.51
2.58934
1723.66
2.58922
1641.78
2.5891
1509.86
2.58899
1386.76
2.58887
1252.17
2.58876
1129.7
2.58864
1050.11
2.58852
970.525
2.58841
879.707
2.58829
856.122
2.58818
728.184
2.58806
710.663
2.58794
678.494
2.58783
643.258
2.58771
603.595
2.5876
557.499
2.58748
548.13
2.58736
481.589
2.58725
445.79
2.58713
428.378
2.58702
484.183
2.5869
449.864
2.58679
407.14
2.58667
332.854
2.58655
263.72
2.58644
305.076
2.58632
301.745
2.58621
286.285
2.58609
279.329
2.58598
258.261
2.58586
214.034
2.58575
214.279
2.58563
188.771
2.58551
248.79
2.5854
245.24
2.58528
214.284
2.58517
218.368
2.58505
196.309
2.58494
191.227
2.58482
198.392
2.58471
202.558
2.58459
145.905
2.58448
147.787
2.58436
155.718
2.58425
108.022
2.58413
114.252
2.58401
100.307
2.5839
94.5985
2.58378
87.7933
2.58367
73.012
2.58355
81.2408
2.58344
76.0469
2.58332
97.6759
2.58321
83.9613
2.58309
114.461
2.58298
85.25
2.58286
95.2832
2.58275
112.178
2.58263
92.8249
2.58252
88.4513
2.5824
85.5607
2.58229
90.3016
2.58217
20.5419
2.58206
20.9933
2.58194
51.5394
2.58183
86.3006
2.58171
78.9337
2.5816
77.7139
2.58148
78.7366
2.58137
2.24207
2.58125
38.9875
2.58114
56.0947
2.58102
31.181
2.58091
81.5205
2.58079
88.6074
2.58068
42.0001
2.58056
-5.39667
2.58045
38.7682
2.58033
95.542
2.58022
79.0755
2.5801
58.7392
2.57999
66.091
2.57987
-10.1143
2.57976
18.8619
2.57964
7.04912
2.57953
-28.571
2.57941
25.2107
2.5793
19.4383
2.57918
73.8891
2.57907
14.5447
2.57896
22.5198
2.57884
61.1294
2.57873
84.2756
2.57861
26.3902
2.5785
23.7182
2.57838
23.4456
2.57827
51.6921
2.57815
40.2406
2.57804
103.063
2.57792
100.007
2.57781
29.0887
2.5777
68.9173
2.57758
21.9811
2.57747
7.04836
2.57735
59.3837
2.57724
14.8701
2.57712
13.8239
2.57701
45.014
2.57689
6.70044
2.57678
-5.05718
2.57667
6.49872
2.57655
3.9985
2.57644
14.3637
2.57632
12.8551
2.57621
56.3931
2.57609
11.7418
2.57598
0.472996
2.57587
14.7491
2.57575
69.3889
2.57564
12.4894
2.57552
22.4343
2.57541
12.0538
2.5753
36.2024
2.57518
-13.0357
2.57507
-16.3856
2.57495
-13.293
2.57484
18.2115
2.57472
12.7327
2.57461
57.1325
2.5745
13.1146
2.57438
27.2312
2.57427
10.4368
2.57415
-9.52993
2.57404
32.0284
2.57393
18.4035
2.57381
31.5006
2.5737
32.2395
2.57358
-18.3656
2.57347
0.926667
2.57336
0
2.57324
0
2.57313
0
2.57302
0
2.5729
0
2.57279
0
2.57267
0
2.57256
0
2.57245
0
2.57233
0
2.57222
0
2.5721
0
2.57199
0
2.57188
0
2.57176
0
2.57165
0
2.57154
0
2.57142
0
2.57131
0
2.5712
0
2.57108
0
2.57097
0
2.57085
0
2.57074
0
2.57063
0
2.57051
0
2.5704
0
2.57029
end of experiment
