C:\Users\Mark\ownCloud\Muelheim Group\Projects\Gas phase background\EX321_CEC356_Au Ag and Cu in O2.vms
Pr:Survey
	Characteristic Energy eV	1486.61	Acquisition Time s	1
KE_Pr:Survey	BE_Pr:Survey	CPS_Pr:Survey	Background_Pr:Survey
967.11	519.5	4652.16	4652.16
967.61	519	4658.52	4658.52
968.11	518.5	4641.71	4641.71
968.61	518	4656.27	4656.27
969.11	517.5	4644.33	4644.33
969.61	517	4653.04	4653.04
970.11	516.5	4649.71	4649.71
970.61	516	4673.25	4673.25
971.11	515.5	4651.22	4651.22
971.61	515	4670.87	4670.87
972.11	514.5	4671.6	4671.6
972.61	514	4688.22	4688.22
973.11	513.5	4674	4674
973.61	513	4619.04	4619.04
974.11	512.5	4684.47	4684.47
974.61	512	4717.42	4717.42
975.11	511.5	4690.95	4690.95
975.61	511	4726.84	4726.84
976.11	510.5	4758.35	4758.35
976.61	510	4748.53	4748.53
977.11	509.5	4729.64	4729.64
977.61	509	4754.04	4754.04
978.11	508.5	4774.21	4774.21
978.61	508	4754.18	4754.18
979.11	507.5	4749.86	4749.86
979.61	507	4817.66	4817.66
980.11	506.5	4814.56	4814.56
980.61	506	4759.93	4759.93
981.11	505.5	4787.19	4787.19
981.61	505	4810.53	4810.53
982.11	504.5	4850.25	4850.25
982.61	504	4849.77	4849.77
983.11	503.5	4828.61	4828.61
983.61	503	4815.36	4815.36
984.11	502.5	4818.03	4818.03
984.61	502	4853.76	4853.76
985.11	501.5	4850	4850
985.61	501	4822.14	4822.14
986.11	500.5	4903.73	4903.73
986.61	500	4833.52	4833.52
987.11	499.5	4861.01	4861.01
987.61	499	4908.39	4908.39
988.11	498.5	4878.87	4878.87
988.61	498	4909.79	4909.79
989.11	497.5	4888.28	4888.28
989.61	497	4893.45	4893.45
990.11	496.5	4874.57	4874.57
990.61	496	4926.71	4926.71
991.11	495.5	4918.51	4918.51
991.61	495	4921.73	4921.73
992.11	494.5	4885.05	4885.05
992.61	494	4914.13	4914.13
993.11	493.5	4931.99	4931.99
993.61	493	4913.64	4913.64
994.11	492.5	4972	4972
994.61	492	5036.76	5036.76
995.11	491.5	5059.82	5059.82
995.61	491	5002.78	5002.78
996.11	490.5	4984.84	4984.84
996.61	490	4992.77	4992.77
997.11	489.5	5017.67	5017.67
997.61	489	5008.79	5008.79
998.11	488.5	5038.33	5038.33
998.61	488	5019.07	5019.07
999.11	487.5	5064.39	5064.39
999.61	487	5057.72	5057.72
1000.11	486.5	4973.97	4973.97
1000.61	486	5001.6	5001.6
1001.11	485.5	5071.52	5071.52
1001.61	485	5060.71	5060.71
1002.11	484.5	5077.97	5077.97
1002.61	484	5107.46	5107.46
1003.11	483.5	5062.02	5062.02
1003.61	483	5107.66	5107.66
1004.11	482.5	5087.14	5087.14
1004.61	482	5106.99	5106.99
1005.11	481.5	5168.87	5168.87
1005.61	481	5179.39	5179.39
1006.11	480.5	5134.93	5134.93
1006.61	480	5162.64	5162.64
1007.11	479.5	5157.78	5157.78
1007.61	479	5164.14	5164.14
1008.11	478.5	5200.94	5200.94
1008.61	478	5136.65	5136.65
1009.11	477.5	5153.49	5153.49
1009.61	477	5157.61	5157.61
1010.11	476.5	5184.39	5184.39
1010.61	476	5200.09	5200.09
1011.11	475.5	5216.14	5216.14
1011.61	475	5182.86	5182.86
1012.11	474.5	5228.47	5228.47
1012.61	474	5261.09	5261.09
1013.11	473.5	5290.4	5290.4
1013.61	473	5268.77	5268.77
1014.11	472.5	5259.27	5259.27
1014.61	472	5236.1	5236.1
1015.11	471.5	5318.16	5318.16
1015.61	471	5327.06	5327.06
1016.11	470.5	5326.58	5326.58
1016.61	470	5285.74	5285.74
1017.11	469.5	5247.84	5247.84
1017.61	469	5330.21	5330.21
1018.11	468.5	5333.43	5333.43
1018.61	468	5358.9	5358.9
1019.11	467.5	5361.81	5361.81
1019.61	467	5298.94	5298.94
1020.11	466.5	5355.89	5355.89
1020.61	466	5426.87	5426.87
1021.11	465.5	5322.18	5322.18
1021.61	465	5318.67	5318.67
1022.11	464.5	5416.52	5416.52
1022.61	464	5375.57	5375.57
1023.11	463.5	5424.13	5424.13
1023.61	463	5438.44	5438.44
1024.11	462.5	5395.85	5395.85
1024.61	462	5407.87	5407.87
1025.11	461.5	5454.79	5454.79
1025.61	461	5479.76	5479.76
1026.11	460.5	5443.56	5443.56
1026.61	460	5418.73	5418.73
1027.11	459.5	5468.89	5468.89
1027.61	459	5467.44	5467.44
1028.11	458.5	5537.7	5537.7
1028.61	458	5466.35	5466.35
1029.11	457.5	5512.06	5512.06
1029.61	457	5561.76	5561.76
1030.11	456.5	5534.74	5534.74
1030.61	456	5544.31	5544.31
1031.11	455.5	5500.79	5500.79
1031.61	455	5519.73	5519.73
1032.11	454.5	5537.43	5537.43
1032.61	454	5549.23	5549.23
1033.11	453.5	5593.8	5593.8
1033.61	453	5526.95	5526.95
1034.11	452.5	5560.82	5560.82
1034.61	452	5659.43	5659.43
1035.11	451.5	5603.85	5603.85
1035.61	451	5621.59	5621.59
1036.11	450.5	5593.16	5593.16
1036.61	450	5643.5	5643.5
1037.11	449.5	5670.38	5670.38
1037.61	449	5649.31	5649.31
1038.11	448.5	5637.34	5637.34
1038.61	448	5688.06	5688.06
1039.11	447.5	5670.49	5670.49
1039.61	447	5660.51	5660.51
1040.11	446.5	5712.6	5712.6
1040.61	446	5679.44	5679.44
1041.11	445.5	5712.85	5712.85
1041.61	445	5712.15	5712.15
1042.11	444.5	5707.14	5707.14
1042.61	444	5764.65	5764.65
1043.11	443.5	5758.52	5758.52
1043.61	443	5732.1	5732.1
1044.11	442.5	5781.15	5781.15
1044.61	442	5767.07	5767.07
1045.11	441.5	5800.03	5800.03
1045.61	441	5770.24	5770.24
1046.11	440.5	5767.84	5767.84
1046.61	440	5799.86	5799.86
1047.11	439.5	5801.73	5801.73
1047.61	439	5852.7	5852.7
1048.11	438.5	5854	5854
1048.61	438	5846.52	5846.52
1049.11	437.5	5856.4	5856.4
1049.61	437	5853.05	5853.05
1050.11	436.5	5876.88	5876.88
1050.61	436	5910.51	5910.51
1051.11	435.5	5930.51	5930.51
1051.61	435	5833.34	5833.34
1052.11	434.5	5882.18	5882.18
1052.61	434	5950.66	5950.66
1053.11	433.5	5932.83	5932.83
1053.61	433	5937.49	5937.49
1054.11	432.5	5958.84	5958.84
1054.61	432	5957.53	5957.53
1055.11	431.5	5912.64	5912.64
1055.61	431	5930.46	5930.46
1056.11	430.5	5980.31	5980.31
1056.61	430	5966.8	5966.8
1057.11	429.5	6016.53	6016.53
1057.61	429	5987.76	5987.76
1058.11	428.5	6066.54	6066.54
1058.61	428	6050.71	6050.71
1059.11	427.5	6060	6060
1059.61	427	6011.21	6011.21
1060.11	426.5	6031.9	6031.9
1060.61	426	6091.61	6091.61
1061.11	425.5	6086.55	6086.55
1061.61	425	6012.76	6012.76
1062.11	424.5	6037.46	6037.46
1062.61	424	6030.38	6030.38
1063.11	423.5	6092.92	6092.92
1063.61	423	6173.88	6173.88
1064.11	422.5	6140.14	6140.14
1064.61	422	6156.3	6156.3
1065.11	421.5	6132.05	6132.05
1065.61	421	6147.37	6147.37
1066.11	420.5	6202.65	6202.65
1066.61	420	6230.1	6230.1
1067.11	419.5	6248.59	6248.59
1067.61	419	6218.99	6218.99
1068.11	418.5	6174.9	6174.9
1068.61	418	6218.22	6218.22
1069.11	417.5	6234.94	6234.94
1069.61	417	6236.92	6236.92
1070.11	416.5	6265.05	6265.05
1070.61	416	6291.52	6291.52
1071.11	415.5	6267.09	6267.09
1071.61	415	6291.34	6291.34
1072.11	414.5	6300.4	6300.4
1072.61	414	6271.87	6271.87
1073.11	413.5	6311.44	6311.44
1073.61	413	6292.18	6292.18
1074.11	412.5	6362.32	6362.32
1074.61	412	6402.09	6402.09
1075.11	411.5	6358.22	6358.22
1075.61	411	6374.26	6374.26
1076.11	410.5	6366.51	6366.51
1076.61	410	6373.09	6373.09
1077.11	409.5	6402.77	6402.77
1077.61	409	6432.45	6432.45
1078.11	408.5	6419.37	6419.37
1078.61	408	6449.68	6449.68
1079.11	407.5	6427.8	6427.8
1079.61	407	6392.15	6392.15
1080.11	406.5	6422.06	6422.06
1080.61	406	6412.77	6412.77
1081.11	405.5	6432.78	6432.78
1081.61	405	6515.41	6515.41
1082.11	404.5	6502.79	6502.79
1082.61	404	6516.66	6516.66
1083.11	403.5	6545.28	6545.28
1083.61	403	6544.35	6544.35
1084.11	402.5	6520.76	6520.76
1084.61	402	6562.44	6562.44
1085.11	401.5	6579.93	6579.93
1085.61	401	6587.58	6587.58
1086.11	400.5	6625.62	6625.62
1086.61	400	6592.08	6592.08
1087.11	399.5	6614.04	6614.04
1087.61	399	6575.62	6575.62
1088.11	398.5	6609.87	6609.87
1088.61	398	6613.23	6613.23
1089.11	397.5	6660.42	6660.42
1089.61	397	6701.7	6701.7
1090.11	396.5	6663.28	6663.28
1090.61	396	6716.23	6716.23
1091.11	395.5	6681.09	6681.09
1091.61	395	6683.48	6683.48
1092.11	394.5	6711.9	6711.9
1092.61	394	6716.88	6716.88
1093.11	393.5	6761.18	6761.18
1093.61	393	6764.54	6764.54
1094.11	392.5	6758.01	6758.01
1094.61	392	6762.63	6762.63
1095.11	391.5	6748.32	6748.32
1095.61	391	6737.58	6737.58
1096.11	390.5	6791.87	6791.87
1096.61	390	6786.79	6786.79
1097.11	389.5	6870.63	6870.63
1097.61	389	6868.79	6868.79
1098.11	388.5	6850.51	6850.51
1098.61	388	6803.32	6803.32
1099.11	387.5	6786.64	6786.64
1099.61	387	6846.11	6846.11
1100.11	386.5	6868.89	6868.89
1100.61	386	6890.36	6890.36
1101.11	385.5	6913.24	6913.24
1101.61	385	6877.8	6877.8
1102.11	384.5	6910.03	6910.03
1102.61	384	6917.5	6917.5
1103.11	383.5	6943.16	6943.16
1103.61	383	6921.91	6921.91
1104.11	382.5	6953.82	6953.82
1104.61	382	6934.9	6934.9
1105.11	381.5	6946.68	6946.68
1105.61	381	6971.98	6971.98
1106.11	380.5	6966.14	6966.14
1106.61	380	6977.49	6977.49
1107.11	379.5	6937.36	6937.36
1107.61	379	6969.17	6969.17
1108.11	378.5	7047.32	7047.32
1108.61	378	7010.94	7010.94
1109.11	377.5	7086.01	7086.01
1109.61	377	7090.87	7090.87
1110.11	376.5	7043.21	7043.21
1110.61	376	7013.92	7013.92
1111.11	375.5	7058.07	7058.07
1111.61	375	7078.63	7078.63
1112.11	374.5	7102.9	7102.9
1112.61	374	7124.19	7124.19
1113.11	373.5	7105.11	7105.11
1113.61	373	7035.09	7035.09
1114.11	372.5	7078.83	7078.83
1114.61	372	7101.05	7101.05
1115.11	371.5	7099.52	7099.52
1115.61	371	7070.93	7070.93
1116.11	370.5	7053.17	7053.17
1116.61	370	7100.07	7100.07
1117.11	369.5	7036.08	7036.08
1117.61	369	7076.64	7076.64
1118.11	368.5	7031.88	7031.88
1118.61	368	6978.02	6978.02
1119.11	367.5	6985.94	6985.94
1119.61	367	7008.22	7008.22
1120.11	366.5	6967.31	6967.31
1120.61	366	6974.8	6974.8
1121.11	365.5	6992.23	6992.23
1121.61	365	6980.76	6980.76
1122.11	364.5	6970.32	6970.32
1122.61	364	6907.23	6907.23
1123.11	363.5	6949.2	6949.2
1123.61	363	7005.95	7005.95
1124.11	362.5	7044.85	7044.85
1124.61	362	7004.52	7004.52
1125.11	361.5	7073.74	7073.74
1125.61	361	7035.18	7035.18
1126.11	360.5	7089.26	7089.26
1126.61	360	7137.24	7137.24
1127.11	359.5	7146.36	7146.36
1127.61	359	7218.66	7218.66
1128.11	358.5	7283.11	7283.11
1128.61	358	7345.44	7345.44
1129.11	357.5	7484.82	7484.82
1129.61	357	7662.2	7662.2
1130.11	356.5	7891.62	7891.62
1130.61	356	8174.15	8174.15
1131.11	355.5	8544.66	8544.66
1131.61	355	8957.71	8957.71
1132.11	354.5	9407.81	9407.81
1132.61	354	9723.3	9723.3
1133.11	353.5	9959.42	9959.42
1133.61	353	9964.63	9964.63
1134.11	352.5	9731.18	9731.18
1134.61	352	9253.23	9253.23
1135.11	351.5	8785.55	8785.55
1135.61	351	8265.88	8265.88
1136.11	350.5	7657.58	7657.58
1136.61	350	7271.76	7271.76
1137.11	349.5	6947.12	6947.12
1137.61	349	6621.43	6621.43
1138.11	348.5	6420.57	6420.57
1138.61	348	6162.92	6162.92
1139.11	347.5	6038.36	6038.36
1139.61	347	5894.92	5894.92
1140.11	346.5	5811.99	5811.99
1140.61	346	5723.54	5723.54
1141.11	345.5	5708.82	5708.82
1141.61	345	5686.29	5686.29
1142.11	344.5	5618.67	5618.67
1142.61	344	5615.26	5615.26
1143.11	343.5	5635.87	5635.87
1143.61	343	5604.83	5604.83
1144.11	342.5	5580.55	5580.55
1144.61	342	5592.56	5592.56
1145.11	341.5	5601.29	5601.29
1145.61	341	5654.41	5654.41
1146.11	340.5	5733.68	5733.68
1146.61	340	5857.61	5857.61
1147.11	339.5	6108.94	6108.94
1147.61	339	6374.02	6374.02
1148.11	338.5	6628.51	6628.51
1148.61	338	7083.01	7083.01
1149.11	337.5	7664.3	7664.3
1149.61	337	8307.43	8307.43
1150.11	336.5	9078.23	9078.23
1150.61	336	9771.7	9771.7
1151.11	335.5	10184.4	10184.4
1151.61	335	10301.3	10301.3
1152.11	334.5	9907.04	9907.04
1152.61	334	9185.22	9185.22
1153.11	333.5	8304.74	8304.74
1153.61	333	7456.97	7456.97
1154.11	332.5	6654	6654
1154.61	332	5975.4	5975.4
1155.11	331.5	5432.45	5432.45
1155.61	331	5068.93	5068.93
1156.11	330.5	4761.13	4761.13
1156.61	330	4516.47	4516.47
1157.11	329.5	4375.67	4375.67
1157.61	329	4222.57	4222.57
1158.11	328.5	4086.88	4086.88
1158.61	328	3972.78	3972.78
1159.11	327.5	3839.58	3839.58
1159.61	327	3799.18	3799.18
1160.11	326.5	3765.23	3765.23
1160.61	326	3693.64	3693.64
1161.11	325.5	3648.71	3648.71
1161.61	325	3624.54	3624.54
1162.11	324.5	3619.99	3619.99
1162.61	324	3582.28	3582.28
1163.11	323.5	3566.86	3566.86
1163.61	323	3529.08	3529.08
1164.11	322.5	3496.92	3496.92
1164.61	322	3481.94	3481.94
1165.11	321.5	3506.91	3506.91
1165.61	321	3485.04	3485.04
1166.11	320.5	3495.21	3495.21
1166.61	320	3470.91	3470.91
1167.11	319.5	3495.7	3495.7
1167.61	319	3466.21	3466.21
1168.11	318.5	3447.3	3447.3
1168.61	318	3486.57	3486.57
1169.11	317.5	3451.18	3451.18
1169.61	317	3423.2	3423.2
1170.11	316.5	3411.14	3411.14
1170.61	316	3452.71	3452.71
1171.11	315.5	3416.86	3416.86
1171.61	315	3421.17	3421.17
1172.11	314.5	3409.91	3409.91
1172.61	314	3396.6	3396.6
1173.11	313.5	3418.77	3418.77
1173.61	313	3425.41	3425.41
1174.11	312.5	3388.84	3388.84
1174.61	312	3414.11	3414.11
1175.11	311.5	3451.69	3451.69
1175.61	311	3422.88	3422.88
1176.11	310.5	3439.63	3439.63
1176.61	310	3451.11	3451.11
1177.11	309.5	3442.27	3442.27
1177.61	309	3443.96	3443.96
1178.11	308.5	3444.88	3444.88
1178.61	308	3417.58	3417.58
1179.11	307.5	3412.72	3412.72
1179.61	307	3397.5	3397.5
1180.11	306.5	3426.95	3426.95
1180.61	306	3394.27	3394.27
1181.11	305.5	3406.05	3406.05
1181.61	305	3418.89	3418.89
1182.11	304.5	3428.02	3428.02
1182.61	304	3434.94	3434.94
1183.11	303.5	3402.56	3402.56
1183.61	303	3426.01	3426.01
1184.11	302.5	3404.14	3404.14
1184.61	302	3428.82	3428.82
1185.11	301.5	3455.66	3455.66
1185.61	301	3450.79	3450.79
1186.11	300.5	3431.3	3431.3
1186.61	300	3418.9	3418.9
1187.11	299.5	3424.52	3424.52
1187.61	299	3446.53	3446.53
1188.11	298.5	3447.91	3447.91
1188.61	298	3445.34	3445.34
1189.11	297.5	3446.34	3446.34
1189.61	297	3451.25	3451.25
1190.11	296.5	3429.85	3429.85
1190.61	296	3431.5	3431.5