C:\Users\Mark\ownCloud\Muelheim Group\Projects\Gas phase background\EX321_CEC356_Au Ag and Cu in O2.vms
Pr:Survey
	Characteristic Energy eV	1486.61	Acquisition Time s	1
KE_Pr:Survey	BE_Pr:Survey	CPS_Pr:Survey	Background_Pr:Survey
967.11	519.5	9885.82	9885.82
967.61	519	9864.11	9864.11
968.11	518.5	9786.5	9786.5
968.61	518	9823.97	9823.97
969.11	517.5	9813.31	9813.31
969.61	517	9862.55	9862.55
970.11	516.5	9929.29	9929.29
970.61	516	9911.83	9911.83
971.11	515.5	9912.47	9912.47
971.61	515	9939.03	9939.03
972.11	514.5	9922.83	9922.83
972.61	514	9862.32	9862.32
973.11	513.5	9889.59	9889.59
973.61	513	9901.66	9901.66
974.11	512.5	9946.29	9946.29
974.61	512	9957.91	9957.91
975.11	511.5	9942.17	9942.17
975.61	511	9942.11	9942.11
976.11	510.5	10008.9	10008.9
976.61	510	10003.7	10003.7
977.11	509.5	10025.2	10025.2
977.61	509	9967.73	9967.73
978.11	508.5	9988.53	9988.53
978.61	508	10014.7	10014.7
979.11	507.5	10122	10122
979.61	507	10033.9	10033.9
980.11	506.5	10030.9	10030.9
980.61	506	10013.8	10013.8
981.11	505.5	10006.5	10006.5
981.61	505	9991.81	9991.81
982.11	504.5	10010.5	10010.5
982.61	504	10089.3	10089.3
983.11	503.5	10110.5	10110.5
983.61	503	10115.7	10115.7
984.11	502.5	10091.2	10091.2
984.61	502	10033.9	10033.9
985.11	501.5	10034.6	10034.6
985.61	501	10111.6	10111.6
986.11	500.5	10148.4	10148.4
986.61	500	10218.3	10218.3
987.11	499.5	10178.6	10178.6
987.61	499	10254.2	10254.2
988.11	498.5	10228.5	10228.5
988.61	498	10218.1	10218.1
989.11	497.5	10236.5	10236.5
989.61	497	10206.7	10206.7
990.11	496.5	10225.8	10225.8
990.61	496	10296.8	10296.8
991.11	495.5	10221.6	10221.6
991.61	495	10265.6	10265.6
992.11	494.5	10223.2	10223.2
992.61	494	10261.3	10261.3
993.11	493.5	10254.9	10254.9
993.61	493	10307.2	10307.2
994.11	492.5	10296.8	10296.8
994.61	492	10344.1	10344.1
995.11	491.5	10414.1	10414.1
995.61	491	10400.4	10400.4
996.11	490.5	10391.3	10391.3
996.61	490	10345.3	10345.3
997.11	489.5	10340.3	10340.3
997.61	489	10388	10388
998.11	488.5	10337.6	10337.6
998.61	488	10455.3	10455.3
999.11	487.5	10427.8	10427.8
999.61	487	10422.3	10422.3
1000.11	486.5	10489.8	10489.8
1000.61	486	10527.3	10527.3
1001.11	485.5	10486.2	10486.2
1001.61	485	10502.8	10502.8
1002.11	484.5	10515.4	10515.4
1002.61	484	10502.8	10502.8
1003.11	483.5	10481	10481
1003.61	483	10561.1	10561.1
1004.11	482.5	10638.1	10638.1
1004.61	482	10541.5	10541.5
1005.11	481.5	10522.3	10522.3
1005.61	481	10525.1	10525.1
1006.11	480.5	10575.6	10575.6
1006.61	480	10572.7	10572.7
1007.11	479.5	10556.6	10556.6
1007.61	479	10610.5	10610.5
1008.11	478.5	10657.1	10657.1
1008.61	478	10630.5	10630.5
1009.11	477.5	10634.8	10634.8
1009.61	477	10750.2	10750.2
1010.11	476.5	10722.9	10722.9
1010.61	476	10717.1	10717.1
1011.11	475.5	10746.1	10746.1
1011.61	475	10676.1	10676.1
1012.11	474.5	10748.4	10748.4
1012.61	474	10759	10759
1013.11	473.5	10713.2	10713.2
1013.61	473	10740.1	10740.1
1014.11	472.5	10814.6	10814.6
1014.61	472	10722.1	10722.1
1015.11	471.5	10785.3	10785.3
1015.61	471	10837.2	10837.2
1016.11	470.5	10787.6	10787.6
1016.61	470	10781.7	10781.7
1017.11	469.5	10818.5	10818.5
1017.61	469	10828.3	10828.3
1018.11	468.5	10838.6	10838.6
1018.61	468	10910.2	10910.2
1019.11	467.5	10921.4	10921.4
1019.61	467	10913.2	10913.2
1020.11	466.5	10902.6	10902.6
1020.61	466	10868.6	10868.6
1021.11	465.5	10890.3	10890.3
1021.61	465	10966.4	10966.4
1022.11	464.5	10941.3	10941.3
1022.61	464	11006.9	11006.9
1023.11	463.5	11003.4	11003.4
1023.61	463	10980.4	10980.4
1024.11	462.5	11001.8	11001.8
1024.61	462	11035.9	11035.9
1025.11	461.5	10955.5	10955.5
1025.61	461	10987.9	10987.9
1026.11	460.5	11010.7	11010.7
1026.61	460	10965.7	10965.7
1027.11	459.5	11058	11058
1027.61	459	11081.9	11081.9
1028.11	458.5	11114.6	11114.6
1028.61	458	11119.5	11119.5
1029.11	457.5	11135.1	11135.1
1029.61	457	11166.5	11166.5
1030.11	456.5	11122	11122
1030.61	456	11145.4	11145.4
1031.11	455.5	11230.8	11230.8
1031.61	455	11218.3	11218.3
1032.11	454.5	11199.1	11199.1
1032.61	454	11181.5	11181.5
1033.11	453.5	11305.3	11305.3
1033.61	453	11368.5	11368.5
1034.11	452.5	11315.1	11315.1
1034.61	452	11423.5	11423.5
1035.11	451.5	11429.6	11429.6
1035.61	451	11342.7	11342.7
1036.11	450.5	11302	11302
1036.61	450	11377.4	11377.4
1037.11	449.5	11411.8	11411.8
1037.61	449	11374.1	11374.1
1038.11	448.5	11403.9	11403.9
1038.61	448	11409.3	11409.3
1039.11	447.5	11445.8	11445.8
1039.61	447	11465.9	11465.9
1040.11	446.5	11466.8	11466.8
1040.61	446	11546.4	11546.4
1041.11	445.5	11498.7	11498.7
1041.61	445	11538.8	11538.8
1042.11	444.5	11577.7	11577.7
1042.61	444	11557.9	11557.9
1043.11	443.5	11563.5	11563.5
1043.61	443	11598	11598
1044.11	442.5	11628.6	11628.6
1044.61	442	11699.6	11699.6
1045.11	441.5	11532.4	11532.4
1045.61	441	11566.3	11566.3
1046.11	440.5	11650.8	11650.8
1046.61	440	11711.2	11711.2
1047.11	439.5	11685.8	11685.8
1047.61	439	11728.5	11728.5
1048.11	438.5	11703.7	11703.7
1048.61	438	11734.8	11734.8
1049.11	437.5	11746.6	11746.6
1049.61	437	11759.7	11759.7
1050.11	436.5	11776.5	11776.5
1050.61	436	11884.6	11884.6
1051.11	435.5	11898	11898
1051.61	435	11807.9	11807.9
1052.11	434.5	11808	11808
1052.61	434	11826.6	11826.6
1053.11	433.5	11838.4	11838.4
1053.61	433	11964.7	11964.7
1054.11	432.5	11947.9	11947.9
1054.61	432	11950.9	11950.9
1055.11	431.5	12025.2	12025.2
1055.61	431	11969.2	11969.2
1056.11	430.5	11981.3	11981.3
1056.61	430	12060	12060
1057.11	429.5	12129.3	12129.3
1057.61	429	12060.8	12060.8
1058.11	428.5	12149.1	12149.1
1058.61	428	12162.2	12162.2
1059.11	427.5	12101.4	12101.4
1059.61	427	12151.8	12151.8
1060.11	426.5	12133.5	12133.5
1060.61	426	12186	12186
1061.11	425.5	12214.2	12214.2
1061.61	425	12175.1	12175.1
1062.11	424.5	12216	12216
1062.61	424	12168.1	12168.1
1063.11	423.5	12296.7	12296.7
1063.61	423	12313.8	12313.8
1064.11	422.5	12374.9	12374.9
1064.61	422	12402	12402
1065.11	421.5	12396	12396
1065.61	421	12390.5	12390.5
1066.11	420.5	12378.5	12378.5
1066.61	420	12428.3	12428.3
1067.11	419.5	12448.1	12448.1
1067.61	419	12469	12469
1068.11	418.5	12535.9	12535.9
1068.61	418	12480.4	12480.4
1069.11	417.5	12558.2	12558.2
1069.61	417	12555.6	12555.6
1070.11	416.5	12482.6	12482.6
1070.61	416	12537	12537
1071.11	415.5	12579.4	12579.4
1071.61	415	12559.8	12559.8
1072.11	414.5	12618.2	12618.2
1072.61	414	12604.8	12604.8
1073.11	413.5	12618.7	12618.7
1073.61	413	12672.9	12672.9
1074.11	412.5	12732.8	12732.8
1074.61	412	12739.6	12739.6
1075.11	411.5	12805.9	12805.9
1075.61	411	12809.2	12809.2
1076.11	410.5	12690.7	12690.7
1076.61	410	12734.6	12734.6
1077.11	409.5	12835.7	12835.7
1077.61	409	12780.2	12780.2
1078.11	408.5	12809.7	12809.7
1078.61	408	12861.9	12861.9
1079.11	407.5	12832.5	12832.5
1079.61	407	12931.5	12931.5
1080.11	406.5	12939.1	12939.1
1080.61	406	12923.3	12923.3
1081.11	405.5	12970.8	12970.8
1081.61	405	13085.3	13085.3
1082.11	404.5	13008.2	13008.2
1082.61	404	13154.4	13154.4
1083.11	403.5	13172.9	13172.9
1083.61	403	13148.8	13148.8
1084.11	402.5	13162.6	13162.6
1084.61	402	13177.7	13177.7
1085.11	401.5	13111.1	13111.1
1085.61	401	13189.9	13189.9
1086.11	400.5	13250.6	13250.6
1086.61	400	13297.2	13297.2
1087.11	399.5	13222.8	13222.8
1087.61	399	13311.2	13311.2
1088.11	398.5	13362.2	13362.2
1088.61	398	13409	13409
1089.11	397.5	13434.8	13434.8
1089.61	397	13490.1	13490.1
1090.11	396.5	13432.6	13432.6
1090.61	396	13532.4	13532.4
1091.11	395.5	13553.3	13553.3
1091.61	395	13489.4	13489.4
1092.11	394.5	13521.4	13521.4
1092.61	394	13547.7	13547.7
1093.11	393.5	13640.8	13640.8
1093.61	393	13640	13640
1094.11	392.5	13645	13645
1094.61	392	13777.7	13777.7
1095.11	391.5	13775.9	13775.9
1095.61	391	13843.1	13843.1
1096.11	390.5	13861.5	13861.5
1096.61	390	13866.4	13866.4
1097.11	389.5	14007.7	14007.7
1097.61	389	13977	13977
1098.11	388.5	13931.6	13931.6
1098.61	388	13996.1	13996.1
1099.11	387.5	14002	14002
1099.61	387	14062	14062
1100.11	386.5	13987.7	13987.7
1100.61	386	14147.8	14147.8
1101.11	385.5	14099.9	14099.9
1101.61	385	14114.3	14114.3
1102.11	384.5	14138.3	14138.3
1102.61	384	14231.6	14231.6
1103.11	383.5	14218.3	14218.3
1103.61	383	14235.9	14235.9
1104.11	382.5	14299.7	14299.7
1104.61	382	14372.3	14372.3
1105.11	381.5	14310.3	14310.3
1105.61	381	14375.7	14375.7
1106.11	380.5	14400.9	14400.9
1106.61	380	14458.9	14458.9
1107.11	379.5	14473.1	14473.1
1107.61	379	14509.3	14509.3
1108.11	378.5	14529.3	14529.3
1108.61	378	14673.3	14673.3
1109.11	377.5	14546.5	14546.5
1109.61	377	14627	14627
1110.11	376.5	14736.9	14736.9
1110.61	376	14734.5	14734.5
1111.11	375.5	14667.4	14667.4
1111.61	375	14694.9	14694.9
1112.11	374.5	14682.4	14682.4
1112.61	374	14643.5	14643.5
1113.11	373.5	14800.1	14800.1
1113.61	373	14752.6	14752.6
1114.11	372.5	14826.4	14826.4
1114.61	372	14859.2	14859.2
1115.11	371.5	14965.1	14965.1
1115.61	371	14898.3	14898.3
1116.11	370.5	14911.1	14911.1
1116.61	370	14938.1	14938.1
1117.11	369.5	15024.6	15024.6
1117.61	369	15140.8	15140.8
1118.11	368.5	15170.4	15170.4
1118.61	368	15207.1	15207.1
1119.11	367.5	15102.5	15102.5
1119.61	367	15234.4	15234.4
1120.11	366.5	15325.7	15325.7
1120.61	366	15301.3	15301.3
1121.11	365.5	15361.2	15361.2
1121.61	365	15389.6	15389.6
1122.11	364.5	15372.9	15372.9
1122.61	364	15507.8	15507.8
1123.11	363.5	15513.5	15513.5
1123.61	363	15545.9	15545.9
1124.11	362.5	15732.7	15732.7
1124.61	362	15866.4	15866.4
1125.11	361.5	15891.2	15891.2
1125.61	361	16015.3	16015.3
1126.11	360.5	16217.8	16217.8
1126.61	360	16381.5	16381.5
1127.11	359.5	16651.2	16651.2
1127.61	359	16886.4	16886.4
1128.11	358.5	17287	17287
1128.61	358	17642.2	17642.2
1129.11	357.5	18180.9	18180.9
1129.61	357	18788.2	18788.2
1130.11	356.5	19691.6	19691.6
1130.61	356	20873.8	20873.8
1131.11	355.5	22247.6	22247.6
1131.61	355	23790	23790
1132.11	354.5	25357	25357
1132.61	354	26786.5	26786.5
1133.11	353.5	27670.5	27670.5
1133.61	353	27691.7	27691.7
1134.11	352.5	26787.2	26787.2
1134.61	352	25342.4	25342.4
1135.11	351.5	23456.3	23456.3
1135.61	351	21596.9	21596.9
1136.11	350.5	19901.9	19901.9
1136.61	350	18500.5	18500.5
1137.11	349.5	17244.2	17244.2
1137.61	349	16320.9	16320.9
1138.11	348.5	15578.2	15578.2
1138.61	348	15006	15006
1139.11	347.5	14610.5	14610.5
1139.61	347	14245.4	14245.4
1140.11	346.5	14020.1	14020.1
1140.61	346	13754.4	13754.4
1141.11	345.5	13626.7	13626.7
1141.61	345	13538	13538
1142.11	344.5	13399.2	13399.2
1142.61	344	13357.1	13357.1
1143.11	343.5	13435.3	13435.3
1143.61	343	13486.4	13486.4
1144.11	342.5	13551.5	13551.5
1144.61	342	13829.4	13829.4
1145.11	341.5	14146.3	14146.3
1145.61	341	14387.9	14387.9
1146.11	340.5	14889.4	14889.4
1146.61	340	15499.8	15499.8
1147.11	339.5	16269.6	16269.6
1147.61	339	17310.6	17310.6
1148.11	338.5	18695.8	18695.8
1148.61	338	20474.2	20474.2
1149.11	337.5	22549.8	22549.8
1149.61	337	24950.1	24950.1
1150.11	336.5	27743.7	27743.7
1150.61	336	30398	30398
1151.11	335.5	31811.8	31811.8
1151.61	335	32055.2	32055.2
1152.11	334.5	30766.1	30766.1
1152.61	334	28295.3	28295.3
1153.11	333.5	24889.4	24889.4
1153.61	333	21568.4	21568.4
1154.11	332.5	18704.2	18704.2
1154.61	332	16366.6	16366.6
1155.11	331.5	14486.4	14486.4
1155.61	331	12979.6	12979.6
1156.11	330.5	11813.5	11813.5
1156.61	330	10908.5	10908.5
1157.11	329.5	10229.4	10229.4
1157.61	329	9650.71	9650.71
1158.11	328.5	9195.46	9195.46
1158.61	328	8783.09	8783.09
1159.11	327.5	8480.47	8480.47
1159.61	327	8319.66	8319.66
1160.11	326.5	8078.46	8078.46
1160.61	326	7872.43	7872.43
1161.11	325.5	7712.26	7712.26
1161.61	325	7584.39	7584.39
1162.11	324.5	7450.67	7450.67
1162.61	324	7369.11	7369.11
1163.11	323.5	7296.86	7296.86
1163.61	323	7156.49	7156.49
1164.11	322.5	7122.48	7122.48
1164.61	322	7072.48	7072.48
1165.11	321.5	7012.61	7012.61
1165.61	321	6961.49	6961.49
1166.11	320.5	6948.5	6948.5
1166.61	320	6990.55	6990.55
1167.11	319.5	6954.32	6954.32
1167.61	319	6868.99	6868.99
1168.11	318.5	6880.64	6880.64
1168.61	318	6796.09	6796.09
1169.11	317.5	6729	6729
1169.61	317	6717.28	6717.28
1170.11	316.5	6682.54	6682.54
1170.61	316	6626.97	6626.97
1171.11	315.5	6628.58	6628.58
1171.61	315	6622.72	6622.72
1172.11	314.5	6576.89	6576.89
1172.61	314	6525.79	6525.79
1173.11	313.5	6505.34	6505.34
1173.61	313	6568.55	6568.55
1174.11	312.5	6573.49	6573.49
1174.61	312	6555.17	6555.17
1175.11	311.5	6573.57	6573.57
1175.61	311	6497.64	6497.64
1176.11	310.5	6473.68	6473.68
1176.61	310	6486.18	6486.18
1177.11	309.5	6466.93	6466.93
1177.61	309	6449.17	6449.17
1178.11	308.5	6456.44	6456.44
1178.61	308	6477.49	6477.49
1179.11	307.5	6490.17	6490.17
1179.61	307	6447.06	6447.06
1180.11	306.5	6481.79	6481.79
1180.61	306	6433.96	6433.96
1181.11	305.5	6509.76	6509.76
1181.61	305	6464.62	6464.62
1182.11	304.5	6500.25	6500.25
1182.61	304	6489.82	6489.82
1183.11	303.5	6528.45	6528.45
1183.61	303	6499.23	6499.23
1184.11	302.5	6494.79	6494.79
1184.61	302	6508.34	6508.34
1185.11	301.5	6458.35	6458.35
1185.61	301	6491.58	6491.58
1186.11	300.5	6479.72	6479.72
1186.61	300	6472.55	6472.55
1187.11	299.5	6456.78	6456.78
1187.61	299	6490.12	6490.12
1188.11	298.5	6532.05	6532.05
1188.61	298	6521.4	6521.4
1189.11	297.5	6486.18	6486.18
1189.61	297	6433.25	6433.25
1190.11	296.5	6437.98	6437.98
1190.61	296	6492.59	6492.59