c:\users\mark\owncloud\muelheim group\projects\gas phase background\ex191_cec356 au in he_1200um.vms
Au4f
	Characteristic Energy eV	1486.61	Acquisition Time s	0.4
KE_Au4f	BE_Au4f	CPS_Au4f
1306.61	180	4884.22
1306.66	179.95	4877.65
1306.71	179.9	4933.7
1306.76	179.85	4972.77
1306.81	179.8	4939.2
1306.86	179.75	4811.95
1306.91	179.7	4870.25
1306.96	179.65	4889.95
1307.01	179.6	4870.32
1307.06	179.55	4947.27
1307.11	179.5	4929.65
1307.16	179.45	4936
1307.21	179.4	4936.45
1307.26	179.35	4900.1
1307.31	179.3	4919.47
1307.36	179.25	4939.85
1307.41	179.2	4934.05
1307.46	179.15	4919.05
1307.51	179.1	4895.77
1307.56	179.05	4919.57
1307.61	179	4965.27
1307.66	178.95	4910.67
1307.71	178.9	4902.02
1307.76	178.85	4912.05
1307.81	178.8	4866.8
1307.86	178.75	4969.57
1307.91	178.7	4946.9
1307.96	178.65	4904.6
1308.01	178.6	4896.07
1308.06	178.55	4926.18
1308.11	178.5	4925.67
1308.16	178.45	4864.1
1308.21	178.4	4905.32
1308.26	178.35	4915.47
1308.31	178.3	4935.67
1308.36	178.25	4955.45
1308.41	178.2	4938.68
1308.46	178.15	4999.93
1308.51	178.1	4906
1308.56	178.05	4856.2
1308.61	178	4921.72
1308.66	177.95	4941.82
1308.71	177.9	4914.45
1308.76	177.85	4944.65
1308.81	177.8	4929.3
1308.86	177.75	4984.32
1308.91	177.7	4983.7
1308.96	177.65	4939.55
1309.01	177.6	4895.52
1309.06	177.55	4900.72
1309.11	177.5	4971.42
1309.16	177.45	4948.9
1309.21	177.4	4973.2
1309.26	177.35	4983.45
1309.31	177.3	4992
1309.36	177.25	4936.02
1309.41	177.2	4909.02
1309.46	177.15	4924.4
1309.51	177.1	5010.92
1309.56	177.05	4949.65
1309.61	177	4963.9
1309.66	176.95	4985.27
1309.71	176.9	4972.57
1309.76	176.85	5053.77
1309.81	176.8	4999.65
1309.86	176.75	4966.1
1309.91	176.7	4875.98
1309.96	176.65	4917.45
1310.01	176.6	4935.65
1310.06	176.55	4929.32
1310.11	176.5	4990.67
1310.16	176.45	4965.67
1310.21	176.4	5007.82
1310.26	176.35	4961.32
1310.31	176.3	4951.88
1310.36	176.25	5023.4
1310.41	176.2	4993.75
1310.46	176.15	4953.63
1310.51	176.1	4920.8
1310.56	176.05	4984.85
1310.61	176	4962.45
1310.66	175.95	4946.97
1310.71	175.9	4932.23
1310.76	175.85	5019.8
1310.81	175.8	5051.8
1310.86	175.75	4922.12
1310.91	175.7	4948.72
1310.96	175.65	4963.05
1311.01	175.6	4959.55
1311.06	175.55	4997.88
1311.11	175.5	4996.57
1311.16	175.45	5030.43
1311.21	175.4	5035
1311.26	175.35	4963.3
1311.31	175.3	5002.15
1311.36	175.25	5030.07
1311.41	175.2	5000.7
1311.46	175.15	4985.95
1311.51	175.1	4971.13
1311.56	175.05	4995.8
1311.61	175	5015.52
1311.66	174.95	4954.73
1311.71	174.9	4970.2
1311.76	174.85	4990.77
1311.81	174.8	4972.82
1311.86	174.75	5041.47
1311.91	174.7	5036.27
1311.96	174.65	4999.22
1312.01	174.6	5038.7
1312.06	174.55	4994.25
1312.11	174.5	4955.95
1312.16	174.45	4972.63
1312.21	174.4	5069.67
1312.26	174.35	5058.52
1312.31	174.3	5044.3
1312.36	174.25	5010.3
1312.41	174.2	5022.85
1312.46	174.15	5027.77
1312.51	174.1	4920.17
1312.56	174.05	5038.48
1312.61	174	4996.9
1312.66	173.95	4990.25
1312.71	173.9	5002.63
1312.76	173.85	5009.32
1312.81	173.8	5011.42
1312.86	173.75	5010.92
1312.91	173.7	5034.3
1312.96	173.65	4988.05
1313.01	173.6	4988.07
1313.06	173.55	4973.17
1313.11	173.5	4954.1
1313.16	173.45	5006.75
1313.21	173.4	4993.57
1313.26	173.35	4977.67
1313.31	173.3	5010.13
1313.36	173.25	5035.67
1313.41	173.2	5052.75
1313.46	173.15	4986.4
1313.51	173.1	5021.05
1313.56	173.05	5075.2
1313.61	173	5042.23
1313.66	172.95	5021.75
1313.71	172.9	4973.32
1313.76	172.85	5016.15
1313.81	172.8	5051.72
1313.86	172.75	5052.05
1313.91	172.7	5058.9
1313.96	172.65	5010.95
1314.01	172.6	5029.65
1314.06	172.55	5037.4
1314.11	172.5	5008.7
1314.16	172.45	4943.52
1314.21	172.4	4974.5
1314.26	172.35	5023.6
1314.31	172.3	5025.98
1314.36	172.25	5007.4
1314.41	172.2	5021.95
1314.46	172.15	4937.82
1314.51	172.1	5083.27
1314.56	172.05	5045.6
1314.61	172	5020.87
1314.66	171.95	5096.57
1314.71	171.9	5051.05
1314.76	171.85	5003.65
1314.81	171.8	5014.82
1314.86	171.75	5045.27
1314.91	171.7	5039.97
1314.96	171.65	5004.38
1315.01	171.6	5059.52
1315.06	171.55	5043.52
1315.11	171.5	5005.15
1315.16	171.45	4981.02
1315.21	171.4	5036.38
1315.26	171.35	5040.22
1315.31	171.3	4978.82
1315.36	171.25	5015.47
1315.41	171.2	5040.63
1315.46	171.15	5030.82
1315.51	171.1	5048.7
1315.56	171.05	5070.65
1315.61	171	5028.63
1315.66	170.95	5050.92
1315.71	170.9	4997.8
1315.76	170.85	5014.65
1315.81	170.8	5064.5
1315.86	170.75	5047.97
1315.91	170.7	5044.45
1315.96	170.65	5045.07
1316.01	170.6	5043.05
1316.06	170.55	5031.55
1316.11	170.5	5068.45
1316.16	170.45	5085.07
1316.21	170.4	5080.82
1316.26	170.35	5104.95
1316.31	170.3	5070.67
1316.36	170.25	5036.65
1316.41	170.2	5031.27
1316.46	170.15	5052.2
1316.51	170.1	5045.8
1316.56	170.05	5059.88
1316.61	170	5081.82
1316.66	169.95	5138.85
1316.71	169.9	5039.55
1316.76	169.85	5043.27
1316.81	169.8	5088.5
1316.86	169.75	5080.15
1316.91	169.7	5033.85
1316.96	169.65	5102.8
1317.01	169.6	5150.97
1317.06	169.55	5080.6
1317.11	169.5	5089.55
1317.16	169.45	5091.22
1317.21	169.4	5095.45
1317.26	169.35	5031.45
1317.31	169.3	5098.9
1317.36	169.25	5125.1
1317.41	169.2	5039.1
1317.46	169.15	5099.55
1317.51	169.1	5108.68
1317.56	169.05	5118.9
1317.61	169	5059.6
1317.66	168.95	5066.82
1317.71	168.9	5078.32
1317.76	168.85	5068.42
1317.81	168.8	5058.07
1317.86	168.75	5093.77
1317.91	168.7	5125.75
1317.96	168.65	5102.32
1318.01	168.6	5085.35
1318.06	168.55	5118.52
1318.11	168.5	5092.52
1318.16	168.45	5097.9
1318.21	168.4	5055
1318.26	168.35	5107.3
1318.31	168.3	5081.3
1318.36	168.25	5077.6
1318.41	168.2	5050.98
1318.46	168.15	5128.47
1318.51	168.1	5067.52
1318.56	168.05	5071.72
1318.61	168	5052.9
1318.66	167.95	5120.47
1318.71	167.9	5065.35
1318.76	167.85	4988.63
1318.81	167.8	4977.75
1318.86	167.75	5039.25
1318.91	167.7	5091.7
1318.96	167.65	5118.72
1319.01	167.6	5127.95
1319.06	167.55	5089.4
1319.11	167.5	5082.95
1319.16	167.45	5086.65
1319.21	167.4	5090.27
1319.26	167.35	5102.3
1319.31	167.3	5103.02
1319.36	167.25	5095.45
1319.41	167.2	5079.75
1319.46	167.15	5097.25
1319.51	167.1	5102.45
1319.56	167.05	5086.95
1319.61	167	5066.32
1319.66	166.95	5113.37
1319.71	166.9	5101.1
1319.76	166.85	5068.07
1319.81	166.8	5112.45
1319.86	166.75	5078.48
1319.91	166.7	5050.22
1319.96	166.65	5056.85
1320.01	166.6	5048.85
1320.06	166.55	5067.77
1320.11	166.5	5149.55
1320.16	166.45	5130.38
1320.21	166.4	5106.6
1320.26	166.35	5132.93
1320.31	166.3	5164.87
1320.36	166.25	5189.05
1320.41	166.2	5133.25
1320.46	166.15	5074.38
1320.51	166.1	5149.1
1320.56	166.05	5127.6
1320.61	166	5090.47
1320.66	165.95	5130.45
1320.71	165.9	5107
1320.76	165.85	5142.45
1320.81	165.8	5091.15
1320.86	165.75	5139.27
1320.91	165.7	5086.8
1320.96	165.65	5129.47
1321.01	165.6	5117.97
1321.06	165.55	5114.45
1321.11	165.5	5156.17
1321.16	165.45	5181.4
1321.21	165.4	5081.38
1321.26	165.35	5088.97
1321.31	165.3	5163.7
1321.36	165.25	5126.38
1321.41	165.2	5077.1
1321.46	165.15	5115.17
1321.51	165.1	5089.35
1321.56	165.05	5180.2
1321.61	165	5166.43
1321.66	164.95	5128.78
1321.71	164.9	5132.42
1321.76	164.85	5085.9
1321.81	164.8	5055.98
1321.86	164.75	5121.4
1321.91	164.7	5120.97
1321.96	164.65	5077.88
1322.01	164.6	5048.25
1322.06	164.55	5113.57
1322.11	164.5	5145.05
1322.16	164.45	5170.75
1322.21	164.4	5142.95
1322.26	164.35	5172.45
1322.31	164.3	5069.2
1322.36	164.25	5133.65
1322.41	164.2	5159.75
1322.46	164.15	5129.4
1322.51	164.1	5165.9
1322.56	164.05	5097.55
1322.61	164	5084.42
1322.66	163.95	5152.9
1322.71	163.9	5126.92
1322.76	163.85	5092.05
1322.81	163.8	5132.02
1322.86	163.75	5128.5
1322.91	163.7	5136.3
1322.96	163.65	5186.5
1323.01	163.6	5149.27
1323.06	163.55	5160.38
1323.11	163.5	5156.15
1323.16	163.45	5188.72
1323.21	163.4	5147.32
1323.26	163.35	5122.2
1323.31	163.3	5144.67
1323.36	163.25	5202.5
1323.41	163.2	5197.22
1323.46	163.15	5129.9
1323.51	163.1	5151.75
1323.56	163.05	5168.8
1323.61	163	5168.62
1323.66	162.95	5084.5
1323.71	162.9	5119.82
1323.76	162.85	5171.5
1323.81	162.8	5202.15
1323.86	162.75	5170.03
1323.91	162.7	5219.72
1323.96	162.65	5191.4
1324.01	162.6	5222.25
1324.06	162.55	5213.85
1324.11	162.5	5217.68
1324.16	162.45	5171.22
1324.21	162.4	5227.05
1324.26	162.35	5183.98
1324.31	162.3	5194.67
1324.36	162.25	5192.53
1324.41	162.2	5224.97
1324.46	162.15	5168.62
1324.51	162.1	5132.45
1324.56	162.05	5214.95
1324.61	162	5166.85
1324.66	161.95	5192.4
1324.71	161.9	5188.05
1324.76	161.85	5169.35
1324.81	161.8	5147.4
1324.86	161.75	5185.05
1324.91	161.7	5199.32
1324.96	161.65	5209.1
1325.01	161.6	5208.62
1325.06	161.55	5201.3
1325.11	161.5	5183.13
1325.16	161.45	5170.45
1325.21	161.4	5203.47
1325.26	161.35	5226.9
1325.31	161.3	5187.85
1325.36	161.25	5202
1325.41	161.2	5180.38
1325.46	161.15	5225.7
1325.51	161.1	5202.42
1325.56	161.05	5248.55
1325.61	161	5139.22
1325.66	160.95	5175.75
1325.71	160.9	5198.42
1325.76	160.85	5199.7
1325.81	160.8	5186.12
1325.86	160.75	5208.95
1325.91	160.7	5251.7
1325.96	160.65	5200.27
1326.01	160.6	5223.32
1326.06	160.55	5224.6
1326.11	160.5	5227.32
1326.16	160.45	5198.67
1326.21	160.4	5198.4
1326.26	160.35	5215.05
1326.31	160.3	5231.05
1326.36	160.25	5233.42
1326.41	160.2	5194.55
1326.46	160.15	5199.45
1326.51	160.1	5226.28
1326.56	160.05	5236.85
1326.61	160	5191.97
1326.66	159.95	5236.9
1326.71	159.9	5212.5
1326.76	159.85	5260.15
1326.81	159.8	5215.27
1326.86	159.75	5227.17
1326.91	159.7	5246.77
1326.96	159.65	5237.5
1327.01	159.6	5234
1327.06	159.55	5204.9
1327.11	159.5	5230.2
1327.16	159.45	5193
1327.21	159.4	5212.2
1327.26	159.35	5229.18
1327.31	159.3	5230.77
1327.36	159.25	5130.38
1327.41	159.2	5184.62
1327.46	159.15	5271.5
1327.51	159.1	5259.95
1327.56	159.05	5251.7
1327.61	159	5200.82
1327.66	158.95	5203.67
1327.71	158.9	5259.45
1327.76	158.85	5271.05
1327.81	158.8	5264.87
1327.86	158.75	5248.98
1327.91	158.7	5182.85
1327.96	158.65	5229.05
1328.01	158.6	5243.88
1328.06	158.55	5261.38
1328.11	158.5	5283.72
1328.16	158.45	5143.95
1328.21	158.4	5299.22
1328.26	158.35	5299.2
1328.31	158.3	5257.77
1328.36	158.25	5196.02
1328.41	158.2	5224.47
1328.46	158.15	5236.48
1328.51	158.1	5301.7
1328.56	158.05	5276.4
1328.61	158	5183.57
1328.66	157.95	5239.57
1328.71	157.9	5249.3
1328.76	157.85	5249.75
1328.81	157.8	5264.7
1328.86	157.75	5350.35
1328.91	157.7	5233.32
1328.96	157.65	5194.72
1329.01	157.6	5207.57
1329.06	157.55	5228.35
1329.11	157.5	5281.43
1329.16	157.45	5176.72
1329.21	157.4	5226.38
1329.26	157.35	5219.65
1329.31	157.3	5218.37
1329.36	157.25	5252.85
1329.41	157.2	5228.95
1329.46	157.15	5290.13
1329.51	157.1	5271.02
1329.56	157.05	5280.18
1329.61	157	5225.9
1329.66	156.95	5293.4
1329.71	156.9	5272.2
1329.76	156.85	5289.3
1329.81	156.8	5342.12
1329.86	156.75	5267.85
1329.91	156.7	5307.3
1329.96	156.65	5323.52
1330.01	156.6	5295.38
1330.06	156.55	5269
1330.11	156.5	5277.63
1330.16	156.45	5281.5
1330.21	156.4	5280
1330.26	156.35	5316.95
1330.31	156.3	5180.45
1330.36	156.25	5234.47
1330.41	156.2	5315.47
1330.46	156.15	5359.07
1330.51	156.1	5345.18
1330.56	156.05	5314.75
1330.61	156	5340.52
1330.66	155.95	5273.35
1330.71	155.9	5289.85
1330.76	155.85	5278.17
1330.81	155.8	5233.25
1330.86	155.75	5299.5
1330.91	155.7	5312.77
1330.96	155.65	5228.22
1331.01	155.6	5266.12
1331.06	155.55	5285.27
1331.11	155.5	5326.8
1331.16	155.45	5334.32
1331.21	155.4	5306.5
1331.26	155.35	5246.35
1331.31	155.3	5278.45
1331.36	155.25	5351.15
1331.41	155.2	5309.32
1331.46	155.15	5347.12
1331.51	155.1	5337.73
1331.56	155.05	5317.45
1331.61	155	5281.92
1331.66	154.95	5338.82
1331.71	154.9	5377.77
1331.76	154.85	5360.05
1331.81	154.8	5351.68
1331.86	154.75	5322.4
1331.91	154.7	5308.62
1331.96	154.65	5312.88
1332.01	154.6	5391.77
1332.06	154.55	5267.55
1332.11	154.5	5346.3
1332.16	154.45	5349.2
1332.21	154.4	5316.68
1332.26	154.35	5304.57
1332.31	154.3	5303.88
1332.36	154.25	5334.25
1332.41	154.2	5319.05
1332.46	154.15	5314.52
1332.51	154.1	5319.25
1332.56	154.05	5291.52
1332.61	154	5361.32
1332.66	153.95	5291.1
1332.71	153.9	5300.97
1332.76	153.85	5359.3
1332.81	153.8	5362.85
1332.86	153.75	5412.53
1332.91	153.7	5368.5
1332.96	153.65	5314.72
1333.01	153.6	5347.4
1333.06	153.55	5339.45
1333.11	153.5	5405.1
1333.16	153.45	5440.82
1333.21	153.4	5376.85
1333.26	153.35	5372.82
1333.31	153.3	5339.32
1333.36	153.25	5413.7
1333.41	153.2	5391
1333.46	153.15	5389.05
1333.51	153.1	5393.95
1333.56	153.05	5373.75
1333.61	153	5407.82
1333.66	152.95	5425.47
1333.71	152.9	5387.32
1333.76	152.85	5402.2
1333.81	152.8	5412.12
1333.86	152.75	5455.23
1333.91	152.7	5340.18
1333.96	152.65	5373.17
1334.01	152.6	5419.67
1334.06	152.55	5437.2
1334.11	152.5	5416.88
1334.16	152.45	5438.82
1334.21	152.4	5405.05
1334.26	152.35	5367.65
1334.31	152.3	5394.65
1334.36	152.25	5425.7
1334.41	152.2	5443.17
1334.46	152.15	5412.6
1334.51	152.1	5403.2
1334.56	152.05	5439.35
1334.61	152	5390.35
1334.66	151.95	5344
1334.71	151.9	5366.2
1334.76	151.85	5399.95
1334.81	151.8	5396.68
1334.86	151.75	5385.18
1334.91	151.7	5367.63
1334.96	151.65	5375.97
1335.01	151.6	5454.47
1335.06	151.55	5501.4
1335.11	151.5	5407.97
1335.16	151.45	5409.52
1335.21	151.4	5450.87
1335.26	151.35	5395.65
1335.31	151.3	5409.02
1335.36	151.25	5409.87
1335.41	151.2	5392.53
1335.46	151.15	5387.02
1335.51	151.1	5442.6
1335.56	151.05	5414.87
1335.61	151	5414.65
1335.66	150.95	5394.75
1335.71	150.9	5434.07
1335.76	150.85	5437.42
1335.81	150.8	5455
1335.86	150.75	5404.57
1335.91	150.7	5450.65
1335.96	150.65	5468.67
1336.01	150.6	5389.22
1336.06	150.55	5389.55
1336.11	150.5	5390.45
1336.16	150.45	5457.55
1336.21	150.4	5425.05
1336.26	150.35	5445.32
1336.31	150.3	5434.52
1336.36	150.25	5404
1336.41	150.2	5358.5
1336.46	150.15	5407.93
1336.51	150.1	5451.1
1336.56	150.05	5452.4
1336.61	150	5421.35
1336.66	149.95	5418.62
1336.71	149.9	5485.1
1336.76	149.85	5486.3
1336.81	149.8	5480.07
1336.86	149.75	5459.4
1336.91	149.7	5483.82
1336.96	149.65	5481.43
1337.01	149.6	5453.7
1337.06	149.55	5413.45
1337.11	149.5	5476.57
1337.16	149.45	5410.3
1337.21	149.4	5421.8
1337.26	149.35	5405.07
1337.31	149.3	5444.05
1337.36	149.25	5403.15
1337.41	149.2	5382.55
1337.46	149.15	5429.4
1337.51	149.1	5420.6
1337.56	149.05	5438.75
1337.61	149	5516.55
1337.66	148.95	5514.05
1337.71	148.9	5520.8
1337.76	148.85	5508
1337.81	148.8	5530.63
1337.86	148.75	5496.4
1337.91	148.7	5506.3
1337.96	148.65	5466.65
1338.01	148.6	5439.25
1338.06	148.55	5470.35
1338.11	148.5	5465.35
1338.16	148.45	5466.97
1338.21	148.4	5452.02
1338.26	148.35	5452.35
1338.31	148.3	5464.82
1338.36	148.25	5528.13
1338.41	148.2	5570.75
1338.46	148.15	5467.82
1338.51	148.1	5505.45
1338.56	148.05	5439.45
1338.61	148	5514.07
1338.66	147.95	5508.93
1338.71	147.9	5502.35
1338.76	147.85	5508.72
1338.81	147.8	5560.87
1338.86	147.75	5492.53
1338.91	147.7	5504.87
1338.96	147.65	5533.95
1339.01	147.6	5529.52
1339.06	147.55	5522.7
1339.11	147.5	5541.2
1339.16	147.45	5466.85
1339.21	147.4	5463.9
1339.26	147.35	5431.1
1339.31	147.3	5482.05
1339.36	147.25	5526.15
1339.41	147.2	5498.93
1339.46	147.15	5504.82
1339.51	147.1	5547.7
1339.56	147.05	5530.6
1339.61	147	5548.47
1339.66	146.95	5518.07
1339.71	146.9	5468.7
1339.76	146.85	5548.98
1339.81	146.8	5485.5
1339.86	146.75	5535.95
1339.91	146.7	5467.88
1339.96	146.65	5533.9
1340.01	146.6	5515.35
1340.06	146.55	5448.72
1340.11	146.5	5487.5
1340.16	146.45	5444.32
1340.21	146.4	5437.75
1340.26	146.35	5451.63
1340.31	146.3	5503.82
1340.36	146.25	5543.9
1340.41	146.2	5490.2
1340.46	146.15	5549
1340.51	146.1	5512.7
1340.56	146.05	5496.38
1340.61	146	5532.05
1340.66	145.95	5557
1340.71	145.9	5542.05
1340.76	145.85	5511.43
1340.81	145.8	5426
1340.86	145.75	5536.5
1340.91	145.7	5537.05
1340.96	145.65	5503.45
1341.01	145.6	5499.42
1341.06	145.55	5447.88
1341.11	145.5	5441.3
1341.16	145.45	5516.88
1341.21	145.4	5535.32
1341.26	145.35	5541.92
1341.31	145.3	5525.87
1341.36	145.25	5545.13
1341.41	145.2	5527.68
1341.46	145.15	5533.9
1341.51	145.1	5471.35
1341.56	145.05	5514.45
1341.61	145	5492.37
1341.66	144.95	5485.95
1341.71	144.9	5546.88
1341.76	144.85	5544.9
1341.81	144.8	5455.77
1341.86	144.75	5493.15
1341.91	144.7	5548.67
1341.96	144.65	5545.05
1342.01	144.6	5569.38
1342.06	144.55	5498.62
1342.11	144.5	5578.1
1342.16	144.45	5578.65
1342.21	144.4	5565.32
1342.26	144.35	5512.8
1342.31	144.3	5527.53
1342.36	144.25	5500.4
1342.41	144.2	5585.15
1342.46	144.15	5527.5
1342.51	144.1	5536.25
1342.56	144.05	5509.97
1342.61	144	5502.95
1342.66	143.95	5617.5
1342.71	143.9	5586.32
1342.76	143.85	5519.87
1342.81	143.8	5565.3
1342.86	143.75	5582.68
1342.91	143.7	5536.48
1342.96	143.65	5552.93
1343.01	143.6	5582.82
1343.06	143.55	5627.02
1343.11	143.5	5650.43
1343.16	143.45	5626.7
1343.21	143.4	5613.85
1343.26	143.35	5618.52
1343.31	143.3	5534.95
1343.36	143.25	5533.98
1343.41	143.2	5532.7
1343.46	143.15	5589.18
1343.51	143.1	5608.67
1343.56	143.05	5590.05
1343.61	143	5521.07
1343.66	142.95	5599.57
1343.71	142.9	5544.72
1343.76	142.85	5537.88
1343.81	142.8	5510.35
1343.86	142.75	5596.22
1343.91	142.7	5617.65
1343.96	142.65	5550.55
1344.01	142.6	5507.17
1344.06	142.55	5543.05
1344.11	142.5	5616.8
1344.16	142.45	5562.75
1344.21	142.4	5573.65
1344.26	142.35	5542.53
1344.31	142.3	5607.97
1344.36	142.25	5605.9
1344.41	142.2	5631.77
1344.46	142.15	5543.8
1344.51	142.1	5554.25
1344.56	142.05	5561.02
1344.61	142	5613.25
1344.66	141.95	5649.67
1344.71	141.9	5694.87
1344.76	141.85	5572.15
1344.81	141.8	5581.75
1344.86	141.75	5583.05
1344.91	141.7	5552.47
1344.96	141.65	5624.6
1345.01	141.6	5615.77
1345.06	141.55	5599.15
1345.11	141.5	5551.57
1345.16	141.45	5536.55
1345.21	141.4	5569.57
1345.26	141.35	5572.2
1345.31	141.3	5571.88
1345.36	141.25	5535.4
1345.41	141.2	5528.78
1345.46	141.15	5559.85
1345.51	141.1	5538.7
1345.56	141.05	5586.45
1345.61	141	5584.52
1345.66	140.95	5616.12
1345.71	140.9	5604.35
1345.76	140.85	5540.63
1345.81	140.8	5586.6
1345.86	140.75	5651.28
1345.91	140.7	5543.17
1345.96	140.65	5559.35
1346.01	140.6	5604.6
1346.06	140.55	5595.07
1346.11	140.5	5591.28
1346.16	140.45	5642.12
1346.21	140.4	5608.88
1346.26	140.35	5602.4
1346.31	140.3	5638.52
1346.36	140.25	5568.35
1346.41	140.2	5641.15
1346.46	140.15	5679.3
1346.51	140.1	5632.05
1346.56	140.05	5632.85
1346.61	140	5540.97
1346.66	139.95	5572.17
1346.71	139.9	5726.38
1346.76	139.85	5701.43
1346.81	139.8	5622.77
1346.86	139.75	5673.75
1346.91	139.7	5631.6
1346.96	139.65	5560.6
1347.01	139.6	5594.18
1347.06	139.55	5617.07
1347.11	139.5	5636.77
1347.16	139.45	5566.5
1347.21	139.4	5686.45
1347.26	139.35	5633.1
1347.31	139.3	5629.35
1347.36	139.25	5576.88
1347.41	139.2	5637.73
1347.46	139.15	5584.62
1347.51	139.1	5616.38
1347.56	139.05	5698.15
1347.61	139	5652.42
1347.66	138.95	5586.3
1347.71	138.9	5616.15
1347.76	138.85	5612.45
1347.81	138.8	5678.32
1347.86	138.75	5622.63
1347.91	138.7	5633.32
1347.96	138.65	5628.95
1348.01	138.6	5556.85
1348.06	138.55	5622.05
1348.11	138.5	5631.32
1348.16	138.45	5655.13
1348.21	138.4	5629.18
1348.26	138.35	5623.17
1348.31	138.3	5705.97
1348.36	138.25	5661.05
1348.41	138.2	5632.7
1348.46	138.15	5626.12
1348.51	138.1	5692.6
1348.56	138.05	5716
1348.61	138	5725.72
1348.66	137.95	5645.87
1348.71	137.9	5639.4
1348.76	137.85	5632.95
1348.81	137.8	5708.67
1348.86	137.75	5630.13
1348.91	137.7	5607.55
1348.96	137.65	5686.55
1349.01	137.6	5659
1349.06	137.55	5669.02
1349.11	137.5	5614.4
1349.16	137.45	5611.38
1349.21	137.4	5642.22
1349.26	137.35	5618.27
1349.31	137.3	5602.88
1349.36	137.25	5672.5
1349.41	137.2	5648.55
1349.46	137.15	5646
1349.51	137.1	5661.2
1349.56	137.05	5640.72
1349.61	137	5660.77
1349.66	136.95	5678.65
1349.71	136.9	5648.82
1349.76	136.85	5677.8
1349.81	136.8	5736.25
1349.86	136.75	5638.37
1349.91	136.7	5635.35
1349.96	136.65	5713.07
1350.01	136.6	5727.75
1350.06	136.55	5691.43
1350.11	136.5	5737.75
1350.16	136.45	5680.47
1350.21	136.4	5673.9
1350.26	136.35	5695.85
1350.31	136.3	5678.4
1350.36	136.25	5679.85
1350.41	136.2	5701.8
1350.46	136.15	5690.92
1350.51	136.1	5696.65
1350.56	136.05	5671.75
1350.61	136	5715.9
1350.66	135.95	5751.63
1350.71	135.9	5698.95
1350.76	135.85	5796.85
1350.81	135.8	5724.9
1350.86	135.75	5689.87
1350.91	135.7	5630.97
1350.96	135.65	5720.13
1351.01	135.6	5628.4
1351.06	135.55	5671.85
1351.11	135.5	5699.9
1351.16	135.45	5669.62
1351.21	135.4	5714.25
1351.26	135.35	5742.68
1351.31	135.3	5735.43
1351.36	135.25	5739.52
1351.41	135.2	5758.8
1351.46	135.15	5759.13
1351.51	135.1	5774.6
1351.56	135.05	5718.32
1351.61	135	5769.87
1351.66	134.95	5689.3
1351.71	134.9	5640.52
1351.76	134.85	5643.35
1351.81	134.8	5787.73
1351.86	134.75	5712.25
1351.91	134.7	5744.3
1351.96	134.65	5743
1352.01	134.6	5683.62
1352.06	134.55	5730.25
1352.11	134.5	5735.55
1352.16	134.45	5766.55
1352.21	134.4	5771.97
1352.26	134.35	5760.6
1352.31	134.3	5730.6
1352.36	134.25	5740.82
1352.41	134.2	5740.92
1352.46	134.15	5741.85
1352.51	134.1	5740.8
1352.56	134.05	5704.6
1352.61	134	5771.75
1352.66	133.95	5719.77
1352.71	133.9	5757.8
1352.76	133.85	5714.45
1352.81	133.8	5704.72
1352.86	133.75	5789.65
1352.91	133.7	5752.17
1352.96	133.65	5684.97
1353.01	133.6	5734.02
1353.06	133.55	5708.07
1353.11	133.5	5712.68
1353.16	133.45	5680.23
1353.21	133.4	5669.35
1353.26	133.35	5731.88
1353.31	133.3	5735.75
1353.36	133.25	5701.75
1353.41	133.2	5669.5
1353.46	133.15	5732.75
1353.51	133.1	5808.32
1353.56	133.05	5745.67
1353.61	133	5758.85
1353.66	132.95	5766.4
1353.71	132.9	5715.18
1353.76	132.85	5692.35
1353.81	132.8	5694.85
1353.86	132.75	5689.85
1353.91	132.7	5803.6
1353.96	132.65	5764.05
1354.01	132.6	5770.9
1354.06	132.55	5717.73
1354.11	132.5	5797.88
1354.16	132.45	5683.35
1354.21	132.4	5722.27
1354.26	132.35	5774.92
1354.31	132.3	5778.02
1354.36	132.25	5788.72
1354.41	132.2	5766.92
1354.46	132.15	5897.42
1354.51	132.1	5856.3
1354.56	132.05	5778.13
1354.61	132	5714.13
1354.66	131.95	5768.05
1354.71	131.9	5752.15
1354.76	131.85	5818.85
1354.81	131.8	5826.45
1354.86	131.75	5847.3
1354.91	131.7	5739.95
1354.96	131.65	5734.6
1355.01	131.6	5819.13
1355.06	131.55	5776.52
1355.11	131.5	5766.2
1355.16	131.45	5718.65
1355.21	131.4	5746.3
1355.26	131.35	5747.07
1355.31	131.3	5766.3
1355.36	131.25	5740.85
1355.41	131.2	5737.3
1355.46	131.15	5699.7
1355.51	131.1	5750.18
1355.56	131.05	5809.67
1355.61	131	5761.3
1355.66	130.95	5704.87
1355.71	130.9	5706.6
1355.76	130.85	5752.22
1355.81	130.8	5739.42
1355.86	130.75	5716.85
1355.91	130.7	5787.55
1355.96	130.65	5765.03
1356.01	130.6	5756.43
1356.06	130.55	5772.9
1356.11	130.5	5790.38
1356.16	130.45	5794.47
1356.21	130.4	5787.77
1356.26	130.35	5835.13
1356.31	130.3	5836.05
1356.36	130.25	5848.5
1356.41	130.2	5803.67
1356.46	130.15	5878.88
1356.51	130.1	5835.5
1356.56	130.05	5816.05
1356.61	130	5803.67
1356.66	129.95	5836.57
1356.71	129.9	5848.57
1356.76	129.85	5906.68
1356.81	129.8	5806.68
1356.86	129.75	5758.67
1356.91	129.7	5814.32
1356.96	129.65	5827.07
1357.01	129.6	5828.5
1357.06	129.55	5877.12
1357.11	129.5	5839.1
1357.16	129.45	5794.85
1357.21	129.4	5722.63
1357.26	129.35	5811.65
1357.31	129.3	5770.52
1357.36	129.25	5816.95
1357.41	129.2	5781.52
1357.46	129.15	5774.72
1357.51	129.1	5814.75
1357.56	129.05	5762.1
1357.61	129	5759.38
1357.66	128.95	5807.9
1357.71	128.9	5722.93
1357.76	128.85	5807.12
1357.81	128.8	5726.3
1357.86	128.75	5844.22
1357.91	128.7	5769.85
1357.96	128.65	5773.93
1358.01	128.6	5773.95
1358.06	128.55	5756.02
1358.11	128.5	5856.48
1358.16	128.45	5798.6
1358.21	128.4	5765.3
1358.26	128.35	5861.97
1358.31	128.3	5763.55
1358.36	128.25	5812.35
1358.41	128.2	5825.23
1358.46	128.15	5856.82
1358.51	128.1	5765.23
1358.56	128.05	5798.42
1358.61	128	5741.6
1358.66	127.95	5760.6
1358.71	127.9	5773.82
1358.76	127.85	5776.72
1358.81	127.8	5808.93
1358.86	127.75	5785
1358.91	127.7	5833.65
1358.96	127.65	5798.42
1359.01	127.6	5787.45
1359.06	127.55	5832.05
1359.11	127.5	5749.45
1359.16	127.45	5779.1
1359.21	127.4	5774.42
1359.26	127.35	5743.8
1359.31	127.3	5799.55
1359.36	127.25	5812.55
1359.41	127.2	5814.15
1359.46	127.15	5778.35
1359.51	127.1	5824.22
1359.56	127.05	5758.62
1359.61	127	5751.95
1359.66	126.95	5776.1
1359.71	126.9	5852.97
1359.76	126.85	5813.25
1359.81	126.8	5902.63
1359.86	126.75	5885.23
1359.91	126.7	5962.07
1359.96	126.65	5943.17
1360.01	126.6	5951.07
1360.06	126.55	5933.52
1360.11	126.5	5863.6
1360.16	126.45	5914.07
1360.21	126.4	5877.63
1360.26	126.35	5938.2
1360.31	126.3	5960.6
1360.36	126.25	5979.82
1360.41	126.2	5918.9
1360.46	126.15	5916.65
1360.51	126.1	5927.4
1360.56	126.05	5907.2
1360.61	126	5932.95
1360.66	125.95	5870.45
1360.71	125.9	5952.2
1360.76	125.85	5933.85
1360.81	125.8	5910.3
1360.86	125.75	5890.97
1360.91	125.7	5872.22
1360.96	125.65	5849.77
1361.01	125.6	5882.02
1361.06	125.55	5949.42
1361.11	125.5	5842.82
1361.16	125.45	5786.2
1361.21	125.4	5806.1
1361.26	125.35	5904.38
1361.31	125.3	5834.22
1361.36	125.25	5859.45
1361.41	125.2	5858.85
1361.46	125.15	5907.97
1361.51	125.1	5894.65
1361.56	125.05	5910.32
1361.61	125	5860.85
1361.66	124.95	5861.38
1361.71	124.9	5867.27
1361.76	124.85	5873.82
1361.81	124.8	5890.45
1361.86	124.75	5928.6
1361.91	124.7	5969.35
1361.96	124.65	5922.15
1362.01	124.6	5955.72
1362.06	124.55	5893.5
1362.11	124.5	5928.45
1362.16	124.45	5957.9
1362.21	124.4	5920.97
1362.26	124.35	5904.32
1362.31	124.3	5892.1
1362.36	124.25	5921.8
1362.41	124.2	5925.03
1362.46	124.15	5973.8
1362.51	124.1	5931.43
1362.56	124.05	5992.6
1362.61	124	5940.55
1362.66	123.95	5958.4
1362.71	123.9	5879.8
1362.76	123.85	5957.4
1362.81	123.8	5978.65
1362.86	123.75	5954.6
1362.91	123.7	5905.75
1362.96	123.65	5965.95
1363.01	123.6	6031
1363.06	123.55	5985.05
1363.11	123.5	5970.3
1363.16	123.45	5984.75
1363.21	123.4	5979.18
1363.26	123.35	6099.42
1363.31	123.3	6061.68
1363.36	123.25	6018.8
1363.41	123.2	5963
1363.46	123.15	6018
1363.51	123.1	5971.63
1363.56	123.05	5976.55
1363.61	123	5936.3
1363.66	122.95	5998.4
1363.71	122.9	6010.38
1363.76	122.85	6015.67
1363.81	122.8	6084.42
1363.86	122.75	6064.45
1363.91	122.7	6028.93
1363.96	122.65	5986.97
1364.01	122.6	6052.6
1364.06	122.55	6061.32
1364.11	122.5	6077
1364.16	122.45	6066.22
1364.21	122.4	6054.9
1364.26	122.35	6110.95
1364.31	122.3	6022.05
1364.36	122.25	6058.3
1364.41	122.2	6061.15
1364.46	122.15	6138.47
1364.51	122.1	6172.82
1364.56	122.05	6145.4
1364.61	122	6118.13
1364.66	121.95	6052.17
1364.71	121.9	6033.32
1364.76	121.85	6136.05
1364.81	121.8	6109.35
1364.86	121.75	6141.82
1364.91	121.7	6119.7
1364.96	121.65	6106.55
1365.01	121.6	6205.05
1365.06	121.55	6272.27
1365.11	121.5	6156.77
1365.16	121.45	6085.03
1365.21	121.4	6121.28
1365.26	121.35	6087
1365.31	121.3	6150.25
1365.36	121.25	6148.27
1365.41	121.2	6156.85
1365.46	121.15	6142.82
1365.51	121.1	6127.37
1365.56	121.05	6167.55
1365.61	121	6192.4
1365.66	120.95	6175.2
1365.71	120.9	6224.45
1365.76	120.85	6215.85
1365.81	120.8	6153.72
1365.86	120.75	6196.1
1365.91	120.7	6187.2
1365.96	120.65	6239.35
1366.01	120.6	6195.82
1366.06	120.55	6174.38
1366.11	120.5	6198.15
1366.16	120.45	6188.88
1366.21	120.4	6186
1366.26	120.35	6219.9
1366.31	120.3	6177.97
1366.36	120.25	6221.4
1366.41	120.2	6216.77
1366.46	120.15	6209.07
1366.51	120.1	6233.15
1366.56	120.05	6249.3
1366.61	120	6324.2
1366.66	119.95	6267.77
1366.71	119.9	6280.95
1366.76	119.85	6270.87
1366.81	119.8	6221.88
1366.86	119.75	6275.97
1366.91	119.7	6202.07
1366.96	119.65	6271.82
1367.01	119.6	6211.02
1367.06	119.55	6255.4
1367.11	119.5	6293.4
1367.16	119.45	6311.88
1367.21	119.4	6268.57
1367.26	119.35	6269.25
1367.31	119.3	6290.75
1367.36	119.25	6275.45
1367.41	119.2	6354.77
1367.46	119.15	6358.75
1367.51	119.1	6351.17
1367.56	119.05	6269.57
1367.61	119	6296.3
1367.66	118.95	6260.82
1367.71	118.9	6292.35
1367.76	118.85	6286.15
1367.81	118.8	6278.17
1367.86	118.75	6341.7
1367.91	118.7	6290.4
1367.96	118.65	6346.48
1368.01	118.6	6285.5
1368.06	118.55	6289.38
1368.11	118.5	6330.07
1368.16	118.45	6327.07
1368.21	118.4	6393.45
1368.26	118.35	6317.1
1368.31	118.3	6367.68
1368.36	118.25	6365.32
1368.41	118.2	6318.7
1368.46	118.15	6366.02
1368.51	118.1	6360.13
1368.56	118.05	6370
1368.61	118	6356.12
1368.66	117.95	6346.9
1368.71	117.9	6340.87
1368.76	117.85	6295.82
1368.81	117.8	6363.98
1368.86	117.75	6383.05
1368.91	117.7	6385.77
1368.96	117.65	6345.92
1369.01	117.6	6424.4
1369.06	117.55	6355.77
1369.11	117.5	6351.7
1369.16	117.45	6390.65
1369.21	117.4	6377.65
1369.26	117.35	6429.02
1369.31	117.3	6407.73
1369.36	117.25	6360.47
1369.41	117.2	6361.5
1369.46	117.15	6305.47
1369.51	117.1	6330.75
1369.56	117.05	6391.97
1369.61	117	6356.95
1369.66	116.95	6342.68
1369.71	116.9	6390
1369.76	116.85	6363.85
1369.81	116.8	6400.5
1369.86	116.75	6399.38
1369.91	116.7	6468.52
1369.96	116.65	6441.45
1370.01	116.6	6427.47
1370.06	116.55	6435.07
1370.11	116.5	6373.85
1370.16	116.45	6399.45
1370.21	116.4	6380.3
1370.26	116.35	6413.4
1370.31	116.3	6465.7
1370.36	116.25	6511.02
1370.41	116.2	6489.2
1370.46	116.15	6505.03
1370.51	116.1	6434.85
1370.56	116.05	6476.63
1370.61	116	6494.57
1370.66	115.95	6521.45
1370.71	115.9	6445.32
1370.76	115.85	6478.62
1370.81	115.8	6560.18
1370.86	115.75	6541.25
1370.91	115.7	6501.45
1370.96	115.65	6570.63
1371.01	115.6	6519.82
1371.06	115.55	6546.72
1371.11	115.5	6590.3
1371.16	115.45	6572.5
1371.21	115.4	6543.07
1371.26	115.35	6604.25
1371.31	115.3	6584.9
1371.36	115.25	6527.3
1371.41	115.2	6579.02
1371.46	115.15	6549.92
1371.51	115.1	6570.7
1371.56	115.05	6540.32
1371.61	115	6606.28
1371.66	114.95	6571.35
1371.71	114.9	6596.35
1371.76	114.85	6580.55
1371.81	114.8	6644.32
1371.86	114.75	6634.3
1371.91	114.7	6586.32
1371.96	114.65	6604.57
1372.01	114.6	6631.72
1372.06	114.55	6683.95
1372.11	114.5	6651.05
1372.16	114.45	6617.95
1372.21	114.4	6600.43
1372.26	114.35	6699.55
1372.31	114.3	6691.92
1372.36	114.25	6680.77
1372.41	114.2	6648.1
1372.46	114.15	6681.05
1372.51	114.1	6599.75
1372.56	114.05	6620.65
1372.61	114	6701.02
1372.66	113.95	6685
1372.71	113.9	6689.65
1372.76	113.85	6659.5
1372.81	113.8	6645.6
1372.86	113.75	6714.2
1372.91	113.7	6793.25
1372.96	113.65	6716.32
1373.01	113.6	6746.57
1373.06	113.55	6790.3
1373.11	113.5	6731.4
1373.16	113.45	6793.67
1373.21	113.4	6775.03
1373.26	113.35	6744.05
1373.31	113.3	6732.68
1373.36	113.25	6707.3
1373.41	113.2	6690.55
1373.46	113.15	6732.68
1373.51	113.1	6746.55
1373.56	113.05	6772.35
1373.61	113	6763.93
1373.66	112.95	6759.8
1373.71	112.9	6814.62
1373.76	112.85	6815.2
1373.81	112.8	6869.97
1373.86	112.75	6845.35
1373.91	112.7	6831.3
1373.96	112.65	6811.82
1374.01	112.6	6826.52
1374.06	112.55	6921.57
1374.11	112.5	6990.97
1374.16	112.45	6840.5
1374.21	112.4	6867.12
1374.26	112.35	6955.57
1374.31	112.3	6974.27
1374.36	112.25	6870.03
1374.41	112.2	6923.42
1374.46	112.15	6903.2
1374.51	112.1	6912
1374.56	112.05	6895.23
1374.61	112	6939.7
1374.66	111.95	6933.35
1374.71	111.9	7008.27
1374.76	111.85	7007.32
1374.81	111.8	6915.3
1374.86	111.75	6980.05
1374.91	111.7	7007.02
1374.96	111.65	6959.67
1375.01	111.6	6995.52
1375.06	111.55	6969.22
1375.11	111.5	6977.42
1375.16	111.45	6973.9
1375.21	111.4	6999.05
1375.26	111.35	6970.82
1375.31	111.3	6973.67
1375.36	111.25	7061.15
1375.41	111.2	7034.5
1375.46	111.15	7038.3
1375.51	111.1	7119.62
1375.56	111.05	7107.47
1375.61	111	7139.05
1375.66	110.95	7217.57
1375.71	110.9	7234.65
1375.76	110.85	7241.4
1375.81	110.8	7234.82
1375.86	110.75	7145.57
1375.91	110.7	7187.02
1375.96	110.65	7146.38
1376.01	110.6	7101
1376.06	110.55	7140.85
1376.11	110.5	7056.4
1376.16	110.45	7005.63
1376.21	110.4	6887.8
1376.26	110.35	6844.07
1376.31	110.3	6749.87
1376.36	110.25	6774.8
1376.41	110.2	6714.47
1376.46	110.15	6676.65
1376.51	110.1	6587.1
1376.56	110.05	6693.05
1376.61	110	6664.87
1376.66	109.95	6613.93
1376.71	109.9	6576.65
1376.76	109.85	6530.87
1376.81	109.8	6659.82
1376.86	109.75	6765.92
1376.91	109.7	6741.5
1376.96	109.65	6769.85
1377.01	109.6	6840.38
1377.06	109.55	7012.9
1377.11	109.5	7063.4
1377.16	109.45	7226.82
1377.21	109.4	7326.52
1377.26	109.35	7526.07
1377.31	109.3	7764.75
1377.36	109.25	7981.88
1377.41	109.2	8277.37
1377.46	109.15	8556.45
1377.51	109.1	8713.3
1377.56	109.05	8848.83
1377.61	109	9064.82
1377.66	108.95	9217.8
1377.71	108.9	9340.32
1377.76	108.85	9316.73
1377.81	108.8	9267.47
1377.86	108.75	9153.92
1377.91	108.7	9003.07
1377.96	108.65	8687.85
1378.01	108.6	8535.95
1378.06	108.55	8300.23
1378.11	108.5	8075.45
1378.16	108.45	7820.92
1378.21	108.4	7681.4
1378.26	108.35	7484.35
1378.31	108.3	7289.5
1378.36	108.25	7112.1
1378.41	108.2	7035.32
1378.46	108.15	6957.77
1378.51	108.1	6759.47
1378.56	108.05	6691.15
1378.61	108	6592.2
1378.66	107.95	6616.95
1378.71	107.9	6503.1
1378.76	107.85	6486.52
1378.81	107.8	6452.9
1378.86	107.75	6322.45
1378.91	107.7	6349.95
1378.96	107.65	6320.35
1379.01	107.6	6314.07
1379.06	107.55	6196.5
1379.11	107.5	6329.42
1379.16	107.45	6220.15
1379.21	107.4	6224
1379.26	107.35	6282.73
1379.31	107.3	6285.72
1379.36	107.25	6334.25
1379.41	107.2	6304.82
1379.46	107.15	6361.97
1379.51	107.1	6366.3
1379.56	107.05	6336.05
1379.61	107	6297.7
1379.66	106.95	6288.78
1379.71	106.9	6201.8
1379.76	106.85	6094.45
1379.81	106.8	5945.1
1379.86	106.75	5894.7
1379.91	106.7	5849.25
1379.96	106.65	5763.82
1380.01	106.6	5587.2
1380.06	106.55	5541.32
1380.11	106.5	5539.27
1380.16	106.45	5441.43
1380.21	106.4	5473.82
1380.26	106.35	5380.72
1380.31	106.3	5436.22
1380.36	106.25	5452.55
1380.41	106.2	5433.88
1380.46	106.15	5453.2
1380.51	106.1	5505.35
1380.56	106.05	5493.27
1380.61	106	5545.5
1380.66	105.95	5677.07
1380.71	105.9	5765.6
1380.76	105.85	5849.72
1380.81	105.8	6001.12
1380.86	105.75	6190.9
1380.91	105.7	6388.78
1380.96	105.65	6648.88
1381.01	105.6	6934.8
1381.06	105.55	7265.07
1381.11	105.5	7534.27
1381.16	105.45	7915.3
1381.21	105.4	8198.22
1381.26	105.35	8479.95
1381.31	105.3	8714.92
1381.36	105.25	8825.88
1381.41	105.2	8924.85
1381.46	105.15	8914.23
1381.51	105.1	8827.92
1381.56	105.05	8567.32
1381.61	105	8351.77
1381.66	104.95	7992.17
1381.71	104.9	7719.57
1381.76	104.85	7405.65
1381.81	104.8	7108.52
1381.86	104.75	6837.68
1381.91	104.7	6599.52
1381.96	104.65	6363.3
1382.01	104.6	6194.8
1382.06	104.55	5923.72
1382.11	104.5	5679.15
1382.16	104.45	5614.22
1382.21	104.4	5563.42
1382.26	104.35	5492
1382.31	104.3	5336.5
1382.36	104.25	5256.43
1382.41	104.2	5230.18
1382.46	104.15	5111.68
1382.51	104.1	5083.5
1382.56	104.05	5068.35
1382.61	104	4981.57
1382.66	103.95	4944.77
1382.71	103.9	4973.88
1382.76	103.85	4975.72
1382.81	103.8	4958.72
1382.86	103.75	4926.85
1382.91	103.7	4867.97
1382.96	103.65	4832.67
1383.01	103.6	4830.02
1383.06	103.55	4798.35
1383.11	103.5	4838.25
1383.16	103.45	4812.7
1383.21	103.4	4816.97
1383.26	103.35	4802.9
1383.31	103.3	4741.57
1383.36	103.25	4839.42
1383.41	103.2	4762.7
1383.46	103.15	4761.7
1383.51	103.1	4811.8
1383.56	103.05	4799.25
1383.61	103	4777.72
1383.66	102.95	4779.22
1383.71	102.9	4780.9
1383.76	102.85	4781.42
1383.81	102.8	4800.38
1383.86	102.75	4866.92
1383.91	102.7	4820.63
1383.96	102.65	4758.88
1384.01	102.6	4764.65
1384.06	102.55	4824
1384.11	102.5	4739.93
1384.16	102.45	4777.45
1384.21	102.4	4769.25
1384.26	102.35	4719.95
1384.31	102.3	4799.27
1384.36	102.25	4799.27
1384.41	102.2	4734.38
1384.46	102.15	4718.9
1384.51	102.1	4768.07
1384.56	102.05	4790
1384.61	102	4731.82
1384.66	101.95	4704.07
1384.71	101.9	4775.13
1384.76	101.85	4863.82
1384.81	101.8	4734.32
1384.86	101.75	4756.72
1384.91	101.7	4790.27
1384.96	101.65	4803.65
1385.01	101.6	4765.6
1385.06	101.55	4712.97
1385.11	101.5	4776.4
1385.16	101.45	4721.92
1385.21	101.4	4797.15
1385.26	101.35	4834.18
1385.31	101.3	4829.65
1385.36	101.25	4795.05
1385.41	101.2	4808.1
1385.46	101.15	4762.47
1385.51	101.1	4747.57
1385.56	101.05	4753.4
1385.61	101	4760.15
1385.66	100.95	4795.63
1385.71	100.9	4824.5
1385.76	100.85	4733.63
1385.81	100.8	4780.3
1385.86	100.75	4796.6
1385.91	100.7	4760.22
1385.96	100.65	4756.8
1386.01	100.6	4790.43
1386.06	100.55	4764.5
1386.11	100.5	4773.13
1386.16	100.45	4809.82
1386.21	100.4	4831.1
1386.26	100.35	4876.75
1386.31	100.3	4818.8
1386.36	100.25	4745
1386.41	100.2	4798.8
1386.46	100.15	4898.88
1386.51	100.1	4787.6
1386.56	100.05	4787.1
1386.61	100	4805.47
1386.66	99.95	4805.25
1386.71	99.9	4783.35
1386.76	99.85	4787.25
1386.81	99.8	4843.77
1386.86	99.75	4802.9
1386.91	99.7	4835.15
1386.96	99.65	4810.7
1387.01	99.6	4785.9
1387.06	99.55	4792.32
1387.11	99.5	4799.52
1387.16	99.45	4800.38
1387.21	99.4	4854.5
1387.26	99.35	4855
1387.31	99.3	4788.75
1387.36	99.25	4847.35
1387.41	99.2	4844.15
1387.46	99.15	4810.65
1387.51	99.1	4776.52
1387.56	99.05	4721.75
1387.61	99	4771.1
1387.66	98.95	4793.4
1387.71	98.9	4835.13
1387.76	98.85	4832.25
1387.81	98.8	4859.88
1387.86	98.75	4839.27
1387.91	98.7	4799.22
1387.96	98.65	4783.1
1388.01	98.6	4783.1
1388.06	98.55	4787.65
1388.11	98.5	4754.42
1388.16	98.45	4825.57
1388.21	98.4	4808.15
1388.26	98.35	4835.15
1388.31	98.3	4776.65
1388.36	98.25	4797.5
1388.41	98.2	4801.57
1388.46	98.15	4757.47
1388.51	98.1	4793.55
1388.56	98.05	4863.85
1388.61	98	4748.88
1388.66	97.95	4836.27
1388.71	97.9	4805.72
1388.76	97.85	4776.18
1388.81	97.8	4778.65
1388.86	97.75	4786.27
1388.91	97.7	4759.3
1388.96	97.65	4714.67
1389.01	97.6	4697.02
1389.06	97.55	4782.77
1389.11	97.5	4807.65
1389.16	97.45	4720.27
1389.21	97.4	4759.22
1389.26	97.35	4681.42
1389.31	97.3	4672.32
1389.36	97.25	4683.82
1389.41	97.2	4710.25
1389.46	97.15	4696.88
1389.51	97.1	4713.7
1389.56	97.05	4670.52
1389.61	97	4647.57
1389.66	96.95	4651.1
1389.71	96.9	4614.02
1389.76	96.85	4640.55
1389.81	96.8	4595.82
1389.86	96.75	4608.82
1389.91	96.7	4582.82
1389.96	96.65	4614.97
1390.01	96.6	4586.77
1390.06	96.55	4584.57
1390.11	96.5	4602.07
1390.16	96.45	4561.8
1390.21	96.4	4529.02
1390.26	96.35	4494.4
1390.31	96.3	4566.8
1390.36	96.25	4546.9
1390.41	96.2	4558.42
1390.46	96.15	4523.5
1390.51	96.1	4494.15
1390.56	96.05	4455.5
1390.61	96	4449.22
1390.66	95.95	4481.82
1390.71	95.9	4463.45
1390.76	95.85	4540.43
1390.81	95.8	4484.47
1390.86	95.75	4491.05
1390.91	95.7	4538.42
1390.96	95.65	4482.35
1391.01	95.6	4490.05
1391.06	95.55	4545.22
1391.11	95.5	4474.73
1391.16	95.45	4524.13
1391.21	95.4	4558.27
1391.26	95.35	4556.05
1391.31	95.3	4490.87
1391.36	95.25	4575.1
1391.41	95.2	4571.63
1391.46	95.15	4544.7
1391.51	95.1	4544
1391.56	95.05	4605.92
1391.61	95	4583.57
1391.66	94.95	4538.25
1391.71	94.9	4598.13
1391.76	94.85	4560.15
1391.81	94.8	4553.65
1391.86	94.75	4539.73
1391.91	94.7	4537.72
1391.96	94.65	4642.93
1392.01	94.6	4609.95
1392.06	94.55	4606.9
1392.11	94.5	4585.87
1392.16	94.45	4630
1392.21	94.4	4593.6
1392.26	94.35	4654.67
1392.31	94.3	4570.67
1392.36	94.25	4614.45
1392.41	94.2	4574.88
1392.46	94.15	4604.27
1392.51	94.1	4601.02
1392.56	94.05	4658.4
1392.61	94	4669.95
1392.66	93.95	4650.72
1392.71	93.9	4550.95
1392.76	93.85	4586.3
1392.81	93.8	4683.55
1392.86	93.75	4645.85
1392.91	93.7	4605.55
1392.96	93.65	4618.82
1393.01	93.6	4572.12
1393.06	93.55	4591.25
1393.11	93.5	4616.57
1393.16	93.45	4572.77
1393.21	93.4	4547.57
1393.26	93.35	4577.9
1393.31	93.3	4551.38
1393.36	93.25	4557.35
1393.41	93.2	4601.92
1393.46	93.15	4565.65
1393.51	93.1	4497.07
1393.56	93.05	4559.9
1393.61	93	4499.35
1393.66	92.95	4400.02
1393.71	92.9	4515.05
1393.76	92.85	4505
1393.81	92.8	4504.3
1393.86	92.75	4459.47
1393.91	92.7	4376.22
1393.96	92.65	4429.45
1394.01	92.6	4447.88
1394.06	92.55	4417.65
1394.11	92.5	4371.42
1394.16	92.45	4471.4
1394.21	92.4	4394.52
1394.26	92.35	4385.67
1394.31	92.3	4384.18
1394.36	92.25	4350.07
1394.41	92.2	4392.75
1394.46	92.15	4389.55
1394.51	92.1	4439.42
1394.56	92.05	4457.43
1394.61	92	4458.82
1394.66	91.95	4440
1394.71	91.9	4424.97
1394.76	91.85	4408.92
1394.81	91.8	4459.4
1394.86	91.75	4441.18
1394.91	91.7	4509.77
1394.96	91.65	4497.25
1395.01	91.6	4535.63
1395.06	91.55	4528.22
1395.11	91.5	4547.72
1395.16	91.45	4517.43
1395.21	91.4	4615.07
1395.26	91.35	4590.02
1395.31	91.3	4658.57
1395.36	91.25	4727.38
1395.41	91.2	4734.6
1395.46	91.15	4702.65
1395.51	91.1	4672.95
1395.56	91.05	4711.13
1395.61	91	4710.15
1395.66	90.95	4715.85
1395.71	90.9	4804.1
1395.76	90.85	4814.42
1395.81	90.8	4861.95
1395.86	90.75	4913.15
1395.91	90.7	4982.07
1395.96	90.65	4908.5
1396.01	90.6	4903.52
1396.06	90.55	4962.75
1396.11	90.5	4998.8
1396.16	90.45	4976.3
1396.21	90.4	4954.82
1396.26	90.35	4998.52
1396.31	90.3	5021.27
1396.36	90.25	4952.52
1396.41	90.2	5022.07
1396.46	90.15	5045.27
1396.51	90.1	5005.32
1396.56	90.05	5014.6
1396.61	90	5111.63
1396.66	89.95	5032.9
1396.71	89.9	5014.3
1396.76	89.85	4931.02
1396.81	89.8	4984.32
1396.86	89.75	5050.47
1396.91	89.7	5033.97
1396.96	89.65	5069.2
1397.01	89.6	5106.9
1397.06	89.55	5159.7
1397.11	89.5	5153.93
1397.16	89.45	5239.1
1397.21	89.4	5293.82
1397.26	89.35	5375.4
1397.31	89.3	5493.17
1397.36	89.25	5576.77
1397.41	89.2	5704.27
1397.46	89.15	5794.97
1397.51	89.1	6009.07
1397.56	89.05	6167.22
1397.61	89	6224.18
1397.66	88.95	6446.68
1397.71	88.9	6745.45
1397.76	88.85	6905.07
1397.81	88.8	7235.6
1397.86	88.75	7570.65
1397.91	88.7	7840.45
1397.96	88.65	8342.85
1398.01	88.6	8880.97
1398.06	88.55	9606.92
1398.11	88.5	10365.9
1398.16	88.45	11164.5
1398.21	88.4	12316
1398.26	88.35	13698.3
1398.31	88.3	15286.2
1398.36	88.25	17302.9
1398.41	88.2	19528.5
1398.46	88.15	22348.5
1398.51	88.1	25549.7
1398.56	88.05	29086.5
1398.61	88	32914
1398.66	87.95	36751.5
1398.71	87.9	40706.5
1398.76	87.85	44225
1398.81	87.8	47525
1398.86	87.75	50076.5
1398.91	87.7	51394.5
1398.96	87.65	51755.2
1399.01	87.6	51194
1399.06	87.55	49765
1399.11	87.5	47237.7
1399.16	87.45	44061.5
1399.21	87.4	40522
1399.26	87.35	36755
1399.31	87.3	33003.5
1399.36	87.25	29181.8
1399.41	87.2	25450.7
1399.46	87.15	22309.5
1399.51	87.1	19531.5
1399.56	87.05	17039.5
1399.61	87	14978.6
1399.66	86.95	13147
1399.71	86.9	11634.9
1399.76	86.85	10473.8
1399.81	86.8	9443.15
1399.86	86.75	8620.3
1399.91	86.7	7993.82
1399.96	86.65	7349.42
1400.01	86.6	6943.88
1400.06	86.55	6590.15
1400.11	86.5	6236.8
1400.16	86.45	5928.27
1400.21	86.4	5674.2
1400.26	86.35	5531.7
1400.31	86.3	5309.67
1400.36	86.25	5204.47
1400.41	86.2	5157.25
1400.46	86.15	5021.4
1400.51	86.1	4866.35
1400.56	86.05	4869.38
1400.61	86	4808.1
1400.66	85.95	4737.43
1400.71	85.9	4773.77
1400.76	85.85	4743.57
1400.81	85.8	4748.52
1400.86	85.75	4787.5
1400.91	85.7	4777.1
1400.96	85.65	4885.5
1401.01	85.6	4931.57
1401.06	85.55	4942.02
1401.11	85.5	5123.45
1401.16	85.45	5252.9
1401.21	85.4	5411.48
1401.26	85.35	5660.4
1401.31	85.3	5793.45
1401.36	85.25	6026
1401.41	85.2	6266.52
1401.46	85.15	6566.05
1401.51	85.1	6975.15
1401.56	85.05	7363.35
1401.61	85	7840.77
1401.66	84.95	8360.2
1401.71	84.9	9099.35
1401.76	84.85	10062.9
1401.81	84.8	11029
1401.86	84.75	12293.1
1401.91	84.7	13855
1401.96	84.65	15710.5
1402.01	84.6	17998
1402.06	84.55	20814
1402.11	84.5	23879.9
1402.16	84.45	27804.7
1402.21	84.4	32216.8
1402.26	84.35	36965.7
1402.31	84.3	41812.7
1402.36	84.25	47380.5
1402.41	84.2	52279
1402.46	84.15	56901.3
1402.51	84.1	60548.5
1402.56	84.05	63387.7
1402.61	84	64543
1402.66	83.95	64629.3
1402.71	83.9	63275.7
1402.76	83.85	60444
1402.81	83.8	56835.7
1402.86	83.75	52362.3
1402.91	83.7	47494.8
1402.96	83.65	42338.5
1403.01	83.6	36863.5
1403.06	83.55	32140.7
1403.11	83.5	27867.8
1403.16	83.45	23705.5
1403.21	83.4	20320.9
1403.26	83.35	17291.3
1403.31	83.3	14764.7
1403.36	83.25	12607
1403.41	83.2	10735.5
1403.46	83.15	9329.7
1403.51	83.1	8078.67
1403.56	83.05	7076.4
1403.61	83	6254
1403.66	82.95	5679.77
1403.71	82.9	5130.03
1403.76	82.85	4650.13
1403.81	82.8	4308.9
1403.86	82.75	3963.25
1403.91	82.7	3648.15
1403.96	82.65	3468.72
1404.01	82.6	3222.9
1404.06	82.55	3139.97
1404.11	82.5	2968.72
1404.16	82.45	2805.25
1404.21	82.4	2775.92
1404.26	82.35	2649.05
1404.31	82.3	2506.6
1404.36	82.25	2489.26
1404.41	82.2	2384.84
1404.46	82.15	2302.51
1404.51	82.1	2234.76
1404.56	82.05	2226.16
1404.61	82	2154.57
1404.66	81.95	2106.7
1404.71	81.9	2059.63
1404.76	81.85	2018.04
1404.81	81.8	1963.57
1404.86	81.75	1908.75
1404.91	81.7	1846.18
1404.96	81.65	1877.1
1405.01	81.6	1812.35
1405.06	81.55	1802.52
1405.11	81.5	1739.85
1405.16	81.45	1714.81
1405.21	81.4	1751.22
1405.26	81.35	1705.63
1405.31	81.3	1686.89
1405.36	81.25	1670.96
1405.41	81.2	1650.65
1405.46	81.15	1621
1405.51	81.1	1605.51
1405.56	81.05	1566.76
1405.61	81	1590.3
1405.66	80.95	1577.74
1405.71	80.9	1570.23
1405.76	80.85	1501.15
1405.81	80.8	1521.88
1405.86	80.75	1519.84
1405.91	80.7	1462.53
1405.96	80.65	1477.88
1406.01	80.6	1487.03
1406.06	80.55	1470.68
1406.11	80.5	1449.33
1406.16	80.45	1464.09
1406.21	80.4	1426.57
1406.26	80.35	1430.35
1406.31	80.3	1440.68
1406.36	80.25	1463.38
1406.41	80.2	1388.32
1406.46	80.15	1388.47
1406.51	80.1	1402.07
1406.56	80.05	1375.57
1406.61	80	1360.4
1406.66	79.95	1378.96
1406.71	79.9	1347.44
1406.76	79.85	1370.56
1406.81	79.8	1387.57
1406.86	79.75	1378.4
1406.91	79.7	1380.96
1406.96	79.65	1340.64
1407.01	79.6	1354.07
1407.06	79.55	1337.43
1407.11	79.5	1330.58
1407.16	79.45	1323.86
1407.21	79.4	1300.32
1407.26	79.35	1302.52
1407.31	79.3	1339.18
1407.36	79.25	1305.22
1407.41	79.2	1320.09
1407.46	79.15	1327.54
1407.51	79.1	1334.82
1407.56	79.05	1296.76
1407.61	79	1322.34
1407.66	78.95	1309.29
1407.71	78.9	1328.23
1407.76	78.85	1330.32
1407.81	78.8	1298.65
1407.86	78.75	1306.12
1407.91	78.7	1266.03
1407.96	78.65	1282.57
1408.01	78.6	1290.36
1408.06	78.55	1297.15
1408.11	78.5	1277.64
1408.16	78.45	1288.48
1408.21	78.4	1308.46
1408.26	78.35	1273.53
1408.31	78.3	1268.8
1408.36	78.25	1292.02
1408.41	78.2	1281.25
1408.46	78.15	1263.05
1408.51	78.1	1283.06
1408.56	78.05	1274.38
1408.61	78	1263.36
1408.66	77.95	1257.55
1408.71	77.9	1260.34
1408.76	77.85	1242.9
1408.81	77.8	1275.11
1408.86	77.75	1277.05
1408.91	77.7	1279.18
1408.96	77.65	1290.45
1409.01	77.6	1281.19
1409.06	77.55	1253.7
1409.11	77.5	1276.68
1409.16	77.45	1257.67
1409.21	77.4	1226.35
1409.26	77.35	1295.87
1409.31	77.3	1246.61
1409.36	77.25	1257.26
1409.41	77.2	1257.04
1409.46	77.15	1265.04
1409.51	77.1	1257.71
1409.56	77.05	1273.69
1409.61	77	1267.45
1409.66	76.95	1264.27
1409.71	76.9	1249.03
1409.76	76.85	1265
1409.81	76.8	1270.19
1409.86	76.75	1248.9
1409.91	76.7	1251
1409.96	76.65	1275.52
1410.01	76.6	1283.73
1410.06	76.55	1244.35
1410.11	76.5	1263.75
1410.16	76.45	1305.69
1410.21	76.4	1238.99
1410.26	76.35	1220.22
1410.31	76.3	1262.99
1410.36	76.25	1262.99
1410.41	76.2	1245.53
1410.46	76.15	1273.78
1410.51	76.1	1307.22
1410.56	76.05	1284.16
1410.61	76	1287.19
1410.66	75.95	1297.86
1410.71	75.9	1292.64
1410.76	75.85	1282.35
1410.81	75.8	1300.78
1410.86	75.75	1292.02
1410.91	75.7	1279.97
1410.96	75.65	1329.27
1411.01	75.6	1344.43
1411.06	75.55	1311.69
1411.11	75.5	1288.21
1411.16	75.45	1321.4
1411.21	75.4	1313.82
1411.26	75.35	1322.89
1411.31	75.3	1322.18
1411.36	75.25	1343.45
1411.41	75.2	1326.9
1411.46	75.15	1314.49
1411.51	75.1	1344.26
1411.56	75.05	1324.16
1411.61	75	1322.96