C:\Users\Mark\ownCloud\Muelheim Group\Projects\Gas phase background\EX321_CEC356_Au Ag and Cu in O2.vms
Pr:Au4f
	Characteristic Energy eV	1486.61	Acquisition Time s	1
KE_Pr:Au4f	BE_Pr:Au4f	CPS_Pr:Au4f
1311.61	175	1666.84
1311.71	174.9	1684.11
1311.81	174.8	1680.05
1311.91	174.7	1696.75
1312.01	174.6	1678.54
1312.11	174.5	1671.09
1312.21	174.4	1697.3
1312.31	174.3	1682.69
1312.41	174.2	1705.58
1312.51	174.1	1667.02
1312.61	174	1697.43
1312.71	173.9	1682.36
1312.81	173.8	1690.14
1312.91	173.7	1669.79
1313.01	173.6	1678.39
1313.11	173.5	1686.65
1313.21	173.4	1693.93
1313.31	173.3	1696.99
1313.41	173.2	1687.07
1313.51	173.1	1670.93
1313.61	173	1671.49
1313.71	172.9	1698.4
1313.81	172.8	1697.62
1313.91	172.7	1721.67
1314.01	172.6	1678.62
1314.11	172.5	1665.4
1314.21	172.4	1711.57
1314.31	172.3	1699.73
1314.41	172.2	1691.91
1314.51	172.1	1692.3
1314.61	172	1686.11
1314.71	171.9	1694.07
1314.81	171.8	1682.92
1314.91	171.7	1695.79
1315.01	171.6	1704.18
1315.11	171.5	1707.22
1315.21	171.4	1692.68
1315.31	171.3	1691.55
1315.41	171.2	1696.33
1315.51	171.1	1676.1
1315.61	171	1689.5
1315.71	170.9	1686.47
1315.81	170.8	1689.67
1315.91	170.7	1718.61
1316.01	170.6	1690.85
1316.11	170.5	1699.06
1316.21	170.4	1689.82
1316.31	170.3	1691.44
1316.41	170.2	1732.33
1316.51	170.1	1695.25
1316.61	170	1678.23
1316.71	169.9	1704.98
1316.81	169.8	1711.46
1316.91	169.7	1703.01
1317.01	169.6	1695.17
1317.11	169.5	1707.06
1317.21	169.4	1696.4
1317.31	169.3	1700.1
1317.41	169.2	1716.65
1317.51	169.1	1724
1317.61	169	1713.46
1317.71	168.9	1698.55
1317.81	168.8	1690.72
1317.91	168.7	1689.47
1318.01	168.6	1709.13
1318.11	168.5	1701.79
1318.21	168.4	1715.51
1318.31	168.3	1693.23
1318.41	168.2	1708.46
1318.51	168.1	1716.05
1318.61	168	1695.86
1318.71	167.9	1729.77
1318.81	167.8	1719.88
1318.91	167.7	1704.72
1319.01	167.6	1716.41
1319.11	167.5	1722.77
1319.21	167.4	1736.81
1319.31	167.3	1692.35
1319.41	167.2	1676.16
1319.51	167.1	1710.95
1319.61	167	1729.78
1319.71	166.9	1742.11
1319.81	166.8	1735.18
1319.91	166.7	1725.73
1320.01	166.6	1729.77
1320.11	166.5	1716.18
1320.21	166.4	1698.91
1320.31	166.3	1727.79
1320.41	166.2	1724.33
1320.51	166.1	1730.48
1320.61	166	1703.37
1320.71	165.9	1706.1
1320.81	165.8	1725.97
1320.91	165.7	1741.35
1321.01	165.6	1717.59
1321.11	165.5	1744.12
1321.21	165.4	1732.25
1321.31	165.3	1691.04
1321.41	165.2	1722.45
1321.51	165.1	1723.82
1321.61	165	1696.48
1321.71	164.9	1708.37
1321.81	164.8	1714.43
1321.91	164.7	1727.92
1322.01	164.6	1714.35
1322.11	164.5	1752.85
1322.21	164.4	1735.81
1322.31	164.3	1745.27
1322.41	164.2	1750.66
1322.51	164.1	1754.72
1322.61	164	1727.56
1322.71	163.9	1730.8
1322.81	163.8	1722.83
1322.91	163.7	1724.56
1323.01	163.6	1738.85
1323.11	163.5	1747.53
1323.21	163.4	1743.39
1323.31	163.3	1742.97
1323.41	163.2	1751.03
1323.51	163.1	1753.1
1323.61	163	1746.4
1323.71	162.9	1732.42
1323.81	162.8	1754.18
1323.91	162.7	1744.42
1324.01	162.6	1733.9
1324.11	162.5	1735.75
1324.21	162.4	1733.58
1324.31	162.3	1701.81
1324.41	162.2	1706.47
1324.51	162.1	1728.03
1324.61	162	1751.02
1324.71	161.9	1744.58
1324.81	161.8	1753.78
1324.91	161.7	1731.42
1325.01	161.6	1740.95
1325.11	161.5	1738.07
1325.21	161.4	1755.02
1325.31	161.3	1756.57
1325.41	161.2	1743.81
1325.51	161.1	1736.33
1325.61	161	1712.99
1325.71	160.9	1735.61
1325.81	160.8	1730.56
1325.91	160.7	1734.75
1326.01	160.6	1763.52
1326.11	160.5	1736.92
1326.21	160.4	1740.57
1326.31	160.3	1762.56
1326.41	160.2	1785.83
1326.51	160.1	1735.75
1326.61	160	1753.83
1326.71	159.9	1735.47
1326.81	159.8	1739.1
1326.91	159.7	1735.57
1327.01	159.6	1757.17
1327.11	159.5	1778.82
1327.21	159.4	1780.78
1327.31	159.3	1767.39
1327.41	159.2	1741.67
1327.51	159.1	1768.14
1327.61	159	1776.39
1327.71	158.9	1765.23
1327.81	158.8	1746.3
1327.91	158.7	1752.92
1328.01	158.6	1771.99
1328.11	158.5	1766.68
1328.21	158.4	1757.9
1328.31	158.3	1762.03
1328.41	158.2	1770.62
1328.51	158.1	1768.84
1328.61	158	1757.19
1328.71	157.9	1767.09
1328.81	157.8	1781.89
1328.91	157.7	1784.93
1329.01	157.6	1756.42
1329.11	157.5	1774.47
1329.21	157.4	1763.34
1329.31	157.3	1762.65
1329.41	157.2	1781.23
1329.51	157.1	1780.03
1329.61	157	1779.97
1329.71	156.9	1768.25
1329.81	156.8	1763.54
1329.91	156.7	1767.85
1330.01	156.6	1760
1330.11	156.5	1762.28
1330.21	156.4	1772.27
1330.31	156.3	1788.73
1330.41	156.2	1782.59
1330.51	156.1	1781.45
1330.61	156	1771.49
1330.71	155.9	1768.23
1330.81	155.8	1795.96
1330.91	155.7	1793.11
1331.01	155.6	1785.62
1331.11	155.5	1780.6
1331.21	155.4	1802.66
1331.31	155.3	1771.93
1331.41	155.2	1781.53
1331.51	155.1	1792.07
1331.61	155	1771.97
1331.71	154.9	1781.75
1331.81	154.8	1814.66
1331.91	154.7	1791.35
1332.01	154.6	1794.71
1332.11	154.5	1779.3
1332.21	154.4	1773.73
1332.31	154.3	1821.38
1332.41	154.2	1791.35
1332.51	154.1	1798.88
1332.61	154	1774.75
1332.71	153.9	1785.71
1332.81	153.8	1804.12
1332.91	153.7	1805.05
1333.01	153.6	1764.58
1333.11	153.5	1782.88
1333.21	153.4	1818.65
1333.31	153.3	1793.96
1333.41	153.2	1797.17
1333.51	153.1	1823.43
1333.61	153	1801.27
1333.71	152.9	1815.22
1333.81	152.8	1799.49
1333.91	152.7	1812.78
1334.01	152.6	1795.78
1334.11	152.5	1804.03
1334.21	152.4	1815.31
1334.31	152.3	1839.12
1334.41	152.2	1796.82
1334.51	152.1	1813.77
1334.61	152	1774.76
1334.71	151.9	1793.94
1334.81	151.8	1801.82
1334.91	151.7	1807.32
1335.01	151.6	1799.79
1335.11	151.5	1802.1
1335.21	151.4	1792.56
1335.31	151.3	1794.85
1335.41	151.2	1823.05
1335.51	151.1	1811.29
1335.61	151	1792.15
1335.71	150.9	1812.2
1335.81	150.8	1827.53
1335.91	150.7	1818.55
1336.01	150.6	1812.38
1336.11	150.5	1805.21
1336.21	150.4	1807.92
1336.31	150.3	1815.41
1336.41	150.2	1810.69
1336.51	150.1	1808.47
1336.61	150	1817.16
1336.71	149.9	1811.72
1336.81	149.8	1811.17
1336.91	149.7	1844.33
1337.01	149.6	1807.38
1337.11	149.5	1792.26
1337.21	149.4	1818.36
1337.31	149.3	1803.01
1337.41	149.2	1826.57
1337.51	149.1	1839.43
1337.61	149	1824.7
1337.71	148.9	1821.07
1337.81	148.8	1844.77
1337.91	148.7	1840.43
1338.01	148.6	1818.82
1338.11	148.5	1814.27
1338.21	148.4	1833.15
1338.31	148.3	1855.66
1338.41	148.2	1844.7
1338.51	148.1	1823.01
1338.61	148	1812.91
1338.71	147.9	1838.5
1338.81	147.8	1832.64
1338.91	147.7	1828.82
1339.01	147.6	1816
1339.11	147.5	1827.78
1339.21	147.4	1832.91
1339.31	147.3	1833.94
1339.41	147.2	1809.38
1339.51	147.1	1812.03
1339.61	147	1843.5
1339.71	146.9	1854.43
1339.81	146.8	1829.75
1339.91	146.7	1836.82
1340.01	146.6	1821.57
1340.11	146.5	1848.6
1340.21	146.4	1816.51
1340.31	146.3	1820.5
1340.41	146.2	1821.77
1340.51	146.1	1876.08
1340.61	146	1816.18
1340.71	145.9	1838.83
1340.81	145.8	1843.01
1340.91	145.7	1824.85
1341.01	145.6	1846.14
1341.11	145.5	1821.9
1341.21	145.4	1789.62
1341.31	145.3	1819.16
1341.41	145.2	1847.92
1341.51	145.1	1852.5
1341.61	145	1827.99
1341.71	144.9	1841.61
1341.81	144.8	1841.57
1341.91	144.7	1837.97
1342.01	144.6	1855.17
1342.11	144.5	1875.12
1342.21	144.4	1825.57
1342.31	144.3	1830.29
1342.41	144.2	1837.28
1342.51	144.1	1846.56
1342.61	144	1846.08
1342.71	143.9	1825
1342.81	143.8	1837.52
1342.91	143.7	1829.63
1343.01	143.6	1822.84
1343.11	143.5	1849.76
1343.21	143.4	1842.73
1343.31	143.3	1828.75
1343.41	143.2	1849.19
1343.51	143.1	1831.08
1343.61	143	1854.24
1343.71	142.9	1851.26
1343.81	142.8	1865.01
1343.91	142.7	1841.21
1344.01	142.6	1831.34
1344.11	142.5	1857.21
1344.21	142.4	1844.51
1344.31	142.3	1835.41
1344.41	142.2	1842.93
1344.51	142.1	1858.73
1344.61	142	1843.27
1344.71	141.9	1839.52
1344.81	141.8	1840.78
1344.91	141.7	1880.09
1345.01	141.6	1893.85
1345.11	141.5	1861.55
1345.21	141.4	1819.54
1345.31	141.3	1819.3
1345.41	141.2	1846.08
1345.51	141.1	1828.03
1345.61	141	1851.33
1345.71	140.9	1832.01
1345.81	140.8	1836.96
1345.91	140.7	1833.21
1346.01	140.6	1851.5
1346.11	140.5	1850.39
1346.21	140.4	1860.64
1346.31	140.3	1855.35
1346.41	140.2	1826.07
1346.51	140.1	1831.65
1346.61	140	1857.82
1346.71	139.9	1857.67
1346.81	139.8	1866.47
1346.91	139.7	1860.48
1347.01	139.6	1844.46
1347.11	139.5	1843.15
1347.21	139.4	1837.3
1347.31	139.3	1833.26
1347.41	139.2	1866.71
1347.51	139.1	1856.08
1347.61	139	1850.23
1347.71	138.9	1847.8
1347.81	138.8	1867.85
1347.91	138.7	1873.96
1348.01	138.6	1891.29
1348.11	138.5	1863.03
1348.21	138.4	1873.73
1348.31	138.3	1864.77
1348.41	138.2	1876.64
1348.51	138.1	1900.66
1348.61	138	1870.57
1348.71	137.9	1865.35
1348.81	137.8	1870.21
1348.91	137.7	1878.34
1349.01	137.6	1862.73
1349.11	137.5	1844.3
1349.21	137.4	1874.67
1349.31	137.3	1873.13
1349.41	137.2	1905.6
1349.51	137.1	1899.53
1349.61	137	1882.8
1349.71	136.9	1853.34
1349.81	136.8	1867.64
1349.91	136.7	1873.43
1350.01	136.6	1864.8
1350.11	136.5	1860.73
1350.21	136.4	1900.34
1350.31	136.3	1910.84
1350.41	136.2	1884.92
1350.51	136.1	1851.9
1350.61	136	1885.11
1350.71	135.9	1882.66
1350.81	135.8	1875
1350.91	135.7	1893.94
1351.01	135.6	1874.47
1351.11	135.5	1901.46
1351.21	135.4	1893.09
1351.31	135.3	1903.83
1351.41	135.2	1920.17
1351.51	135.1	1883.19
1351.61	135	1899.19
1351.71	134.9	1893.53
1351.81	134.8	1870.83
1351.91	134.7	1872.16
1352.01	134.6	1880.66
1352.11	134.5	1905.19
1352.21	134.4	1914.62
1352.31	134.3	1894.17
1352.41	134.2	1894.65
1352.51	134.1	1936.71
1352.61	134	1909.13
1352.71	133.9	1891.52
1352.81	133.8	1914.09
1352.91	133.7	1908.4
1353.01	133.6	1895.97
1353.11	133.5	1886.81
1353.21	133.4	1905.28
1353.31	133.3	1892.13
1353.41	133.2	1906.74
1353.51	133.1	1891.56
1353.61	133	1901.92
1353.71	132.9	1904.15
1353.81	132.8	1903.46
1353.91	132.7	1893.31
1354.01	132.6	1888.34
1354.11	132.5	1906.68
1354.21	132.4	1909.73
1354.31	132.3	1908.87
1354.41	132.2	1916.38
1354.51	132.1	1914.91
1354.61	132	1922.53
1354.71	131.9	1904.19
1354.81	131.8	1893.07
1354.91	131.7	1919.74
1355.01	131.6	1931.66
1355.11	131.5	1890.17
1355.21	131.4	1849.17
1355.31	131.3	1924.53
1355.41	131.2	1915.02
1355.51	131.1	1927.29
1355.61	131	1923.9
1355.71	130.9	1907.33
1355.81	130.8	1895.14
1355.91	130.7	1908.16
1356.01	130.6	1946.83
1356.11	130.5	1914.59
1356.21	130.4	1899.24
1356.31	130.3	1919.66
1356.41	130.2	1904.91
1356.51	130.1	1916.65
1356.61	130	1925.24
1356.71	129.9	1923.84
1356.81	129.8	1906.61
1356.91	129.7	1935.99
1357.01	129.6	1921.12
1357.11	129.5	1933.79
1357.21	129.4	1932.86
1357.31	129.3	1928.01
1357.41	129.2	1918.86
1357.51	129.1	1924.53
1357.61	129	1925.9
1357.71	128.9	1951.29
1357.81	128.8	1926.87
1357.91	128.7	1927.71
1358.01	128.6	1932.89
1358.11	128.5	1920.45
1358.21	128.4	1952.16
1358.31	128.3	1961.39
1358.41	128.2	1916.98
1358.51	128.1	1957.68
1358.61	128	1947.48
1358.71	127.9	1926.61
1358.81	127.8	1922.59
1358.91	127.7	1927.62
1359.01	127.6	1908.47
1359.11	127.5	1938.27
1359.21	127.4	1935.88
1359.31	127.3	1921.74
1359.41	127.2	1920.05
1359.51	127.1	1946.2
1359.61	127	1918.04
1359.71	126.9	1919.75
1359.81	126.8	1942.97
1359.91	126.7	1965.98
1360.01	126.6	1944.27
1360.11	126.5	1955.49
1360.21	126.4	1954.18
1360.31	126.3	1953.82
1360.41	126.2	1948.01
1360.51	126.1	1947.39
1360.61	126	1950.74
1360.71	125.9	1942.94
1360.81	125.8	1950.94
1360.91	125.7	1946.25
1361.01	125.6	1937.5
1361.11	125.5	1917.78
1361.21	125.4	1933.91
1361.31	125.3	1939.71
1361.41	125.2	1937.51
1361.51	125.1	1924.85
1361.61	125	1942.33
1361.71	124.9	1945.68
1361.81	124.8	1973.4
1361.91	124.7	1950.78
1362.01	124.6	1960.46
1362.11	124.5	1974.51
1362.21	124.4	1940.26
1362.31	124.3	1965.04
1362.41	124.2	1993.14
1362.51	124.1	1967.15
1362.61	124	1948.24
1362.71	123.9	1953.29
1362.81	123.8	1941.95
1362.91	123.7	1945.12
1363.01	123.6	1948.51
1363.11	123.5	1960.22
1363.21	123.4	1949.89
1363.31	123.3	1963.75
1363.41	123.2	1968.31
1363.51	123.1	1962.5
1363.61	123	1977.89
1363.71	122.9	1975.15
1363.81	122.8	1976.01
1363.91	122.7	1961.72
1364.01	122.6	1993.15
1364.11	122.5	1959.47
1364.21	122.4	1957.49
1364.31	122.3	1974.57
1364.41	122.2	1990.21
1364.51	122.1	1988.62
1364.61	122	1968.2
1364.71	121.9	1960.44
1364.81	121.8	1990.41
1364.91	121.7	1964.44
1365.01	121.6	1973.87
1365.11	121.5	1990.68
1365.21	121.4	1958.67
1365.31	121.3	1985.58
1365.41	121.2	1987.1
1365.51	121.1	1961.49
1365.61	121	1976.67
1365.71	120.9	1972.08
1365.81	120.8	1994.45
1365.91	120.7	2021.22
1366.01	120.6	1997.23
1366.11	120.5	1988.82
1366.21	120.4	2013.83
1366.31	120.3	2003.56
1366.41	120.2	2020.26
1366.51	120.1	1995.28
1366.61	120	1976.15
1366.71	119.9	1983.12
1366.81	119.8	1964.99
1366.91	119.7	1978.54
1367.01	119.6	1989.43
1367.11	119.5	2000.68
1367.21	119.4	2001.75
1367.31	119.3	1997.51
1367.41	119.2	1990.23
1367.51	119.1	2015.06
1367.61	119	2011.11
1367.71	118.9	1983
1367.81	118.8	1981.86
1367.91	118.7	1971.37
1368.01	118.6	1983.51
1368.11	118.5	2016.79
1368.21	118.4	2037.56
1368.31	118.3	1999.77
1368.41	118.2	2044.79
1368.51	118.1	1989.94
1368.61	118	1964.13
1368.71	117.9	1994.5
1368.81	117.8	2002.78
1368.91	117.7	1980.04
1369.01	117.6	2010.01
1369.11	117.5	1966.25
1369.21	117.4	2010.17
1369.31	117.3	2008.14
1369.41	117.2	2034.2
1369.51	117.1	1988.72
1369.61	117	1994.16
1369.71	116.9	1990.72
1369.81	116.8	2017.54
1369.91	116.7	2019.64
1370.01	116.6	2026.36
1370.11	116.5	2026.79
1370.21	116.4	2005.85
1370.31	116.3	2006.98
1370.41	116.2	2046.95
1370.51	116.1	2056.27
1370.61	116	1995.69
1370.71	115.9	1990.43
1370.81	115.8	2026.46
1370.91	115.7	2004.31
1371.01	115.6	2014.46
1371.11	115.5	2043.97
1371.21	115.4	2018.56
1371.31	115.3	2018.91
1371.41	115.2	2027.25
1371.51	115.1	2002.17
1371.61	115	2025.42
1371.71	114.9	2041.73
1371.81	114.8	1990.12
1371.91	114.7	2036.35
1372.01	114.6	2063.98
1372.11	114.5	2081.93
1372.21	114.4	2048.44
1372.31	114.3	2071.28
1372.41	114.2	2061.09
1372.51	114.1	2047.38
1372.61	114	2022.82
1372.71	113.9	2010.78
1372.81	113.8	2038.77
1372.91	113.7	2057.22
1373.01	113.6	2033.21
1373.11	113.5	2070.41
1373.21	113.4	2040
1373.31	113.3	2060.79
1373.41	113.2	2093.25
1373.51	113.1	2099.83
1373.61	113	2064.52
1373.71	112.9	2072.29
1373.81	112.8	2070.01
1373.91	112.7	2068.21
1374.01	112.6	2081.18
1374.11	112.5	2078.79
1374.21	112.4	2095.72
1374.31	112.3	2101.7
1374.41	112.2	2083.12
1374.51	112.1	2079.94
1374.61	112	2089.17
1374.71	111.9	2094.27
1374.81	111.8	2082.65
1374.91	111.7	2092.56
1375.01	111.6	2082.94
1375.11	111.5	2107.03
1375.21	111.4	2113.37
1375.31	111.3	2083.51
1375.41	111.2	2092.09
1375.51	111.1	2102.27
1375.61	111	2096.94
1375.71	110.9	2114.78
1375.81	110.8	2110.32
1375.91	110.7	2088.56
1376.01	110.6	2081.37
1376.11	110.5	2085.03
1376.21	110.4	2095.72
1376.31	110.3	2100.76
1376.41	110.2	2114.9
1376.51	110.1	2100.82
1376.61	110	2092.05
1376.71	109.9	2100.06
1376.81	109.8	2090.9
1376.91	109.7	2095.73
1377.01	109.6	2109.09
1377.11	109.5	2116.67
1377.21	109.4	2107.17
1377.31	109.3	2098.49
1377.41	109.2	2091.35
1377.51	109.1	2077.13
1377.61	109	2085.52
1377.71	108.9	2071.93
1377.81	108.8	2073.13
1377.91	108.7	2105.32
1378.01	108.6	2049.44
1378.11	108.5	2043.7
1378.21	108.4	2044.74
1378.31	108.3	2042.93
1378.41	108.2	2056.44
1378.51	108.1	2082.69
1378.61	108	2096.85
1378.71	107.9	2067.68
1378.81	107.8	2075.27
1378.91	107.7	2080.66
1379.01	107.6	2088.84
1379.11	107.5	2067.5
1379.21	107.4	2079.7
1379.31	107.3	2084.55
1379.41	107.2	2053.62
1379.51	107.1	2060.96
1379.61	107	2074.5
1379.71	106.9	2080.34
1379.81	106.8	2035.94
1379.91	106.7	2048.42
1380.01	106.6	2030.42
1380.11	106.5	2021.25
1380.21	106.4	2023.85
1380.31	106.3	2022.9
1380.41	106.2	2022.89
1380.51	106.1	1995.74
1380.61	106	2004.8
1380.71	105.9	2012.56
1380.81	105.8	2014.33
1380.91	105.7	2017.68
1381.01	105.6	2000.01
1381.11	105.5	2002.66
1381.21	105.4	2006.6
1381.31	105.3	2006.68
1381.41	105.2	2004.68
1381.51	105.1	2042.1
1381.61	105	2032.62
1381.71	104.9	2028.26
1381.81	104.8	2063
1381.91	104.7	2061.09
1382.01	104.6	2036.1
1382.11	104.5	2057.48
1382.21	104.4	2033.15
1382.31	104.3	2044.03
1382.41	104.2	2028.46
1382.51	104.1	2044.92
1382.61	104	2031.08
1382.71	103.9	2006.92
1382.81	103.8	2000.41
1382.91	103.7	2033.09
1383.01	103.6	2038.96
1383.11	103.5	2033.92
1383.21	103.4	2027.86
1383.31	103.3	2013.04
1383.41	103.2	2026.97
1383.51	103.1	2054.04
1383.61	103	2049.64
1383.71	102.9	1991.36
1383.81	102.8	1987.83
1383.91	102.7	1993.74
1384.01	102.6	1960.91
1384.11	102.5	1929.24
1384.21	102.4	1932.97
1384.31	102.3	1911.24
1384.41	102.2	1896.18
1384.51	102.1	1895.38
1384.61	102	1857.66
1384.71	101.9	1864.68
1384.81	101.8	1893.32
1384.91	101.7	1910.62
1385.01	101.6	1917.58
1385.11	101.5	1911.24
1385.21	101.4	1915.11
1385.31	101.3	1929.85
1385.41	101.2	1914.83
1385.51	101.1	1945.04
1385.61	101	1931.11
1385.71	100.9	1931.95
1385.81	100.8	1931.99
1385.91	100.7	1922.49
1386.01	100.6	1875.84
1386.11	100.5	1887.2
1386.21	100.4	1884.75
1386.31	100.3	1875.81
1386.41	100.2	1841.34
1386.51	100.1	1821.53
1386.61	100	1812.38
1386.71	99.9	1838.76
1386.81	99.8	1816.61
1386.91	99.7	1816.97
1387.01	99.6	1817.87
1387.11	99.5	1824.57
1387.21	99.4	1849.49
1387.31	99.3	1783.03
1387.41	99.2	1789.5
1387.51	99.1	1788.59
1387.61	99	1778.65
1387.71	98.9	1760.49
1387.81	98.8	1725.02
1387.91	98.7	1694.26
1388.01	98.6	1679.5
1388.11	98.5	1644.62
1388.21	98.4	1633.1
1388.31	98.3	1626.21
1388.41	98.2	1616.57
1388.51	98.1	1617.72
1388.61	98	1615.8
1388.71	97.9	1597.27
1388.81	97.8	1630.92
1388.91	97.7	1606.75
1389.01	97.6	1623.21
1389.11	97.5	1629.13
1389.21	97.4	1622.45
1389.31	97.3	1602.97
1389.41	97.2	1667.02
1389.51	97.1	1671.06
1389.61	97	1691.72
1389.71	96.9	1704.45
1389.81	96.8	1736.8
1389.91	96.7	1720.76
1390.01	96.6	1730.62
1390.11	96.5	1720.6
1390.21	96.4	1745.37
1390.31	96.3	1718.98
1390.41	96.2	1739.84
1390.51	96.1	1703.34
1390.61	96	1672.97
1390.71	95.9	1647.67
1390.81	95.8	1652.21
1390.91	95.7	1623.5
1391.01	95.6	1576.96
1391.11	95.5	1551.94
1391.21	95.4	1545.32
1391.31	95.3	1494.01
1391.41	95.2	1449.71
1391.51	95.1	1451.25
1391.61	95	1423.52
1391.71	94.9	1423.13
1391.81	94.8	1419.81
1391.91	94.7	1418.93
1392.01	94.6	1398.47
1392.11	94.5	1394.52
1392.21	94.4	1422.32
1392.31	94.3	1423.13
1392.41	94.2	1441.85
1392.51	94.1	1430.25
1392.61	94	1428.96
1392.71	93.9	1422.74
1392.81	93.8	1433.56
1392.91	93.7	1433.8
1393.01	93.6	1465.68
1393.11	93.5	1476.27
1393.21	93.4	1470.44
1393.31	93.3	1480.48
1393.41	93.2	1528.38
1393.51	93.1	1596.28
1393.61	93	1615.01
1393.71	92.9	1646.92
1393.81	92.8	1662.49
1393.91	92.7	1687.15
1394.01	92.6	1669.32
1394.11	92.5	1686.28
1394.21	92.4	1678.25
1394.31	92.3	1661.89
1394.41	92.2	1628.92
1394.51	92.1	1624.27
1394.61	92	1580.95
1394.71	91.9	1542.95
1394.81	91.8	1514.67
1394.91	91.7	1491.66
1395.01	91.6	1461.5
1395.11	91.5	1469.08
1395.21	91.4	1428.73
1395.31	91.3	1410.41
1395.41	91.2	1400.43
1395.51	91.1	1410.8
1395.61	91	1392.62
1395.71	90.9	1384.64
1395.81	90.8	1409.19
1395.91	90.7	1417.42
1396.01	90.6	1397.45
1396.11	90.5	1421.78
1396.21	90.4	1430.7
1396.31	90.3	1455.13
1396.41	90.2	1439.62
1396.51	90.1	1427.84
1396.61	90	1431.72
1396.71	89.9	1411.31
1396.81	89.8	1416.54
1396.91	89.7	1434.06
1397.01	89.6	1482.33
1397.11	89.5	1512.62
1397.21	89.4	1508.94
1397.31	89.3	1567.02
1397.41	89.2	1598.52
1397.51	89.1	1680.61
1397.61	89	1735.11
1397.71	88.9	1857.6
1397.81	88.8	2029.07
1397.91	88.7	2183.97
1398.01	88.6	2513.29
1398.11	88.5	2945.87
1398.21	88.4	3498.84
1398.31	88.3	4380.04
1398.41	88.2	5531.55
1398.51	88.1	7141.07
1398.61	88	8915.26
1398.71	87.9	10893.9
1398.81	87.8	12584.6
1398.91	87.7	13436
1399.01	87.6	13382.9
1399.11	87.5	12227.9
1399.21	87.4	10448.6
1399.31	87.3	8467.39
1399.41	87.2	6588.62
1399.51	87.1	5039.56
1399.61	87	3918.66
1399.71	86.9	3076.38
1399.81	86.8	2527.42
1399.91	86.7	2115.3
1400.01	86.6	1871.36
1400.11	86.5	1704.13
1400.21	86.4	1576.43
1400.31	86.3	1480.71
1400.41	86.2	1427.14
1400.51	86.1	1389.22
1400.61	86	1332.72
1400.71	85.9	1321.05
1400.81	85.8	1302.02
1400.91	85.7	1359.73
1401.01	85.6	1407.34
1401.11	85.5	1435.81
1401.21	85.4	1523.72
1401.31	85.3	1625.74
1401.41	85.2	1755.96
1401.51	85.1	1957.98
1401.61	85	2232.88
1401.71	84.9	2605.7
1401.81	84.8	3160.24
1401.91	84.7	3924.92
1402.01	84.6	5126.46
1402.11	84.5	6750.21
1402.21	84.4	8902.5
1402.31	84.3	11420.9
1402.41	84.2	13954
1402.51	84.1	15975.3
1402.61	84	16839.9
1402.71	83.9	16437.9
1402.81	83.8	14698
1402.91	83.7	12267.6
1403.01	83.6	9557.72
1403.11	83.5	7105.14
1403.21	83.4	5188.83
1403.31	83.3	3802.2
1403.41	83.2	2786.16
1403.51	83.1	2117.87
1403.61	83	1696.19
1403.71	82.9	1382.52
1403.81	82.8	1192
1403.91	82.7	1035.41
1404.01	82.6	919.608
1404.11	82.5	851.207
1404.21	82.4	774.405
1404.31	82.3	731.92
1404.41	82.2	693.482
1404.51	82.1	658.073
1404.61	82	643.349
1404.71	81.9	614.207
1404.81	81.8	589.123
1404.91	81.7	565.492
1405.01	81.6	561.104
1405.11	81.5	545.318
1405.21	81.4	526.917
1405.31	81.3	515.348
1405.41	81.2	501.397
1405.51	81.1	481.65
1405.61	81	481.672
1405.71	80.9	477.312
1405.81	80.8	457.895
1405.91	80.7	459.656
1406.01	80.6	448.457
1406.11	80.5	448.275
1406.21	80.4	442.606
1406.31	80.3	443.318
1406.41	80.2	442.689
1406.51	80.1	430.146
1406.61	80	440.193
1406.71	79.9	429.67
1406.81	79.8	423.418
1406.91	79.7	417.756
1407.01	79.6	418.734
1407.11	79.5	425.611
1407.21	79.4	402.211
1407.31	79.3	413.118
1407.41	79.2	406.118
1407.51	79.1	409.609
1407.61	79	409.204
1407.71	78.9	401.927
1407.81	78.8	413.504
1407.91	78.7	403.445
1408.01	78.6	411.053
1408.11	78.5	406.582
1408.21	78.4	399.727
1408.31	78.3	400.906
1408.41	78.2	403.969
1408.51	78.1	400.599
1408.61	78	390.647
1408.71	77.9	397.708
1408.81	77.8	405.024
1408.91	77.7	410.141
1409.01	77.6	412.038
1409.11	77.5	405.649
1409.21	77.4	405.629
1409.31	77.3	397.002
1409.41	77.2	390.009
1409.51	77.1	406.274
1409.61	77	403.352
1409.71	76.9	399.751
1409.81	76.8	406.381
1409.91	76.7	407.968
1410.01	76.6	405.293
1410.11	76.5	408.885
1410.21	76.4	410.255
1410.31	76.3	398.608
1410.41	76.2	408.517
1410.51	76.1	409.286
1410.61	76	429.703
1410.71	75.9	410.4
1410.81	75.8	414.861
1410.91	75.7	420.404
1411.01	75.6	426.163
1411.11	75.5	434.002
1411.21	75.4	435.267
1411.31	75.3	434.012
1411.41	75.2	417.21
1411.51	75.1	428.601
1411.61	75	433.535