c:\users\mark\owncloud\muelheim group\projects\gas phase background\au in he 800um nozzle\experiment 2019-01-28_au in he 800 um nozzle - selection.vms
Au4f
	Characteristic Energy eV	1486.61	Acquisition Time s	0.4
KE_Au4f	BE_Au4f	CPS_Au4f
1356.66	129.95	1682.45
1356.71	129.9	1689.82
1356.76	129.85	1688.46
1356.81	129.8	1713.15
1356.86	129.75	1706.84
1356.91	129.7	1679.58
1356.96	129.65	1703.42
1357.01	129.6	1685.98
1357.06	129.55	1702.34
1357.11	129.5	1697.49
1357.16	129.45	1670.4
1357.21	129.4	1673.06
1357.26	129.35	1675.67
1357.31	129.3	1662.4
1357.36	129.25	1669.48
1357.41	129.2	1717.44
1357.46	129.15	1697.46
1357.51	129.1	1685.62
1357.56	129.05	1704.9
1357.61	129	1706.74
1357.66	128.95	1697.01
1357.71	128.9	1684.8
1357.76	128.85	1689.6
1357.81	128.8	1677.1
1357.86	128.75	1679.92
1357.91	128.7	1722.9
1357.96	128.65	1691.53
1358.01	128.6	1720.62
1358.06	128.55	1707.02
1358.11	128.5	1684.44
1358.16	128.45	1675.88
1358.21	128.4	1697.8
1358.26	128.35	1701.64
1358.31	128.3	1698.23
1358.36	128.25	1680.01
1358.41	128.2	1694.5
1358.46	128.15	1678.02
1358.51	128.1	1688.89
1358.56	128.05	1709.1
1358.61	128	1700.83
1358.66	127.95	1682.87
1358.71	127.9	1687.24
1358.76	127.85	1684.23
1358.81	127.8	1689.86
1358.86	127.75	1682.51
1358.91	127.7	1684.65
1358.96	127.65	1703.06
1359.01	127.6	1707.63
1359.06	127.55	1705.58
1359.11	127.5	1722.13
1359.16	127.45	1694.62
1359.21	127.4	1676.32
1359.26	127.35	1682.34
1359.31	127.3	1665.96
1359.36	127.25	1677.29
1359.41	127.2	1694.83
1359.46	127.15	1700.19
1359.51	127.1	1700.58
1359.56	127.05	1724.32
1359.61	127	1716.51
1359.66	126.95	1689.31
1359.71	126.9	1722.86
1359.76	126.85	1722.3
1359.81	126.8	1738.4
1359.86	126.75	1742.02
1359.91	126.7	1719.77
1359.96	126.65	1702.33
1360.01	126.6	1725.12
1360.06	126.55	1706.49
1360.11	126.5	1702.44
1360.16	126.45	1717.32
1360.21	126.4	1733.46
1360.26	126.35	1741.74
1360.31	126.3	1717.6
1360.36	126.25	1696.19
1360.41	126.2	1716.09
1360.46	126.15	1716.33
1360.51	126.1	1719.85
1360.56	126.05	1700.21
1360.61	126	1723.87
1360.66	125.95	1726.6
1360.71	125.9	1695.45
1360.76	125.85	1690.24
1360.81	125.8	1723.8
1360.86	125.75	1708.95
1360.91	125.7	1726.74
1360.96	125.65	1698.92
1361.01	125.6	1707.05
1361.06	125.55	1725.93
1361.11	125.5	1727.58
1361.16	125.45	1721.06
1361.21	125.4	1723.78
1361.26	125.35	1691.25
1361.31	125.3	1711.94
1361.36	125.25	1715.99
1361.41	125.2	1737.14
1361.46	125.15	1727.79
1361.51	125.1	1723.99
1361.56	125.05	1724.8
1361.61	125	1719.6
1361.66	124.95	1733.96
1361.71	124.9	1726.55
1361.76	124.85	1746.41
1361.81	124.8	1736.11
1361.86	124.75	1749.69
1361.91	124.7	1728.87
1361.96	124.65	1691.95
1362.01	124.6	1717.6
1362.06	124.55	1738.73
1362.11	124.5	1733.2
1362.16	124.45	1731.62
1362.21	124.4	1734.41
1362.26	124.35	1708.65
1362.31	124.3	1717.05
1362.36	124.25	1746.91
1362.41	124.2	1722.88
1362.46	124.15	1731.12
1362.51	124.1	1714.65
1362.56	124.05	1732.59
1362.61	124	1743.47
1362.66	123.95	1715.9
1362.71	123.9	1756.16
1362.76	123.85	1758.16
1362.81	123.8	1747.93
1362.86	123.75	1740.48
1362.91	123.7	1758.08
1362.96	123.65	1746.4
1363.01	123.6	1748.47
1363.06	123.55	1762.39
1363.11	123.5	1772.93
1363.16	123.45	1752.97
1363.21	123.4	1729.46
1363.26	123.35	1755.48
1363.31	123.3	1741.62
1363.36	123.25	1746.07
1363.41	123.2	1746.2
1363.46	123.15	1773.36
1363.51	123.1	1804.02
1363.56	123.05	1754.31
1363.61	123	1759.41
1363.66	122.95	1748.31
1363.71	122.9	1762.52
1363.76	122.85	1750.74
1363.81	122.8	1760.05
1363.86	122.75	1779.89
1363.91	122.7	1749.91
1363.96	122.65	1750.78
1364.01	122.6	1747.15
1364.06	122.55	1768.37
1364.11	122.5	1765.94
1364.16	122.45	1780.67
1364.21	122.4	1779.74
1364.26	122.35	1781.36
1364.31	122.3	1779.53
1364.36	122.25	1777.6
1364.41	122.2	1780.59
1364.46	122.15	1794.17
1364.51	122.1	1791.55
1364.56	122.05	1767.81
1364.61	122	1767.85
1364.66	121.95	1780.32
1364.71	121.9	1750.39
1364.76	121.85	1746.84
1364.81	121.8	1774.3
1364.86	121.75	1792.97
1364.91	121.7	1779.57
1364.96	121.65	1774.95
1365.01	121.6	1800.96
1365.06	121.55	1795.11
1365.11	121.5	1805.66
1365.16	121.45	1802.59
1365.21	121.4	1791.01
1365.26	121.35	1780
1365.31	121.3	1761.64
1365.36	121.25	1815.31
1365.41	121.2	1800.91
1365.46	121.15	1783.89
1365.51	121.1	1802.69
1365.56	121.05	1777.26
1365.61	121	1790.92
1365.66	120.95	1791.49
1365.71	120.9	1796.31
1365.76	120.85	1785.9
1365.81	120.8	1797.12
1365.86	120.75	1793.47
1365.91	120.7	1814.94
1365.96	120.65	1797.88
1366.01	120.6	1785.3
1366.06	120.55	1802.96
1366.11	120.5	1822.33
1366.16	120.45	1799.7
1366.21	120.4	1820.57
1366.26	120.35	1780.39
1366.31	120.3	1792.5
1366.36	120.25	1806.08
1366.41	120.2	1823.2
1366.46	120.15	1800.2
1366.51	120.1	1820.72
1366.56	120.05	1825.83
1366.61	120	1806.4
1366.66	119.95	1809.64
1366.71	119.9	1773.73
1366.76	119.85	1783.59
1366.81	119.8	1794.58
1366.86	119.75	1822.23
1366.91	119.7	1840.38
1366.96	119.65	1814.31
1367.01	119.6	1806.09
1367.06	119.55	1811.22
1367.11	119.5	1809.01
1367.16	119.45	1833.56
1367.21	119.4	1838.06
1367.26	119.35	1861.71
1367.31	119.3	1829.56
1367.36	119.25	1828
1367.41	119.2	1840.97
1367.46	119.15	1804.47
1367.51	119.1	1823.38
1367.56	119.05	1821.29
1367.61	119	1796.16
1367.66	118.95	1814.24
1367.71	118.9	1820.46
1367.76	118.85	1835.74
1367.81	118.8	1858.02
1367.86	118.75	1832.89
1367.91	118.7	1823.86
1367.96	118.65	1835.09
1368.01	118.6	1849.1
1368.06	118.55	1832.03
1368.11	118.5	1821.19
1368.16	118.45	1830.97
1368.21	118.4	1849.53
1368.26	118.35	1852.75
1368.31	118.3	1811.6
1368.36	118.25	1844.46
1368.41	118.2	1841.63
1368.46	118.15	1834.68
1368.51	118.1	1829.43
1368.56	118.05	1820.76
1368.61	118	1824.25
1368.66	117.95	1833.64
1368.71	117.9	1824.85
1368.76	117.85	1859.2
1368.81	117.8	1846.35
1368.86	117.75	1819.76
1368.91	117.7	1844.56
1368.96	117.65	1841.36
1369.01	117.6	1848.14
1369.06	117.55	1823.59
1369.11	117.5	1832.87
1369.16	117.45	1833.53
1369.21	117.4	1866.86
1369.26	117.35	1840.76
1369.31	117.3	1840.51
1369.36	117.25	1858.23
1369.41	117.2	1861.73
1369.46	117.15	1863.54
1369.51	117.1	1835.54
1369.56	117.05	1848.53
1369.61	117	1880.07
1369.66	116.95	1870.63
1369.71	116.9	1871.37
1369.76	116.85	1829.43
1369.81	116.8	1860.68
1369.86	116.75	1862.48
1369.91	116.7	1831.93
1369.96	116.65	1851.31
1370.01	116.6	1879.73
1370.06	116.55	1858.84
1370.11	116.5	1856.32
1370.16	116.45	1878.63
1370.21	116.4	1861.31
1370.26	116.35	1898.45
1370.31	116.3	1876.44
1370.36	116.25	1877.68
1370.41	116.2	1877.02
1370.46	116.15	1870.23
1370.51	116.1	1877.69
1370.56	116.05	1879.4
1370.61	116	1906.47
1370.66	115.95	1866.72
1370.71	115.9	1860.05
1370.76	115.85	1882.83
1370.81	115.8	1876.71
1370.86	115.75	1901.57
1370.91	115.7	1896.49
1370.96	115.65	1890.73
1371.01	115.6	1888.69
1371.06	115.55	1878.14
1371.11	115.5	1888.87
1371.16	115.45	1898.58
1371.21	115.4	1881.16
1371.26	115.35	1878.21
1371.31	115.3	1905.21
1371.36	115.25	1912.97
1371.41	115.2	1914.49
1371.46	115.15	1916.37
1371.51	115.1	1879.4
1371.56	115.05	1877
1371.61	115	1918.17
1371.66	114.95	1928.57
1371.71	114.9	1900.66
1371.76	114.85	1886.05
1371.81	114.8	1894.43
1371.86	114.75	1914.17
1371.91	114.7	1934.58
1371.96	114.65	1921.71
1372.01	114.6	1905.81
1372.06	114.55	1910.6
1372.11	114.5	1910.24
1372.16	114.45	1921.37
1372.21	114.4	1933.87
1372.26	114.35	1926.22
1372.31	114.3	1912.28
1372.36	114.25	1924.64
1372.41	114.2	1926.7
1372.46	114.15	1900.49
1372.51	114.1	1930.3
1372.56	114.05	1903.56
1372.61	114	1933.17
1372.66	113.95	1910.68
1372.71	113.9	1925.25
1372.76	113.85	1936.61
1372.81	113.8	1923.35
1372.86	113.75	1937.15
1372.91	113.7	1949.31
1372.96	113.65	1921.65
1373.01	113.6	1943.01
1373.06	113.55	1933.38
1373.11	113.5	1921.54
1373.16	113.45	1918.87
1373.21	113.4	1935.42
1373.26	113.35	1955.14
1373.31	113.3	1963.24
1373.36	113.25	1942.38
1373.41	113.2	1941.05
1373.46	113.15	1953.75
1373.51	113.1	1951.37
1373.56	113.05	1953.28
1373.61	113	1945.39
1373.66	112.95	1961.75
1373.71	112.9	1971.73
1373.76	112.85	1951.37
1373.81	112.8	1949.69
1373.86	112.75	1969.03
1373.91	112.7	1985.16
1373.96	112.65	1988.3
1374.01	112.6	1984.53
1374.06	112.55	1964.15
1374.11	112.5	1980.28
1374.16	112.45	1989.7
1374.21	112.4	2008.77
1374.26	112.35	1996.62
1374.31	112.3	1999.32
1374.36	112.25	1969.05
1374.41	112.2	1986.17
1374.46	112.15	2034.21
1374.51	112.1	2018.98
1374.56	112.05	1990.18
1374.61	112	1991.22
1374.66	111.95	2002.52
1374.71	111.9	2010.09
1374.76	111.85	1974.26
1374.81	111.8	1988.68
1374.86	111.75	2030.31
1374.91	111.7	2009.84
1374.96	111.65	2017.51
1375.01	111.6	2036.79
1375.06	111.55	2004.23
1375.11	111.5	2021.96
1375.16	111.45	1992.1
1375.21	111.4	2012.85
1375.26	111.35	2040.73
1375.31	111.3	2018.05
1375.36	111.25	2017.94
1375.41	111.2	2032.28
1375.46	111.15	2042.5
1375.51	111.1	2037.43
1375.56	111.05	2061.21
1375.61	111	2062.92
1375.66	110.95	2073.24
1375.71	110.9	2064.01
1375.76	110.85	2053.55
1375.81	110.8	2059.15
1375.86	110.75	2067.79
1375.91	110.7	2033.75
1375.96	110.65	2064.18
1376.01	110.6	2035.87
1376.06	110.55	1981.61
1376.11	110.5	1971.83
1376.16	110.45	1979.67
1376.21	110.4	1957.11
1376.26	110.35	1947.89
1376.31	110.3	1942.3
1376.36	110.25	1937.02
1376.41	110.2	1926.27
1376.46	110.15	1943.16
1376.51	110.1	1924.02
1376.56	110.05	1949.86
1376.61	110	1923.45
1376.66	109.95	1956.66
1376.71	109.9	1953.23
1376.76	109.85	1940.52
1376.81	109.8	1958.79
1376.86	109.75	1976.5
1376.91	109.7	2015.27
1376.96	109.65	2053.87
1377.01	109.6	2053.34
1377.06	109.55	2109.79
1377.11	109.5	2119.26
1377.16	109.45	2166.69
1377.21	109.4	2227.49
1377.26	109.35	2244.13
1377.31	109.3	2316.75
1377.36	109.25	2351.53
1377.41	109.2	2428.65
1377.46	109.15	2474.03
1377.51	109.1	2534.85
1377.56	109.05	2580.72
1377.61	109	2584.18
1377.66	108.95	2593.42
1377.71	108.9	2564.5
1377.76	108.85	2556.1
1377.81	108.8	2462.86
1377.86	108.75	2386.48
1377.91	108.7	2368.93
1377.96	108.65	2322.49
1378.01	108.6	2260.87
1378.06	108.55	2175.61
1378.11	108.5	2116.77
1378.16	108.45	2094.18
1378.21	108.4	2036.54
1378.26	108.35	2015.89
1378.31	108.3	2018.72
1378.36	108.25	1979.84
1378.41	108.2	1957.68
1378.46	108.15	1931.72
1378.51	108.1	1919.71
1378.56	108.05	1913.96
1378.61	108	1904.18
1378.66	107.95	1867.86
1378.71	107.9	1856.44
1378.76	107.85	1836.18
1378.81	107.8	1840.85
1378.86	107.75	1832.9
1378.91	107.7	1840.98
1378.96	107.65	1832.39
1379.01	107.6	1812.63
1379.06	107.55	1834.13
1379.11	107.5	1842.07
1379.16	107.45	1830.91
1379.21	107.4	1836.73
1379.26	107.35	1853.96
1379.31	107.3	1830.95
1379.36	107.25	1837.14
1379.41	107.2	1846
1379.46	107.15	1836.39
1379.51	107.1	1839.21
1379.56	107.05	1825.63
1379.61	107	1803.67
1379.66	106.95	1783.83
1379.71	106.9	1755.83
1379.76	106.85	1729.64
1379.81	106.8	1721.52
1379.86	106.75	1685.16
1379.91	106.7	1675.54
1379.96	106.65	1628.19
1380.01	106.6	1636.5
1380.06	106.55	1632.07
1380.11	106.5	1612.69
1380.16	106.45	1616.39
1380.21	106.4	1638.63
1380.26	106.35	1618.45
1380.31	106.3	1643.98
1380.36	106.25	1642.02
1380.41	106.2	1644.49
1380.46	106.15	1666.63
1380.51	106.1	1691.52
1380.56	106.05	1705.26
1380.61	106	1704.73
1380.66	105.95	1763.09
1380.71	105.9	1791.35
1380.76	105.85	1826.6
1380.81	105.8	1888.37
1380.86	105.75	1932.53
1380.91	105.7	1993.04
1380.96	105.65	2054.8
1381.01	105.6	2133.82
1381.06	105.55	2207.01
1381.11	105.5	2271.94
1381.16	105.45	2346.55
1381.21	105.4	2393.1
1381.26	105.35	2467.1
1381.31	105.3	2465.47
1381.36	105.25	2457.98
1381.41	105.2	2447.03
1381.46	105.15	2384.64
1381.51	105.1	2327.53
1381.56	105.05	2263.47
1381.61	105	2137.29
1381.66	104.95	2066.81
1381.71	104.9	1958.62
1381.76	104.85	1903.22
1381.81	104.8	1866.79
1381.86	104.75	1771.65
1381.91	104.7	1731.76
1381.96	104.65	1672.32
1382.01	104.6	1651.38
1382.06	104.55	1618.63
1382.11	104.5	1592.5
1382.16	104.45	1585.99
1382.21	104.4	1554.63
1382.26	104.35	1557.38
1382.31	104.3	1536.76
1382.36	104.25	1535.58
1382.41	104.2	1533.66
1382.46	104.15	1495.29
1382.51	104.1	1503.28
1382.56	104.05	1485.74
1382.61	104	1475.29
1382.66	103.95	1489.66
1382.71	103.9	1493.55
1382.76	103.85	1476.83
1382.81	103.8	1479.34
1382.86	103.75	1477.39
1382.91	103.7	1466.61
1382.96	103.65	1474.93
1383.01	103.6	1481.51
1383.06	103.55	1466.65
1383.11	103.5	1452.47
1383.16	103.45	1476.08
1383.21	103.4	1479.87
1383.26	103.35	1461.79
1383.31	103.3	1448.43
1383.36	103.25	1438.09
1383.41	103.2	1439.85
1383.46	103.15	1454.8
1383.51	103.1	1453.79
1383.56	103.05	1465.22
1383.61	103	1485.32
1383.66	102.95	1467.85
1383.71	102.9	1459.98
1383.76	102.85	1455.28
1383.81	102.8	1448.69
1383.86	102.75	1437.25
1383.91	102.7	1437
1383.96	102.65	1458.96
1384.01	102.6	1467.05
1384.06	102.55	1444.91
1384.11	102.5	1458.27
1384.16	102.45	1466.67
1384.21	102.4	1467.41
1384.26	102.35	1461.16
1384.31	102.3	1463.27
1384.36	102.25	1432.99
1384.41	102.2	1429.53
1384.46	102.15	1436.65
1384.51	102.1	1464.14
1384.56	102.05	1454.02
1384.61	102	1442.4
1384.66	101.95	1448.09
1384.71	101.9	1463.71
1384.76	101.85	1462.76
1384.81	101.8	1465.11
1384.86	101.75	1453.25
1384.91	101.7	1457.87
1384.96	101.65	1460.42
1385.01	101.6	1450.32
1385.06	101.55	1458.71
1385.11	101.5	1465.02
1385.16	101.45	1452.8
1385.21	101.4	1433.67
1385.26	101.35	1448.93
1385.31	101.3	1435.48
1385.36	101.25	1449.19
1385.41	101.2	1450.01
1385.46	101.15	1447.15
1385.51	101.1	1466.6
1385.56	101.05	1463.69
1385.61	101	1459.62
1385.66	100.95	1433.47
1385.71	100.9	1457.37
1385.76	100.85	1446.49
1385.81	100.8	1434.04
1385.86	100.75	1445.75
1385.91	100.7	1429.75
1385.96	100.65	1443.87
1386.01	100.6	1461.69
1386.06	100.55	1466.5
1386.11	100.5	1464.07
1386.16	100.45	1459.24
1386.21	100.4	1449.12
1386.26	100.35	1446.17
1386.31	100.3	1452.2
1386.36	100.25	1464.08
1386.41	100.2	1463.56
1386.46	100.15	1435.78
1386.51	100.1	1432.64
1386.56	100.05	1435.23
1386.61	100	1439.54
1386.66	99.95	1447.41
1386.71	99.9	1451.83
1386.76	99.85	1459.39
1386.81	99.8	1447.11
1386.86	99.75	1447.82
1386.91	99.7	1474.95
1386.96	99.65	1428.37
1387.01	99.6	1426.13
1387.06	99.55	1449.36
1387.11	99.5	1452.62
1387.16	99.45	1447.73
1387.21	99.4	1457.64
1387.26	99.35	1440.27
1387.31	99.3	1467.2
1387.36	99.25	1441.92
1387.41	99.2	1457.49
1387.46	99.15	1460.42
1387.51	99.1	1449.22
1387.56	99.05	1448.21
1387.61	99	1444.63
1387.66	98.95	1436.91
1387.71	98.9	1433.98
1387.76	98.85	1451.07
1387.81	98.8	1453.61
1387.86	98.75	1457.6
1387.91	98.7	1452.68
1387.96	98.65	1447.82
1388.01	98.6	1435.89
1388.06	98.55	1435.08
1388.11	98.5	1436.17
1388.16	98.45	1435.85
1388.21	98.4	1445.36
1388.26	98.35	1429.31
1388.31	98.3	1441.94
1388.36	98.25	1454.44
1388.41	98.2	1423.1
1388.46	98.15	1430.53
1388.51	98.1	1421.43
1388.56	98.05	1424.14
1388.61	98	1437.27
1388.66	97.95	1426.93
1388.71	97.9	1446.12
1388.76	97.85	1428.46
1388.81	97.8	1433.38
1388.86	97.75	1427.68
1388.91	97.7	1412.65
1388.96	97.65	1405.95
1389.01	97.6	1387.59
1389.06	97.55	1407.31
1389.11	97.5	1401.51
1389.16	97.45	1404.43
1389.21	97.4	1442.85
1389.26	97.35	1413.32
1389.31	97.3	1415.84
1389.36	97.25	1414.05
1389.41	97.2	1404.62
1389.46	97.15	1409.33
1389.51	97.1	1410.77
1389.56	97.05	1408.57
1389.61	97	1377.27
1389.66	96.95	1373.77
1389.71	96.9	1388.78
1389.76	96.85	1363.38
1389.81	96.8	1364.82
1389.86	96.75	1394.73
1389.91	96.7	1370.01
1389.96	96.65	1347.63
1390.01	96.6	1367.16
1390.06	96.55	1346.23
1390.11	96.5	1370.77
1390.16	96.45	1341.07
1390.21	96.4	1380.13
1390.26	96.35	1360.66
1390.31	96.3	1333.06
1390.36	96.25	1332.74
1390.41	96.2	1340.17
1390.46	96.15	1320.5
1390.51	96.1	1338.68
1390.56	96.05	1354.75
1390.61	96	1319.14
1390.66	95.95	1335.81
1390.71	95.9	1353.34
1390.76	95.85	1355.08
1390.81	95.8	1387.12
1390.86	95.75	1356.29
1390.91	95.7	1360.83
1390.96	95.65	1358.16
1391.01	95.6	1358.18
1391.06	95.55	1353.73
1391.11	95.5	1339.03
1391.16	95.45	1377.77
1391.21	95.4	1352.41
1391.26	95.35	1346.47
1391.31	95.3	1339.72
1391.36	95.25	1346.91
1391.41	95.2	1357.98
1391.46	95.15	1346.9
1391.51	95.1	1386.4
1391.56	95.05	1356.2
1391.61	95	1345.36
1391.66	94.95	1360.62
1391.71	94.9	1365.84
1391.76	94.85	1371.64
1391.81	94.8	1348.46
1391.86	94.75	1358.87
1391.91	94.7	1355.69
1391.96	94.65	1373.62
1392.01	94.6	1354.86
1392.06	94.55	1361.32
1392.11	94.5	1344.6
1392.16	94.45	1360.97
1392.21	94.4	1358.31
1392.26	94.35	1351.45
1392.31	94.3	1367.27
1392.36	94.25	1375.15
1392.41	94.2	1365.93
1392.46	94.15	1371.87
1392.51	94.1	1367.02
1392.56	94.05	1383.01
1392.61	94	1370.54
1392.66	93.95	1376.13
1392.71	93.9	1359.04
1392.76	93.85	1363.12
1392.81	93.8	1366.51
1392.86	93.75	1369.88
1392.91	93.7	1345.55
1392.96	93.65	1330.78
1393.01	93.6	1343.72
1393.06	93.55	1351.74
1393.11	93.5	1340.98
1393.16	93.45	1344.34
1393.21	93.4	1330.47
1393.26	93.35	1336.7
1393.31	93.3	1341.02
1393.36	93.25	1336.13
1393.41	93.2	1328.22
1393.46	93.15	1339.77
1393.51	93.1	1346.41
1393.56	93.05	1314.78
1393.61	93	1318.36
1393.66	92.95	1320.24
1393.71	92.9	1322.5
1393.76	92.85	1320.22
1393.81	92.8	1308.24
1393.86	92.75	1317.78
1393.91	92.7	1332.42
1393.96	92.65	1300.05
1394.01	92.6	1287.35
1394.06	92.55	1293.46
1394.11	92.5	1303.66
1394.16	92.45	1312.36
1394.21	92.4	1282.91
1394.26	92.35	1292.93
1394.31	92.3	1300.1
1394.36	92.25	1315.93
1394.41	92.2	1315.24
1394.46	92.15	1315.05
1394.51	92.1	1300.05
1394.56	92.05	1314.36
1394.61	92	1320.98
1394.66	91.95	1336.7
1394.71	91.9	1335.68
1394.76	91.85	1333.9
1394.81	91.8	1321.64
1394.86	91.75	1309.9
1394.91	91.7	1349.94
1394.96	91.65	1343.05
1395.01	91.6	1342.33
1395.06	91.55	1355.78
1395.11	91.5	1404.74
1395.16	91.45	1380.04
1395.21	91.4	1377.79
1395.26	91.35	1387.97
1395.31	91.3	1390.6
1395.36	91.25	1384.34
1395.41	91.2	1416.52
1395.46	91.15	1408.63
1395.51	91.1	1401.32
1395.56	91.05	1436.37
1395.61	91	1441.42
1395.66	90.95	1472.78
1395.71	90.9	1479.14
1395.76	90.85	1437.41
1395.81	90.8	1447.4
1395.86	90.75	1479.19
1395.91	90.7	1500.19
1395.96	90.65	1515.98
1396.01	90.6	1510.81
1396.06	90.55	1503.45
1396.11	90.5	1526.54
1396.16	90.45	1516.75
1396.21	90.4	1518.4
1396.26	90.35	1524.43
1396.31	90.3	1523.39
1396.36	90.25	1543.23
1396.41	90.2	1532.74
1396.46	90.15	1544.21
1396.51	90.1	1548.63
1396.56	90.05	1543.4
1396.61	90	1549.92
1396.66	89.95	1552.93
1396.71	89.9	1581.83
1396.76	89.85	1564.04
1396.81	89.8	1567.89
1396.86	89.75	1616.36
1396.91	89.7	1601.36
1396.96	89.65	1579.78
1397.01	89.6	1604.16
1397.06	89.55	1669.71
1397.11	89.5	1680.07
1397.16	89.45	1696.14
1397.21	89.4	1746.15
1397.26	89.35	1774.52
1397.31	89.3	1791.39
1397.36	89.25	1835.69
1397.41	89.2	1880.87
1397.46	89.15	1946.3
1397.51	89.1	2017.26
1397.56	89.05	2090.4
1397.61	89	2138.52
1397.66	88.95	2240.17
1397.71	88.9	2324.75
1397.76	88.85	2467.86
1397.81	88.8	2598.17
1397.86	88.75	2790.5
1397.91	88.7	2966.97
1397.96	88.65	3215.92
1398.01	88.6	3444.92
1398.06	88.55	3790.33
1398.11	88.5	4170.4
1398.16	88.45	4581.6
1398.21	88.4	5073.32
1398.26	88.35	5662.68
1398.31	88.3	6286.92
1398.36	88.25	6966.48
1398.41	88.2	7701.12
1398.46	88.15	8561.45
1398.51	88.1	9509.82
1398.56	88.05	10505.8
1398.61	88	11510.4
1398.66	87.95	12505.1
1398.71	87.9	13412.4
1398.76	87.85	14146.7
1398.81	87.8	14779.9
1398.86	87.75	14970.3
1398.91	87.7	14845.1
1398.96	87.65	14280.2
1399.01	87.6	13510.6
1399.06	87.55	12477.7
1399.11	87.5	11305.5
1399.16	87.45	10010.1
1399.21	87.4	8747.02
1399.26	87.35	7591.4
1399.31	87.3	6521.9
1399.36	87.25	5666.32
1399.41	87.2	4859.3
1399.46	87.15	4233.15
1399.51	87.1	3676.47
1399.56	87.05	3296.25
1399.61	87	2972.3
1399.66	86.95	2681.92
1399.71	86.9	2469.05
1399.76	86.85	2305.32
1399.81	86.8	2152.61
1399.86	86.75	2043.57
1399.91	86.7	1961.6
1399.96	86.65	1850.04
1400.01	86.6	1804.06
1400.06	86.55	1769.16
1400.11	86.5	1697.82
1400.16	86.45	1671.94
1400.21	86.4	1629.37
1400.26	86.35	1566.63
1400.31	86.3	1559.18
1400.36	86.25	1552.08
1400.41	86.2	1520.27
1400.46	86.15	1521.43
1400.51	86.1	1514.88
1400.56	86.05	1477.19
1400.61	86	1479.65
1400.66	85.95	1503.19
1400.71	85.9	1508.46
1400.76	85.85	1522.6
1400.81	85.8	1552.74
1400.86	85.75	1550.94
1400.91	85.7	1590.12
1400.96	85.65	1625.23
1401.01	85.6	1664.52
1401.06	85.55	1704.28
1401.11	85.5	1765.87
1401.16	85.45	1836.81
1401.21	85.4	1902.69
1401.26	85.35	2005.3
1401.31	85.3	2109.47
1401.36	85.25	2189.86
1401.41	85.2	2340.78
1401.46	85.15	2528.3
1401.51	85.1	2697.25
1401.56	85.05	2902.6
1401.61	85	3157.45
1401.66	84.95	3463.82
1401.71	84.9	3810.45
1401.76	84.85	4209.27
1401.81	84.8	4782.2
1401.86	84.75	5357.68
1401.91	84.7	5976
1401.96	84.65	6749.57
1402.01	84.6	7645.32
1402.06	84.55	8627.5
1402.11	84.5	9661.17
1402.16	84.45	10838.6
1402.21	84.4	12211.4
1402.26	84.35	13494.6
1402.31	84.3	14775
1402.36	84.25	16024
1402.41	84.2	17190.2
1402.46	84.15	18020.5
1402.51	84.1	18522.1
1402.56	84.05	18589.2
1402.61	84	18184.2
1402.66	83.95	17299.7
1402.71	83.9	16150.5
1402.76	83.85	14614.9
1402.81	83.8	12923.4
1402.86	83.75	11251.2
1402.91	83.7	9596.92
1402.96	83.65	8045.65
1403.01	83.6	6804.57
1403.06	83.55	5721.57
1403.11	83.5	4785.82
1403.16	83.45	4066.63
1403.21	83.4	3417.55
1403.26	83.35	2907.3
1403.31	83.3	2521.8
1403.36	83.25	2211.85
1403.41	83.2	1934.7
1403.46	83.15	1741.73
1403.51	83.1	1602.56
1403.56	83.05	1454.52
1403.61	83	1318.04
1403.66	82.95	1212.67
1403.71	82.9	1135.85
1403.76	82.85	1085.06
1403.81	82.8	1007.4
1403.86	82.75	964.643
1403.91	82.7	901.955
1403.96	82.65	860.367
1404.01	82.6	824.908
1404.06	82.55	801.545
1404.11	82.5	761.008
1404.16	82.45	739.227
1404.21	82.4	724.373
1404.26	82.35	704.305
1404.31	82.3	673.365
1404.36	82.25	650.7
1404.41	82.2	635.165
1404.46	82.15	616.58
1404.51	82.1	607.662
1404.56	82.05	613.4
1404.61	82	601.902
1404.66	81.95	584.715
1404.71	81.9	571.745
1404.76	81.85	552.28
1404.81	81.8	532.952
1404.86	81.75	537.555
1404.91	81.7	536.625
1404.96	81.65	513.957
1405.01	81.6	505.717
1405.06	81.55	504.375
1405.11	81.5	505.92
1405.16	81.45	499.767
1405.21	81.4	489.202
1405.26	81.35	493.89
1405.31	81.3	495.3
1405.36	81.25	475.165
1405.41	81.2	478.65
1405.46	81.15	471.67
1405.51	81.1	462.163
1405.56	81.05	451.932
1405.61	81	452.19
1405.66	80.95	454.368
1405.71	80.9	440.47
1405.76	80.85	435.38
1405.81	80.8	433.54
1405.86	80.75	443.702
1405.91	80.7	438.32
1405.96	80.65	430.928
1406.01	80.6	410.92
1406.06	80.55	417.5
1406.11	80.5	420.725
1406.16	80.45	416.927
1406.21	80.4	429.245
1406.26	80.35	414.92
1406.31	80.3	415.745
1406.36	80.25	406.108
1406.41	80.2	412.047
1406.46	80.15	408.275
1406.51	80.1	406.49
1406.56	80.05	408.065
1406.61	80	399.995
1406.66	79.95	394.52
1406.71	79.9	401.153
1406.76	79.85	395.737
1406.81	79.8	397.147
1406.86	79.75	399.827
1406.91	79.7	389.12
1406.96	79.65	400.705
1407.01	79.6	405.96
1407.06	79.55	411.762
1407.11	79.5	401.887
1407.16	79.45	388.612
1407.21	79.4	389.652
1407.26	79.35	385.805
1407.31	79.3	378.145
1407.36	79.25	382.332
1407.41	79.2	383.368
1407.46	79.15	383.772
1407.51	79.1	380.07
1407.56	79.05	384.65
1407.61	79	380.408
1407.66	78.95	373.782
1407.71	78.9	370.767
1407.76	78.85	381.965
1407.81	78.8	385.007
1407.86	78.75	382.235
1407.91	78.7	375.067
1407.96	78.65	387.923
1408.01	78.6	384.527
1408.06	78.55	377.757
1408.11	78.5	374.332
1408.16	78.45	371.535
1408.21	78.4	384.652
1408.26	78.35	380.922
1408.31	78.3	370.72
1408.36	78.25	380.253
1408.41	78.2	382.805
1408.46	78.15	378.282
1408.51	78.1	375.115
1408.56	78.05	379.597
1408.61	78	383.75
1408.66	77.95	373.75
1408.71	77.9	372.478
1408.76	77.85	368.45
1408.81	77.8	365.112
1408.86	77.75	370.1
1408.91	77.7	365.387
1408.96	77.65	384.452
1409.01	77.6	372.447
1409.06	77.55	367.805
1409.11	77.5	389.477
1409.16	77.45	381.27
1409.21	77.4	372.97
1409.26	77.35	374.345
1409.31	77.3	380.21
1409.36	77.25	384.717
1409.41	77.2	375.367
1409.46	77.15	373.277
1409.51	77.1	379.682
1409.56	77.05	371.675
1409.61	77	362.48
1409.66	76.95	364.85
1409.71	76.9	360.197
1409.76	76.85	372.103
1409.81	76.8	368.188
1409.86	76.75	370.187
1409.91	76.7	369.243
1409.96	76.65	364.072
1410.01	76.6	377.04
1410.06	76.55	382.197
1410.11	76.5	380.25
1410.16	76.45	374.075
1410.21	76.4	372.645
1410.26	76.35	382.36
1410.31	76.3	372.13
1410.36	76.25	375.832
1410.41	76.2	375.928
1410.46	76.15	380.022
1410.51	76.1	371.692
1410.56	76.05	375.535
1410.61	76	371.11
1410.66	75.95	386.827
1410.71	75.9	392.81
1410.76	75.85	389.947
1410.81	75.8	385.93
1410.86	75.75	375.493
1410.91	75.7	384.188
1410.96	75.65	387.575
1411.01	75.6	394.85
1411.06	75.55	380.692
1411.11	75.5	387.637
1411.16	75.45	385.187
1411.21	75.4	392.27
1411.26	75.35	393.447
1411.31	75.3	390.76
1411.36	75.25	398.625
1411.41	75.2	388.84
1411.46	75.15	392.683
1411.51	75.1	394.405
1411.56	75.05	378.35
1411.61	75	380.89