c:\users\mark\owncloud\muelheim group\projects\gas phase background\ex191_cec356 au in he_1200um.vms
Au4f
	Characteristic Energy eV	1486.61	Acquisition Time s	0.4
KE_Au4f	BE_Au4f	CPS_Au4f
1306.61	180	5498.52
1306.66	179.95	5476.75
1306.71	179.9	5463.5
1306.76	179.85	5504.87
1306.81	179.8	5476.48
1306.86	179.75	5469.4
1306.91	179.7	5462.75
1306.96	179.65	5488.37
1307.01	179.6	5481.43
1307.06	179.55	5466.72
1307.11	179.5	5463.55
1307.16	179.45	5480.63
1307.21	179.4	5484.07
1307.26	179.35	5486.45
1307.31	179.3	5492.07
1307.36	179.25	5477.7
1307.41	179.2	5495.65
1307.46	179.15	5490.97
1307.51	179.1	5508.13
1307.56	179.05	5514.47
1307.61	179	5489.02
1307.66	178.95	5506.4
1307.71	178.9	5482.82
1307.76	178.85	5524
1307.81	178.8	5494.72
1307.86	178.75	5478.98
1307.91	178.7	5508.93
1307.96	178.65	5518.82
1308.01	178.6	5512.27
1308.06	178.55	5533.15
1308.11	178.5	5533.45
1308.16	178.45	5526.43
1308.21	178.4	5499.75
1308.26	178.35	5488.35
1308.31	178.3	5486.77
1308.36	178.25	5520.15
1308.41	178.2	5531.02
1308.46	178.15	5530.52
1308.51	178.1	5523.45
1308.56	178.05	5469.55
1308.61	178	5502
1308.66	177.95	5490.38
1308.71	177.9	5515.77
1308.76	177.85	5519.15
1308.81	177.8	5550.18
1308.86	177.75	5515.43
1308.91	177.7	5522.42
1308.96	177.65	5486.2
1309.01	177.6	5503.4
1309.06	177.55	5498.17
1309.11	177.5	5516.07
1309.16	177.45	5517.55
1309.21	177.4	5524.4
1309.26	177.35	5508.95
1309.31	177.3	5477.53
1309.36	177.25	5475.67
1309.41	177.2	5526.57
1309.46	177.15	5521.92
1309.51	177.1	5548.05
1309.56	177.05	5533.57
1309.61	177	5495.32
1309.66	176.95	5529.2
1309.71	176.9	5578.67
1309.76	176.85	5569.47
1309.81	176.8	5569.4
1309.86	176.75	5558.88
1309.91	176.7	5545.3
1309.96	176.65	5523.47
1310.01	176.6	5538.05
1310.06	176.55	5579.82
1310.11	176.5	5542.05
1310.16	176.45	5568.5
1310.21	176.4	5525.25
1310.26	176.35	5505.27
1310.31	176.3	5560.3
1310.36	176.25	5533.35
1310.41	176.2	5537.82
1310.46	176.15	5534.82
1310.51	176.1	5537.53
1310.56	176.05	5541.75
1310.61	176	5538.45
1310.66	175.95	5549.35
1310.71	175.9	5547.8
1310.76	175.85	5590.57
1310.81	175.8	5595.52
1310.86	175.75	5592.5
1310.91	175.7	5603.98
1310.96	175.65	5569.52
1311.01	175.6	5561.65
1311.06	175.55	5573.95
1311.11	175.5	5559.27
1311.16	175.45	5529.92
1311.21	175.4	5578.9
1311.26	175.35	5594.32
1311.31	175.3	5605.4
1311.36	175.25	5569.13
1311.41	175.2	5598.05
1311.46	175.15	5550.55
1311.51	175.1	5539.47
1311.56	175.05	5591.05
1311.61	175	5569.95
1311.66	174.95	5539.2
1311.71	174.9	5569.5
1311.76	174.85	5559.72
1311.81	174.8	5548.22
1311.86	174.75	5577.82
1311.91	174.7	5611.22
1311.96	174.65	5580.25
1312.01	174.6	5595.82
1312.06	174.55	5585.6
1312.11	174.5	5557.05
1312.16	174.45	5589.25
1312.21	174.4	5630.7
1312.26	174.35	5610.03
1312.31	174.3	5603.42
1312.36	174.25	5603.7
1312.41	174.2	5595.15
1312.46	174.15	5549.35
1312.51	174.1	5566.65
1312.56	174.05	5556
1312.61	174	5590.85
1312.66	173.95	5570.52
1312.71	173.9	5573
1312.76	173.85	5610.07
1312.81	173.8	5607.8
1312.86	173.75	5556.82
1312.91	173.7	5586.4
1312.96	173.65	5605.75
1313.01	173.6	5608.55
1313.06	173.55	5571.63
1313.11	173.5	5597.3
1313.16	173.45	5626.95
1313.21	173.4	5610.77
1313.26	173.35	5599.72
1313.31	173.3	5597.65
1313.36	173.25	5562.75
1313.41	173.2	5593.72
1313.46	173.15	5623.88
1313.51	173.1	5616.82
1313.56	173.05	5575.07
1313.61	173	5610.1
1313.66	172.95	5584.45
1313.71	172.9	5621.12
1313.76	172.85	5586.68
1313.81	172.8	5595.23
1313.86	172.75	5586.48
1313.91	172.7	5633.98
1313.96	172.65	5615.18
1314.01	172.6	5620.65
1314.06	172.55	5609.92
1314.11	172.5	5613.37
1314.16	172.45	5618.27
1314.21	172.4	5654.05
1314.26	172.35	5646.43
1314.31	172.3	5595.1
1314.36	172.25	5584.15
1314.41	172.2	5619.2
1314.46	172.15	5624.35
1314.51	172.1	5573.88
1314.56	172.05	5606.15
1314.61	172	5637.37
1314.66	171.95	5672.3
1314.71	171.9	5623.93
1314.76	171.85	5615.35
1314.81	171.8	5625.52
1314.86	171.75	5594.32
1314.91	171.7	5626.1
1314.96	171.65	5624.85
1315.01	171.6	5600.2
1315.06	171.55	5647.93
1315.11	171.5	5622.88
1315.16	171.45	5598.32
1315.21	171.4	5629.13
1315.26	171.35	5615.9
1315.31	171.3	5598.13
1315.36	171.25	5620.18
1315.41	171.2	5645.55
1315.46	171.15	5612.57
1315.51	171.1	5633.35
1315.56	171.05	5613.13
1315.61	171	5642.88
1315.66	170.95	5670.75
1315.71	170.9	5621.82
1315.76	170.85	5665.52
1315.81	170.8	5675.77
1315.86	170.75	5619.65
1315.91	170.7	5596.4
1315.96	170.65	5623.3
1316.01	170.6	5640
1316.06	170.55	5622.8
1316.11	170.5	5609.27
1316.16	170.45	5615.03
1316.21	170.4	5633.5
1316.26	170.35	5611.5
1316.31	170.3	5637.73
1316.36	170.25	5641.17
1316.41	170.2	5605.8
1316.46	170.15	5629.47
1316.51	170.1	5635.63
1316.56	170.05	5651.97
1316.61	170	5649.72
1316.66	169.95	5641.7
1316.71	169.9	5646.95
1316.76	169.85	5645.45
1316.81	169.8	5641.4
1316.86	169.75	5657.15
1316.91	169.7	5677.25
1316.96	169.65	5654.2
1317.01	169.6	5659
1317.06	169.55	5649.72
1317.11	169.5	5664.38
1317.16	169.45	5658.42
1317.21	169.4	5692.82
1317.26	169.35	5662.6
1317.31	169.3	5647.45
1317.36	169.25	5638.47
1317.41	169.2	5634.25
1317.46	169.15	5685.05
1317.51	169.1	5614.92
1317.56	169.05	5649.85
1317.61	169	5648.62
1317.66	168.95	5610.52
1317.71	168.9	5617.63
1317.76	168.85	5677.35
1317.81	168.8	5722.65
1317.86	168.75	5718.82
1317.91	168.7	5663.35
1317.96	168.65	5678.4
1318.01	168.6	5670.2
1318.06	168.55	5627.45
1318.11	168.5	5661.7
1318.16	168.45	5625.8
1318.21	168.4	5610.47
1318.26	168.35	5665.43
1318.31	168.3	5637.88
1318.36	168.25	5659.15
1318.41	168.2	5659.42
1318.46	168.15	5690.65
1318.51	168.1	5695.23
1318.56	168.05	5683.4
1318.61	168	5711.68
1318.66	167.95	5722.2
1318.71	167.9	5669.1
1318.76	167.85	5704.87
1318.81	167.8	5661.45
1318.86	167.75	5690.1
1318.91	167.7	5659.42
1318.96	167.65	5695.2
1319.01	167.6	5664.22
1319.06	167.55	5649.57
1319.11	167.5	5681.22
1319.16	167.45	5664.62
1319.21	167.4	5682.47
1319.26	167.35	5662.35
1319.31	167.3	5630.65
1319.36	167.25	5650.77
1319.41	167.2	5626.75
1319.46	167.15	5657.57
1319.51	167.1	5657.95
1319.56	167.05	5679.02
1319.61	167	5723.35
1319.66	166.95	5692.88
1319.71	166.9	5668.9
1319.76	166.85	5687.47
1319.81	166.8	5716.52
1319.86	166.75	5672.57
1319.91	166.7	5691.63
1319.96	166.65	5664.52
1320.01	166.6	5668.1
1320.06	166.55	5659
1320.11	166.5	5648.9
1320.16	166.45	5675.38
1320.21	166.4	5676
1320.26	166.35	5735.43
1320.31	166.3	5689.62
1320.36	166.25	5662.77
1320.41	166.2	5682.4
1320.46	166.15	5705
1320.51	166.1	5697.88
1320.56	166.05	5699.52
1320.61	166	5702.27
1320.66	165.95	5710.47
1320.71	165.9	5714.57
1320.76	165.85	5715.75
1320.81	165.8	5702.88
1320.86	165.75	5706.65
1320.91	165.7	5683.27
1320.96	165.65	5718.72
1321.01	165.6	5718.1
1321.06	165.55	5728.78
1321.11	165.5	5710.6
1321.16	165.45	5723.62
1321.21	165.4	5713.57
1321.26	165.35	5731.05
1321.31	165.3	5711.82
1321.36	165.25	5714.38
1321.41	165.2	5756.92
1321.46	165.15	5678
1321.51	165.1	5692.25
1321.56	165.05	5736.02
1321.61	165	5695.45
1321.66	164.95	5708.8
1321.71	164.9	5718.32
1321.76	164.85	5697.95
1321.81	164.8	5703.45
1321.86	164.75	5737.8
1321.91	164.7	5714.8
1321.96	164.65	5717.12
1322.01	164.6	5738.25
1322.06	164.55	5719.87
1322.11	164.5	5702.53
1322.16	164.45	5734.07
1322.21	164.4	5720.77
1322.26	164.35	5675.6
1322.31	164.3	5691.5
1322.36	164.25	5728.72
1322.41	164.2	5778.05
1322.46	164.15	5732.42
1322.51	164.1	5697.8
1322.56	164.05	5728.55
1322.61	164	5760.95
1322.66	163.95	5721.4
1322.71	163.9	5720
1322.76	163.85	5729.97
1322.81	163.8	5734.42
1322.86	163.75	5741.85
1322.91	163.7	5716.82
1322.96	163.65	5742.95
1323.01	163.6	5785.3
1323.06	163.55	5790.23
1323.11	163.5	5776.75
1323.16	163.45	5731.57
1323.21	163.4	5736.43
1323.26	163.35	5708.72
1323.31	163.3	5765.35
1323.36	163.25	5752.5
1323.41	163.2	5743.62
1323.46	163.15	5732.37
1323.51	163.1	5763.85
1323.56	163.05	5742.68
1323.61	163	5787.75
1323.66	162.95	5757.6
1323.71	162.9	5759.85
1323.76	162.85	5760.63
1323.81	162.8	5739.85
1323.86	162.75	5717.85
1323.91	162.7	5742.68
1323.96	162.65	5779.65
1324.01	162.6	5806.77
1324.06	162.55	5790.3
1324.11	162.5	5768.72
1324.16	162.45	5747.9
1324.21	162.4	5737.05
1324.26	162.35	5755.92
1324.31	162.3	5773.4
1324.36	162.25	5789.9
1324.41	162.2	5821.2
1324.46	162.15	5800.43
1324.51	162.1	5800.65
1324.56	162.05	5810.47
1324.61	162	5783.27
1324.66	161.95	5800.13
1324.71	161.9	5785.57
1324.76	161.85	5771.97
1324.81	161.8	5803.82
1324.86	161.75	5776.1
1324.91	161.7	5779.77
1324.96	161.65	5826.52
1325.01	161.6	5794.3
1325.06	161.55	5777.5
1325.11	161.5	5811.5
1325.16	161.45	5796.5
1325.21	161.4	5767.5
1325.26	161.35	5783.07
1325.31	161.3	5806.25
1325.36	161.25	5773.13
1325.41	161.2	5811.2
1325.46	161.15	5810.72
1325.51	161.1	5817.97
1325.56	161.05	5827.45
1325.61	161	5841.28
1325.66	160.95	5823.7
1325.71	160.9	5800.95
1325.76	160.85	5817.22
1325.81	160.8	5792.88
1325.86	160.75	5792.3
1325.91	160.7	5772.32
1325.96	160.65	5805.1
1326.01	160.6	5800.52
1326.06	160.55	5759.85
1326.11	160.5	5807.42
1326.16	160.45	5804.2
1326.21	160.4	5819.82
1326.26	160.35	5805.6
1326.31	160.3	5815.97
1326.36	160.25	5809.22
1326.41	160.2	5806.52
1326.46	160.15	5771.17
1326.51	160.1	5820.87
1326.56	160.05	5838.47
1326.61	160	5797.07
1326.66	159.95	5801.68
1326.71	159.9	5827.22
1326.76	159.85	5813.05
1326.81	159.8	5813.05
1326.86	159.75	5843.07
1326.91	159.7	5841.05
1326.96	159.65	5812.42
1327.01	159.6	5832.95
1327.06	159.55	5797.68
1327.11	159.5	5837.32
1327.16	159.45	5820.35
1327.21	159.4	5814.3
1327.26	159.35	5799.57
1327.31	159.3	5834.27
1327.36	159.25	5833.95
1327.41	159.2	5847.15
1327.46	159.15	5873.82
1327.51	159.1	5843.35
1327.56	159.05	5790.7
1327.61	159	5791.55
1327.66	158.95	5826.57
1327.71	158.9	5829.35
1327.76	158.85	5833.25
1327.81	158.8	5841.52
1327.86	158.75	5860.75
1327.91	158.7	5836.82
1327.96	158.65	5871
1328.01	158.6	5869.97
1328.06	158.55	5866.28
1328.11	158.5	5815.65
1328.16	158.45	5838.78
1328.21	158.4	5886.12
1328.26	158.35	5846.55
1328.31	158.3	5855.32
1328.36	158.25	5844.3
1328.41	158.2	5812.3
1328.46	158.15	5825.95
1328.51	158.1	5848.22
1328.56	158.05	5875.52
1328.61	158	5874
1328.66	157.95	5848.88
1328.71	157.9	5871.02
1328.76	157.85	5867.55
1328.81	157.8	5866.32
1328.86	157.75	5880.75
1328.91	157.7	5873.82
1328.96	157.65	5849.9
1329.01	157.6	5867.07
1329.06	157.55	5842.82
1329.11	157.5	5861.17
1329.16	157.45	5885.25
1329.21	157.4	5878.37
1329.26	157.35	5906.43
1329.31	157.3	5860.55
1329.36	157.25	5880.87
1329.41	157.2	5874.62
1329.46	157.15	5882.2
1329.51	157.1	5872.53
1329.56	157.05	5850.77
1329.61	157	5873.52
1329.66	156.95	5854.95
1329.71	156.9	5868.32
1329.76	156.85	5887.25
1329.81	156.8	5865.25
1329.86	156.75	5882.68
1329.91	156.7	5917.05
1329.96	156.65	5910.9
1330.01	156.6	5891.45
1330.06	156.55	5890
1330.11	156.5	5908.75
1330.16	156.45	5907.45
1330.21	156.4	5904.02
1330.26	156.35	5876.75
1330.31	156.3	5855.72
1330.36	156.25	5877.47
1330.41	156.2	5896.8
1330.46	156.15	5921.07
1330.51	156.1	5917.95
1330.56	156.05	5903.35
1330.61	156	5925.1
1330.66	155.95	5909.4
1330.71	155.9	5889.05
1330.76	155.85	5905.3
1330.81	155.8	5908.7
1330.86	155.75	5901.3
1330.91	155.7	5897.68
1330.96	155.65	5929.6
1331.01	155.6	5890.52
1331.06	155.55	5927.12
1331.11	155.5	5936.43
1331.16	155.45	5932.6
1331.21	155.4	5954.1
1331.26	155.35	5957.57
1331.31	155.3	5971.05
1331.36	155.25	5918.1
1331.41	155.2	5932
1331.46	155.15	5937.47
1331.51	155.1	5928.45
1331.56	155.05	5958.8
1331.61	155	5930.92
1331.66	154.95	5967.2
1331.71	154.9	5960.6
1331.76	154.85	5935.75
1331.81	154.8	5936.9
1331.86	154.75	5921.1
1331.91	154.7	5927
1331.96	154.65	5951.05
1332.01	154.6	5963.32
1332.06	154.55	5972.85
1332.11	154.5	5942.37
1332.16	154.45	5956.17
1332.21	154.4	5944.27
1332.26	154.35	5982.53
1332.31	154.3	5928.37
1332.36	154.25	5945.92
1332.41	154.2	5974.5
1332.46	154.15	5969.92
1332.51	154.1	5940.63
1332.56	154.05	5973.95
1332.61	154	5983.1
1332.66	153.95	5991.07
1332.71	153.9	5940.82
1332.76	153.85	5957.7
1332.81	153.8	6000.85
1332.86	153.75	5997.8
1332.91	153.7	5975.05
1332.96	153.65	5967.3
1333.01	153.6	5973.35
1333.06	153.55	5964.55
1333.11	153.5	5991.43
1333.16	153.45	5977.73
1333.21	153.4	5938.02
1333.26	153.35	5985.07
1333.31	153.3	5983.25
1333.36	153.25	6001.92
1333.41	153.2	6012.82
1333.46	153.15	6003.72
1333.51	153.1	6001.1
1333.56	153.05	6018.52
1333.61	153	5991.17
1333.66	152.95	6012.55
1333.71	152.9	6021.43
1333.76	152.85	6016.8
1333.81	152.8	6000.23
1333.86	152.75	6000.18
1333.91	152.7	5955.97
1333.96	152.65	5989.97
1334.01	152.6	6008.82
1334.06	152.55	6009.65
1334.11	152.5	5995.82
1334.16	152.45	6006.28
1334.21	152.4	6000.9
1334.26	152.35	6038.07
1334.31	152.3	5995.95
1334.36	152.25	6025.97
1334.41	152.2	6019.18
1334.46	152.15	6062.32
1334.51	152.1	6056.3
1334.56	152.05	5998.93
1334.61	152	6016.02
1334.66	151.95	6000.35
1334.71	151.9	5998.32
1334.76	151.85	6002.35
1334.81	151.8	6037.77
1334.86	151.75	5993.35
1334.91	151.7	6024.1
1334.96	151.65	5988.5
1335.01	151.6	6012.93
1335.06	151.55	6048.13
1335.11	151.5	6002.8
1335.16	151.45	6002.88
1335.21	151.4	5986.68
1335.26	151.35	6029.67
1335.31	151.3	6075.35
1335.36	151.25	6033.5
1335.41	151.2	6049.18
1335.46	151.15	6037.97
1335.51	151.1	6027.22
1335.56	151.05	5989.3
1335.61	151	6004.8
1335.66	150.95	6028.85
1335.71	150.9	6027.47
1335.76	150.85	6033.22
1335.81	150.8	6053.52
1335.86	150.75	6076.38
1335.91	150.7	6072.15
1335.96	150.65	6032.97
1336.01	150.6	6055.55
1336.06	150.55	6066.45
1336.11	150.5	6088.8
1336.16	150.45	6072.32
1336.21	150.4	6065.38
1336.26	150.35	6067.3
1336.31	150.3	6066.28
1336.36	150.25	6057.17
1336.41	150.2	6117.95
1336.46	150.15	6070.97
1336.51	150.1	6086.07
1336.56	150.05	6044.67
1336.61	150	6053.05
1336.66	149.95	6079.87
1336.71	149.9	6067.68
1336.76	149.85	6081.82
1336.81	149.8	6086.75
1336.86	149.75	6071.52
1336.91	149.7	6078.7
1336.96	149.65	6065.45
1337.01	149.6	6073.17
1337.06	149.55	6089.57
1337.11	149.5	6092.27
1337.16	149.45	6050.47
1337.21	149.4	6071.35
1337.26	149.35	6053.47
1337.31	149.3	6113.42
1337.36	149.25	6135.97
1337.41	149.2	6089.8
1337.46	149.15	6074.57
1337.51	149.1	6102.53
1337.56	149.05	6074.9
1337.61	149	6095.38
1337.66	148.95	6094.72
1337.71	148.9	6094.07
1337.76	148.85	6108.88
1337.81	148.8	6107.75
1337.86	148.75	6067.85
1337.91	148.7	6085.35
1337.96	148.65	6087.47
1338.01	148.6	6096.82
1338.06	148.55	6112.15
1338.11	148.5	6085.63
1338.16	148.45	6086.25
1338.21	148.4	6109.13
1338.26	148.35	6090.82
1338.31	148.3	6093.13
1338.36	148.25	6089.87
1338.41	148.2	6090.55
1338.46	148.15	6112.7
1338.51	148.1	6134.8
1338.56	148.05	6104.38
1338.61	148	6153.2
1338.66	147.95	6148.22
1338.71	147.9	6105.55
1338.76	147.85	6119.42
1338.81	147.8	6141.8
1338.86	147.75	6086.12
1338.91	147.7	6152.15
1338.96	147.65	6113.13
1339.01	147.6	6133.02
1339.06	147.55	6135.77
1339.11	147.5	6119.72
1339.16	147.45	6116.57
1339.21	147.4	6088.65
1339.26	147.35	6156
1339.31	147.3	6133.22
1339.36	147.25	6108.88
1339.41	147.2	6136.25
1339.46	147.15	6139.5
1339.51	147.1	6146.92
1339.56	147.05	6166.2
1339.61	147	6107.05
1339.66	146.95	6131.1
1339.71	146.9	6146.72
1339.76	146.85	6161.32
1339.81	146.8	6112.37
1339.86	146.75	6127.15
1339.91	146.7	6133.95
1339.96	146.65	6133.3
1340.01	146.6	6139.3
1340.06	146.55	6145.25
1340.11	146.5	6132.95
1340.16	146.45	6155.1
1340.21	146.4	6116.9
1340.26	146.35	6150.25
1340.31	146.3	6126.32
1340.36	146.25	6145.47
1340.41	146.2	6127.25
1340.46	146.15	6143.72
1340.51	146.1	6146.72
1340.56	146.05	6138.8
1340.61	146	6140.15
1340.66	145.95	6143.55
1340.71	145.9	6154.67
1340.76	145.85	6130.75
1340.81	145.8	6146.75
1340.86	145.75	6155.25
1340.91	145.7	6169.67
1340.96	145.65	6166.28
1341.01	145.6	6145.43
1341.06	145.55	6117.88
1341.11	145.5	6126.85
1341.16	145.45	6167.47
1341.21	145.4	6175.5
1341.26	145.35	6168.65
1341.31	145.3	6180.82
1341.36	145.25	6155.95
1341.41	145.2	6150.27
1341.46	145.15	6141.05
1341.51	145.1	6131.07
1341.56	145.05	6130.9
1341.61	145	6159.8
1341.66	144.95	6155.5
1341.71	144.9	6151.92
1341.76	144.85	6142.07
1341.81	144.8	6155.85
1341.86	144.75	6150.4
1341.91	144.7	6110
1341.96	144.65	6140.05
1342.01	144.6	6143.85
1342.06	144.55	6178.95
1342.11	144.5	6148
1342.16	144.45	6141.32
1342.21	144.4	6162.6
1342.26	144.35	6173.07
1342.31	144.3	6179.32
1342.36	144.25	6148.82
1342.41	144.2	6159.6
1342.46	144.15	6108.42
1342.51	144.1	6154.27
1342.56	144.05	6144.65
1342.61	144	6179.02
1342.66	143.95	6153.42
1342.71	143.9	6144.22
1342.76	143.85	6124.97
1342.81	143.8	6184.75
1342.86	143.75	6142.6
1342.91	143.7	6168.25
1342.96	143.65	6159.92
1343.01	143.6	6131.9
1343.06	143.55	6202.47
1343.11	143.5	6216.68
1343.16	143.45	6140.07
1343.21	143.4	6170.1
1343.26	143.35	6180.8
1343.31	143.3	6181.45
1343.36	143.25	6212.02
1343.41	143.2	6174.45
1343.46	143.15	6151.95
1343.51	143.1	6206.95
1343.56	143.05	6220.03
1343.61	143	6206.57
1343.66	142.95	6157.6
1343.71	142.9	6189.13
1343.76	142.85	6170.15
1343.81	142.8	6170.27
1343.86	142.75	6150.1
1343.91	142.7	6212.63
1343.96	142.65	6206.5
1344.01	142.6	6197.05
1344.06	142.55	6186
1344.11	142.5	6200.7
1344.16	142.45	6213.1
1344.21	142.4	6205.13
1344.26	142.35	6174
1344.31	142.3	6194.82
1344.36	142.25	6189.72
1344.41	142.2	6212.53
1344.46	142.15	6150.9
1344.51	142.1	6199.4
1344.56	142.05	6218.62
1344.61	142	6196.77
1344.66	141.95	6200.13
1344.71	141.9	6252.42
1344.76	141.85	6222.12
1344.81	141.8	6241.3
1344.86	141.75	6234.95
1344.91	141.7	6211.8
1344.96	141.65	6194.22
1345.01	141.6	6178.15
1345.06	141.55	6184.13
1345.11	141.5	6162.57
1345.16	141.45	6211.45
1345.21	141.4	6230.3
1345.26	141.35	6163.3
1345.31	141.3	6191.68
1345.36	141.25	6239.7
1345.41	141.2	6199.52
1345.46	141.15	6218.82
1345.51	141.1	6232.6
1345.56	141.05	6259.45
1345.61	141	6213.82
1345.66	140.95	6197.55
1345.71	140.9	6188.72
1345.76	140.85	6214.85
1345.81	140.8	6216.45
1345.86	140.75	6201.55
1345.91	140.7	6232.2
1345.96	140.65	6179
1346.01	140.6	6221.6
1346.06	140.55	6250.65
1346.11	140.5	6278.7
1346.16	140.45	6260.3
1346.21	140.4	6264.45
1346.26	140.35	6242.05
1346.31	140.3	6215.75
1346.36	140.25	6252.97
1346.41	140.2	6235.55
1346.46	140.15	6237.93
1346.51	140.1	6262.85
1346.56	140.05	6261.97
1346.61	140	6257.88
1346.66	139.95	6240.47
1346.71	139.9	6251.35
1346.76	139.85	6230.57
1346.81	139.8	6234.22
1346.86	139.75	6280.38
1346.91	139.7	6250.9
1346.96	139.65	6262.35
1347.01	139.6	6273.25
1347.06	139.55	6276.5
1347.11	139.5	6291.4
1347.16	139.45	6287.82
1347.21	139.4	6292.12
1347.26	139.35	6287.27
1347.31	139.3	6254.47
1347.36	139.25	6291.6
1347.41	139.2	6273.37
1347.46	139.15	6267.15
1347.51	139.1	6266.22
1347.56	139.05	6250.5
1347.61	139	6282.25
1347.66	138.95	6298.07
1347.71	138.9	6243.72
1347.76	138.85	6267.75
1347.81	138.8	6329.05
1347.86	138.75	6274.75
1347.91	138.7	6247.88
1347.96	138.65	6273.22
1348.01	138.6	6246.9
1348.06	138.55	6250.35
1348.11	138.5	6259.45
1348.16	138.45	6219.27
1348.21	138.4	6251.72
1348.26	138.35	6341.02
1348.31	138.3	6294.87
1348.36	138.25	6315.9
1348.41	138.2	6251.3
1348.46	138.15	6257.5
1348.51	138.1	6271.68
1348.56	138.05	6303.17
1348.61	138	6306.85
1348.66	137.95	6277.93
1348.71	137.9	6297.35
1348.76	137.85	6315.47
1348.81	137.8	6345.23
1348.86	137.75	6289.75
1348.91	137.7	6256.12
1348.96	137.65	6265.6
1349.01	137.6	6296.45
1349.06	137.55	6298.25
1349.11	137.5	6322.35
1349.16	137.45	6336.8
1349.21	137.4	6292.63
1349.26	137.35	6340.9
1349.31	137.3	6348.75
1349.36	137.25	6345.43
1349.41	137.2	6353.4
1349.46	137.15	6322.95
1349.51	137.1	6280.65
1349.56	137.05	6297.45
1349.61	137	6337.2
1349.66	136.95	6370.03
1349.71	136.9	6349.42
1349.76	136.85	6326.5
1349.81	136.8	6324.87
1349.86	136.75	6287.32
1349.91	136.7	6311.92
1349.96	136.65	6350.2
1350.01	136.6	6367.55
1350.06	136.55	6325.05
1350.11	136.5	6342.2
1350.16	136.45	6300.2
1350.21	136.4	6348.15
1350.26	136.35	6336.22
1350.31	136.3	6341.35
1350.36	136.25	6325.43
1350.41	136.2	6345.5
1350.46	136.15	6319.8
1350.51	136.1	6371.28
1350.56	136.05	6340.92
1350.61	136	6346.02
1350.66	135.95	6368.05
1350.71	135.9	6368.45
1350.76	135.85	6398.27
1350.81	135.8	6398.62
1350.86	135.75	6370.3
1350.91	135.7	6342.45
1350.96	135.65	6312.32
1351.01	135.6	6355.03
1351.06	135.55	6336.2
1351.11	135.5	6373.02
1351.16	135.45	6392.1
1351.21	135.4	6361.48
1351.26	135.35	6355.25
1351.31	135.3	6356.88
1351.36	135.25	6364.95
1351.41	135.2	6404.4
1351.46	135.15	6382.25
1351.51	135.1	6368.32
1351.56	135.05	6356.8
1351.61	135	6369.45
1351.66	134.95	6391.02
1351.71	134.9	6369.05
1351.76	134.85	6408.32
1351.81	134.8	6398.2
1351.86	134.75	6391.38
1351.91	134.7	6402.9
1351.96	134.65	6366.95
1352.01	134.6	6454.1
1352.06	134.55	6398.8
1352.11	134.5	6412.1
1352.16	134.45	6418.45
1352.21	134.4	6411.52
1352.26	134.35	6386.82
1352.31	134.3	6375.38
1352.36	134.25	6369.07
1352.41	134.2	6382.1
1352.46	134.15	6353.6
1352.51	134.1	6380.27
1352.56	134.05	6408.25
1352.61	134	6416.02
1352.66	133.95	6419.45
1352.71	133.9	6379.7
1352.76	133.85	6399.5
1352.81	133.8	6390.65
1352.86	133.75	6386.25
1352.91	133.7	6418.22
1352.96	133.65	6419.02
1353.01	133.6	6399.05
1353.06	133.55	6397.37
1353.11	133.5	6437.07
1353.16	133.45	6404.52
1353.21	133.4	6447.45
1353.26	133.35	6412.07
1353.31	133.3	6409.62
1353.36	133.25	6460.32
1353.41	133.2	6433.52
1353.46	133.15	6415.57
1353.51	133.1	6422.88
1353.56	133.05	6448.78
1353.61	133	6428.35
1353.66	132.95	6461.77
1353.71	132.9	6389.22
1353.76	132.85	6434.8
1353.81	132.8	6451.68
1353.86	132.75	6395.92
1353.91	132.7	6449.7
1353.96	132.65	6463.78
1354.01	132.6	6439.13
1354.06	132.55	6475.7
1354.11	132.5	6461.97
1354.16	132.45	6451.85
1354.21	132.4	6455.7
1354.26	132.35	6439.2
1354.31	132.3	6501.85
1354.36	132.25	6473.35
1354.41	132.2	6441.12
1354.46	132.15	6468.27
1354.51	132.1	6465.95
1354.56	132.05	6423.13
1354.61	132	6471.82
1354.66	131.95	6482.15
1354.71	131.9	6492.47
1354.76	131.85	6473.62
1354.81	131.8	6464.05
1354.86	131.75	6534.77
1354.91	131.7	6494.47
1354.96	131.65	6478.25
1355.01	131.6	6522.7
1355.06	131.55	6478.78
1355.11	131.5	6448.62
1355.16	131.45	6482.2
1355.21	131.4	6512.3
1355.26	131.35	6527.4
1355.31	131.3	6500.05
1355.36	131.25	6441.07
1355.41	131.2	6460.15
1355.46	131.15	6484.32
1355.51	131.1	6550.35
1355.56	131.05	6513.72
1355.61	131	6510.18
1355.66	130.95	6498.85
1355.71	130.9	6459.25
1355.76	130.85	6488.67
1355.81	130.8	6502.22
1355.86	130.75	6512.3
1355.91	130.7	6530.07
1355.96	130.65	6550.95
1356.01	130.6	6503.15
1356.06	130.55	6479.47
1356.11	130.5	6516.97
1356.16	130.45	6495.2
1356.21	130.4	6542.75
1356.26	130.35	6550.35
1356.31	130.3	6525.3
1356.36	130.25	6495.85
1356.41	130.2	6542.32
1356.46	130.15	6539.05
1356.51	130.1	6518.93
1356.56	130.05	6557.68
1356.61	130	6532.22
1356.66	129.95	6524.95
1356.71	129.9	6563.42
1356.76	129.85	6528.22
1356.81	129.8	6567.42
1356.86	129.75	6547.6
1356.91	129.7	6558.75
1356.96	129.65	6572.7
1357.01	129.6	6553.15
1357.06	129.55	6530.23
1357.11	129.5	6542
1357.16	129.45	6575.85
1357.21	129.4	6514
1357.26	129.35	6526.35
1357.31	129.3	6557.65
1357.36	129.25	6574.3
1357.41	129.2	6533.2
1357.46	129.15	6532.85
1357.51	129.1	6557.1
1357.56	129.05	6521.85
1357.61	129	6528.8
1357.66	128.95	6547.63
1357.71	128.9	6517.42
1357.76	128.85	6571.77
1357.81	128.8	6577.82
1357.86	128.75	6555.2
1357.91	128.7	6585.32
1357.96	128.65	6590.38
1358.01	128.6	6584.5
1358.06	128.55	6569.02
1358.11	128.5	6581.07
1358.16	128.45	6573.52
1358.21	128.4	6577.47
1358.26	128.35	6597.63
1358.31	128.3	6585.23
1358.36	128.25	6578.67
1358.41	128.2	6611.63
1358.46	128.15	6610.7
1358.51	128.1	6598.65
1358.56	128.05	6607.57
1358.61	128	6596.17
1358.66	127.95	6597.37
1358.71	127.9	6601.12
1358.76	127.85	6627.05
1358.81	127.8	6623.65
1358.86	127.75	6676.12
1358.91	127.7	6611.8
1358.96	127.65	6599.47
1359.01	127.6	6607.25
1359.06	127.55	6630.92
1359.11	127.5	6621.88
1359.16	127.45	6590.87
1359.21	127.4	6628.47
1359.26	127.35	6646.97
1359.31	127.3	6600.18
1359.36	127.25	6636.88
1359.41	127.2	6627.25
1359.46	127.15	6613.07
1359.51	127.1	6671.05
1359.56	127.05	6660.18
1359.61	127	6637.88
1359.66	126.95	6680.85
1359.71	126.9	6654.02
1359.76	126.85	6694.38
1359.81	126.8	6685.52
1359.86	126.75	6627.93
1359.91	126.7	6645.43
1359.96	126.65	6645.25
1360.01	126.6	6665.92
1360.06	126.55	6675.65
1360.11	126.5	6707.82
1360.16	126.45	6669.13
1360.21	126.4	6691.68
1360.26	126.35	6698.4
1360.31	126.3	6681.9
1360.36	126.25	6724.8
1360.41	126.2	6662.2
1360.46	126.15	6730.03
1360.51	126.1	6681.25
1360.56	126.05	6673.05
1360.61	126	6659.52
1360.66	125.95	6667.07
1360.71	125.9	6721.55
1360.76	125.85	6687.3
1360.81	125.8	6712.07
1360.86	125.75	6690.65
1360.91	125.7	6729.82
1360.96	125.65	6690.82
1361.01	125.6	6707.1
1361.06	125.55	6731.88
1361.11	125.5	6710.85
1361.16	125.45	6699.65
1361.21	125.4	6724.85
1361.26	125.35	6744.02
1361.31	125.3	6727.05
1361.36	125.25	6720.9
1361.41	125.2	6743.07
1361.46	125.15	6742.9
1361.51	125.1	6742.7
1361.56	125.05	6736.3
1361.61	125	6720.03
1361.66	124.95	6765.07
1361.71	124.9	6745.07
1361.76	124.85	6799.38
1361.81	124.8	6757.63
1361.86	124.75	6771.2
1361.91	124.7	6792.6
1361.96	124.65	6748.3
1362.01	124.6	6784.5
1362.06	124.55	6814.02
1362.11	124.5	6778.37
1362.16	124.45	6811.57
1362.21	124.4	6814.92
1362.26	124.35	6805.05
1362.31	124.3	6857.73
1362.36	124.25	6850.03
1362.41	124.2	6833.8
1362.46	124.15	6829.13
1362.51	124.1	6829.35
1362.56	124.05	6859.77
1362.61	124	6860.05
1362.66	123.95	6856.05
1362.71	123.9	6847.42
1362.76	123.85	6843.07
1362.81	123.8	6883.25
1362.86	123.75	6878.9
1362.91	123.7	6873.17
1362.96	123.65	6861.25
1363.01	123.6	6872.7
1363.06	123.55	6858.78
1363.11	123.5	6876.7
1363.16	123.45	6883.82
1363.21	123.4	6896.68
1363.26	123.35	6870.05
1363.31	123.3	6915.97
1363.36	123.25	6904.57
1363.41	123.2	6870.27
1363.46	123.15	6903.27
1363.51	123.1	6945.8
1363.56	123.05	6925.7
1363.61	123	6917.15
1363.66	122.95	6895.67
1363.71	122.9	6922.22
1363.76	122.85	6943.55
1363.81	122.8	6896.07
1363.86	122.75	6935.5
1363.91	122.7	6953.88
1363.96	122.65	6942.73
1364.01	122.6	6953.52
1364.06	122.55	6973.4
1364.11	122.5	7001.95
1364.16	122.45	6965.38
1364.21	122.4	6968.17
1364.26	122.35	7031.7
1364.31	122.3	6959.77
1364.36	122.25	7008.65
1364.41	122.2	7010.3
1364.46	122.15	7030.77
1364.51	122.1	7024.8
1364.56	122.05	7011.5
1364.61	122	7042.1
1364.66	121.95	6980.3
1364.71	121.9	6989.22
1364.76	121.85	7017.37
1364.81	121.8	7047.8
1364.86	121.75	7033.05
1364.91	121.7	7035.55
1364.96	121.65	7049.7
1365.01	121.6	7096.55
1365.06	121.55	7053.78
1365.11	121.5	7095.55
1365.16	121.45	7042.07
1365.21	121.4	7026.12
1365.26	121.35	7066.68
1365.31	121.3	7060.03
1365.36	121.25	7019.38
1365.41	121.2	7070.03
1365.46	121.15	7112.17
1365.51	121.1	7094.4
1365.56	121.05	7097.27
1365.61	121	7080.77
1365.66	120.95	7088.82
1365.71	120.9	7064.15
1365.76	120.85	7098.15
1365.81	120.8	7101.7
1365.86	120.75	7096.57
1365.91	120.7	7117.3
1365.96	120.65	7105.1
1366.01	120.6	7104.02
1366.06	120.55	7159.3
1366.11	120.5	7107.3
1366.16	120.45	7099.95
1366.21	120.4	7108.98
1366.26	120.35	7176.48
1366.31	120.3	7155.23
1366.36	120.25	7140.38
1366.41	120.2	7175
1366.46	120.15	7162.15
1366.51	120.1	7151.75
1366.56	120.05	7128.85
1366.61	120	7149.67
1366.66	119.95	7145.13
1366.71	119.9	7226.3
1366.76	119.85	7146.92
1366.81	119.8	7165
1366.86	119.75	7131.43
1366.91	119.7	7135.5
1366.96	119.65	7152.93
1367.01	119.6	7144.92
1367.06	119.55	7189.92
1367.11	119.5	7197.93
1367.16	119.45	7167.7
1367.21	119.4	7229
1367.26	119.35	7206.12
1367.31	119.3	7182.73
1367.36	119.25	7151.28
1367.41	119.2	7145.38
1367.46	119.15	7201.52
1367.51	119.1	7208.6
1367.56	119.05	7177.75
1367.61	119	7218.13
1367.66	118.95	7281.05
1367.71	118.9	7232.57
1367.76	118.85	7236.32
1367.81	118.8	7219.38
1367.86	118.75	7213.37
1367.91	118.7	7207.9
1367.96	118.65	7243
1368.01	118.6	7207.27
1368.06	118.55	7209.6
1368.11	118.5	7169.97
1368.16	118.45	7233.62
1368.21	118.4	7206.17
1368.26	118.35	7202.9
1368.31	118.3	7208
1368.36	118.25	7209.75
1368.41	118.2	7256.43
1368.46	118.15	7207.47
1368.51	118.1	7229.25
1368.56	118.05	7224.18
1368.61	118	7247.7
1368.66	117.95	7272.63
1368.71	117.9	7232.73
1368.76	117.85	7259.52
1368.81	117.8	7241.45
1368.86	117.75	7260.9
1368.91	117.7	7248.85
1368.96	117.65	7250.97
1369.01	117.6	7217.22
1369.06	117.55	7251.55
1369.11	117.5	7281.75
1369.16	117.45	7323.47
1369.21	117.4	7257.35
1369.26	117.35	7231.05
1369.31	117.3	7227.27
1369.36	117.25	7271.75
1369.41	117.2	7298.98
1369.46	117.15	7284.55
1369.51	117.1	7283.72
1369.56	117.05	7312.77
1369.61	117	7297.35
1369.66	116.95	7261.43
1369.71	116.9	7317.47
1369.76	116.85	7317.45
1369.81	116.8	7296.97
1369.86	116.75	7313.2
1369.91	116.7	7270.67
1369.96	116.65	7255.45
1370.01	116.6	7301.5
1370.06	116.55	7345.38
1370.11	116.5	7324.1
1370.16	116.45	7315.15
1370.21	116.4	7364.62
1370.26	116.35	7379.02
1370.31	116.3	7299.52
1370.36	116.25	7328.02
1370.41	116.2	7309.38
1370.46	116.15	7331.12
1370.51	116.1	7307.35
1370.56	116.05	7338.72
1370.61	116	7379.8
1370.66	115.95	7356.97
1370.71	115.9	7324.35
1370.76	115.85	7339.75
1370.81	115.8	7330.38
1370.86	115.75	7357.37
1370.91	115.7	7367.07
1370.96	115.65	7336.68
1371.01	115.6	7380.25
1371.06	115.55	7339.02
1371.11	115.5	7341.72
1371.16	115.45	7394.35
1371.21	115.4	7394.1
1371.26	115.35	7367.47
1371.31	115.3	7345.43
1371.36	115.25	7347.85
1371.41	115.2	7393.82
1371.46	115.15	7434.97
1371.51	115.1	7385.2
1371.56	115.05	7396.6
1371.61	115	7406.12
1371.66	114.95	7386.57
1371.71	114.9	7450.5
1371.76	114.85	7397.68
1371.81	114.8	7397.95
1371.86	114.75	7424.18
1371.91	114.7	7368.6
1371.96	114.65	7428.05
1372.01	114.6	7438.52
1372.06	114.55	7468.13
1372.11	114.5	7455.75
1372.16	114.45	7465.38
1372.21	114.4	7463.6
1372.26	114.35	7489.65
1372.31	114.3	7464
1372.36	114.25	7475.7
1372.41	114.2	7458.82
1372.46	114.15	7530.05
1372.51	114.1	7502.22
1372.56	114.05	7475.85
1372.61	114	7497.55
1372.66	113.95	7550.9
1372.71	113.9	7490.45
1372.76	113.85	7486.17
1372.81	113.8	7505.07
1372.86	113.75	7511.2
1372.91	113.7	7507.1
1372.96	113.65	7487.73
1373.01	113.6	7496.12
1373.06	113.55	7487.3
1373.11	113.5	7510.77
1373.16	113.45	7546.35
1373.21	113.4	7536.6
1373.26	113.35	7535.3
1373.31	113.3	7570.03
1373.36	113.25	7564.05
1373.41	113.2	7575.7
1373.46	113.15	7570.8
1373.51	113.1	7556.63
1373.56	113.05	7610.27
1373.61	113	7607.2
1373.66	112.95	7548.93
1373.71	112.9	7610.65
1373.76	112.85	7612.12
1373.81	112.8	7622.07
1373.86	112.75	7607.63
1373.91	112.7	7612.2
1373.96	112.65	7653.2
1374.01	112.6	7642.47
1374.06	112.55	7628.47
1374.11	112.5	7638.65
1374.16	112.45	7684
1374.21	112.4	7660.3
1374.26	112.35	7666.8
1374.31	112.3	7677.57
1374.36	112.25	7684.13
1374.41	112.2	7686.1
1374.46	112.15	7662.07
1374.51	112.1	7697.45
1374.56	112.05	7715.63
1374.61	112	7742.2
1374.66	111.95	7708.37
1374.71	111.9	7729.6
1374.76	111.85	7676.85
1374.81	111.8	7700.75
1374.86	111.75	7698.13
1374.91	111.7	7719.27
1374.96	111.65	7675.85
1375.01	111.6	7708.72
1375.06	111.55	7699.22
1375.11	111.5	7714.95
1375.16	111.45	7658.55
1375.21	111.4	7704.4
1375.26	111.35	7721.65
1375.31	111.3	7775.55
1375.36	111.25	7788.67
1375.41	111.2	7763.67
1375.46	111.15	7740.05
1375.51	111.1	7768.15
1375.56	111.05	7779.2
1375.61	111	7792.55
1375.66	110.95	7760.27
1375.71	110.9	7834.42
1375.76	110.85	7859.57
1375.81	110.8	7777.55
1375.86	110.75	7811.52
1375.91	110.7	7759.38
1375.96	110.65	7745.57
1376.01	110.6	7738.7
1376.06	110.55	7771.97
1376.11	110.5	7753.2
1376.16	110.45	7752.55
1376.21	110.4	7718.27
1376.26	110.35	7686.12
1376.31	110.3	7669.57
1376.36	110.25	7634.9
1376.41	110.2	7641.35
1376.46	110.15	7607.22
1376.51	110.1	7623.05
1376.56	110.05	7597.4
1376.61	110	7582.3
1376.66	109.95	7552.27
1376.71	109.9	7561.95
1376.76	109.85	7563.47
1376.81	109.8	7557.85
1376.86	109.75	7584.87
1376.91	109.7	7616.38
1376.96	109.65	7630.55
1377.01	109.6	7609.65
1377.06	109.55	7667.8
1377.11	109.5	7710.72
1377.16	109.45	7747.37
1377.21	109.4	7806.8
1377.26	109.35	7898.75
1377.31	109.3	7955.18
1377.36	109.25	8023.47
1377.41	109.2	8079.75
1377.46	109.15	8157.17
1377.51	109.1	8213.98
1377.56	109.05	8285.55
1377.61	109	8348.42
1377.66	108.95	8384.63
1377.71	108.9	8415.77
1377.76	108.85	8416.75
1377.81	108.8	8371.82
1377.86	108.75	8306.22
1377.91	108.7	8251.77
1377.96	108.65	8234.85
1378.01	108.6	8161.97
1378.06	108.55	8021.02
1378.11	108.5	7922.02
1378.16	108.45	7865.2
1378.21	108.4	7858.85
1378.26	108.35	7773
1378.31	108.3	7740.8
1378.36	108.25	7661.88
1378.41	108.2	7545.65
1378.46	108.15	7577.53
1378.51	108.1	7493.05
1378.56	108.05	7482.5
1378.61	108	7472.15
1378.66	107.95	7408.2
1378.71	107.9	7395.95
1378.76	107.85	7345.97
1378.81	107.8	7338.78
1378.86	107.75	7274.75
1378.91	107.7	7287.6
1378.96	107.65	7279.38
1379.01	107.6	7302.7
1379.06	107.55	7213.93
1379.11	107.5	7176.5
1379.16	107.45	7239.77
1379.21	107.4	7231.55
1379.26	107.35	7251.72
1379.31	107.3	7236.77
1379.36	107.25	7243.4
1379.41	107.2	7260.87
1379.46	107.15	7245.4
1379.51	107.1	7246.45
1379.56	107.05	7208.95
1379.61	107	7207.17
1379.66	106.95	7218.67
1379.71	106.9	7149.92
1379.76	106.85	7120.18
1379.81	106.8	7090.45
1379.86	106.75	7033.82
1379.91	106.7	7015.03
1379.96	106.65	6980.87
1380.01	106.6	6927.15
1380.06	106.55	6903.95
1380.11	106.5	6873.15
1380.16	106.45	6819.07
1380.21	106.4	6833.3
1380.26	106.35	6791.45
1380.31	106.3	6775.52
1380.36	106.25	6835.2
1380.41	106.2	6814.8
1380.46	106.15	6823.52
1380.51	106.1	6864.25
1380.56	106.05	6851.88
1380.61	106	6832.6
1380.66	105.95	6866.32
1380.71	105.9	6923.35
1380.76	105.85	6979.22
1380.81	105.8	6988.95
1380.86	105.75	7037.2
1380.91	105.7	7097.22
1380.96	105.65	7185.77
1381.01	105.6	7270.35
1381.06	105.55	7367.07
1381.11	105.5	7483.32
1381.16	105.45	7594.02
1381.21	105.4	7698.9
1381.26	105.35	7787.88
1381.31	105.3	7842.3
1381.36	105.25	7944.07
1381.41	105.2	7888.52
1381.46	105.15	7907.5
1381.51	105.1	7879.75
1381.56	105.05	7804.47
1381.61	105	7695.25
1381.66	104.95	7583.3
1381.71	104.9	7473.57
1381.76	104.85	7390.63
1381.81	104.8	7271.6
1381.86	104.75	7203.02
1381.91	104.7	7127.22
1381.96	104.65	6999.7
1382.01	104.6	7006.88
1382.06	104.55	6869.52
1382.11	104.5	6818.82
1382.16	104.45	6834.3
1382.21	104.4	6850.43
1382.26	104.35	6736.07
1382.31	104.3	6707.8
1382.36	104.25	6656.68
1382.41	104.2	6640.13
1382.46	104.15	6585
1382.51	104.1	6630.8
1382.56	104.05	6567.63
1382.61	104	6573.88
1382.66	103.95	6604.05
1382.71	103.9	6575.05
1382.76	103.85	6586.97
1382.81	103.8	6575.47
1382.86	103.75	6517.22
1382.91	103.7	6550.1
1382.96	103.65	6505.5
1383.01	103.6	6550.95
1383.06	103.55	6534.85
1383.11	103.5	6479.95
1383.16	103.45	6524.22
1383.21	103.4	6541.15
1383.26	103.35	6512.8
1383.31	103.3	6490.75
1383.36	103.25	6535.6
1383.41	103.2	6506.92
1383.46	103.15	6507.7
1383.51	103.1	6546.32
1383.56	103.05	6538.65
1383.61	103	6526.4
1383.66	102.95	6489.92
1383.71	102.9	6522.75
1383.76	102.85	6578.3
1383.81	102.8	6557.22
1383.86	102.75	6528.15
1383.91	102.7	6558.57
1383.96	102.65	6561.35
1384.01	102.6	6504.07
1384.06	102.55	6526.28
1384.11	102.5	6529.4
1384.16	102.45	6487.57
1384.21	102.4	6510.25
1384.26	102.35	6526.55
1384.31	102.3	6531.12
1384.36	102.25	6529.87
1384.41	102.2	6540.9
1384.46	102.15	6559.3
1384.51	102.1	6524.05
1384.56	102.05	6532.3
1384.61	102	6572.45
1384.66	101.95	6560.23
1384.71	101.9	6520.05
1384.76	101.85	6560.35
1384.81	101.8	6584.15
1384.86	101.75	6585.92
1384.91	101.7	6572.95
1384.96	101.65	6568.85
1385.01	101.6	6562.17
1385.06	101.55	6563.8
1385.11	101.5	6555.2
1385.16	101.45	6551.57
1385.21	101.4	6567.47
1385.26	101.35	6588.78
1385.31	101.3	6562.55
1385.36	101.25	6562.05
1385.41	101.2	6605.1
1385.46	101.15	6581.63
1385.51	101.1	6605.05
1385.56	101.05	6588.88
1385.61	101	6633.25
1385.66	100.95	6662.9
1385.71	100.9	6660.67
1385.76	100.85	6599.9
1385.81	100.8	6614.9
1385.86	100.75	6595.1
1385.91	100.7	6653.8
1385.96	100.65	6610.4
1386.01	100.6	6622
1386.06	100.55	6564.87
1386.11	100.5	6634.82
1386.16	100.45	6626.32
1386.21	100.4	6657.47
1386.26	100.35	6633.07
1386.31	100.3	6656.4
1386.36	100.25	6640.6
1386.41	100.2	6592.73
1386.46	100.15	6656.95
1386.51	100.1	6597.85
1386.56	100.05	6626.3
1386.61	100	6676.7
1386.66	99.95	6631.35
1386.71	99.9	6643.47
1386.76	99.85	6643.78
1386.81	99.8	6628.22
1386.86	99.75	6666.1
1386.91	99.7	6642.35
1386.96	99.65	6624.47
1387.01	99.6	6647.97
1387.06	99.55	6612
1387.11	99.5	6668.17
1387.16	99.45	6642.73
1387.21	99.4	6659.3
1387.26	99.35	6650.32
1387.31	99.3	6624.13
1387.36	99.25	6660.07
1387.41	99.2	6668.55
1387.46	99.15	6650.15
1387.51	99.1	6629.65
1387.56	99.05	6641.35
1387.61	99	6633.05
1387.66	98.95	6664.6
1387.71	98.9	6629.75
1387.76	98.85	6685.67
1387.81	98.8	6646.63
1387.86	98.75	6648.22
1387.91	98.7	6649.45
1387.96	98.65	6687.27
1388.01	98.6	6692.2
1388.06	98.55	6664.07
1388.11	98.5	6649.3
1388.16	98.45	6704.75
1388.21	98.4	6706.45
1388.26	98.35	6661.75
1388.31	98.3	6635.82
1388.36	98.25	6656.3
1388.41	98.2	6669.25
1388.46	98.15	6635.27
1388.51	98.1	6616.65
1388.56	98.05	6650
1388.61	98	6663.32
1388.66	97.95	6644.3
1388.71	97.9	6644.85
1388.76	97.85	6655.45
1388.81	97.8	6609.1
1388.86	97.75	6629.52
1388.91	97.7	6647.5
1388.96	97.65	6584.52
1389.01	97.6	6603.62
1389.06	97.55	6627.97
1389.11	97.5	6595.7
1389.16	97.45	6618.55
1389.21	97.4	6609.45
1389.26	97.35	6595.6
1389.31	97.3	6573.37
1389.36	97.25	6546.82
1389.41	97.2	6551.02
1389.46	97.15	6538.52
1389.51	97.1	6496.17
1389.56	97.05	6520.05
1389.61	97	6527.85
1389.66	96.95	6533.15
1389.71	96.9	6465.92
1389.76	96.85	6464.5
1389.81	96.8	6479.05
1389.86	96.75	6439.95
1389.91	96.7	6429.35
1389.96	96.65	6430.8
1390.01	96.6	6384.85
1390.06	96.55	6387.73
1390.11	96.5	6395.32
1390.16	96.45	6335.85
1390.21	96.4	6281.77
1390.26	96.35	6363.78
1390.31	96.3	6350.5
1390.36	96.25	6317.53
1390.41	96.2	6357.3
1390.46	96.15	6342.68
1390.51	96.1	6322.02
1390.56	96.05	6330.92
1390.61	96	6268.32
1390.66	95.95	6276.55
1390.71	95.9	6239.02
1390.76	95.85	6311.55
1390.81	95.8	6266.72
1390.86	95.75	6325.3
1390.91	95.7	6325
1390.96	95.65	6266.5
1391.01	95.6	6299.72
1391.06	95.55	6318.47
1391.11	95.5	6353.57
1391.16	95.45	6356
1391.21	95.4	6390.7
1391.26	95.35	6313.32
1391.31	95.3	6375.35
1391.36	95.25	6357.15
1391.41	95.2	6373.57
1391.46	95.15	6430.13
1391.51	95.1	6443.2
1391.56	95.05	6390.38
1391.61	95	6389.05
1391.66	94.95	6419.87
1391.71	94.9	6432.63
1391.76	94.85	6447.27
1391.81	94.8	6443.4
1391.86	94.75	6441.75
1391.91	94.7	6389.52
1391.96	94.65	6430.67
1392.01	94.6	6437.15
1392.06	94.55	6484.05
1392.11	94.5	6486.9
1392.16	94.45	6463.07
1392.21	94.4	6442.2
1392.26	94.35	6451.92
1392.31	94.3	6483.52
1392.36	94.25	6488.6
1392.41	94.2	6505.13
1392.46	94.15	6487.02
1392.51	94.1	6505.85
1392.56	94.05	6512.15
1392.61	94	6500.8
1392.66	93.95	6486.02
1392.71	93.9	6462.82
1392.76	93.85	6527.37
1392.81	93.8	6515.3
1392.86	93.75	6478.75
1392.91	93.7	6494.32
1392.96	93.65	6520
1393.01	93.6	6486.55
1393.06	93.55	6507.63
1393.11	93.5	6432.73
1393.16	93.45	6452.42
1393.21	93.4	6449.4
1393.26	93.35	6461.43
1393.31	93.3	6425.35
1393.36	93.25	6412.25
1393.41	93.2	6395.38
1393.46	93.15	6357.75
1393.51	93.1	6369.07
1393.56	93.05	6327.65
1393.61	93	6326.38
1393.66	92.95	6288.27
1393.71	92.9	6277.35
1393.76	92.85	6331.92
1393.81	92.8	6258.88
1393.86	92.75	6217.12
1393.91	92.7	6225.38
1393.96	92.65	6230.47
1394.01	92.6	6191.17
1394.06	92.55	6189.7
1394.11	92.5	6190.2
1394.16	92.45	6174.92
1394.21	92.4	6176.43
1394.26	92.35	6147.02
1394.31	92.3	6163.6
1394.36	92.25	6151.1
1394.41	92.2	6165.63
1394.46	92.15	6165.7
1394.51	92.1	6172.07
1394.56	92.05	6245.82
1394.61	92	6248.3
1394.66	91.95	6218.93
1394.71	91.9	6256.9
1394.76	91.85	6267.77
1394.81	91.8	6282.6
1394.86	91.75	6274.3
1394.91	91.7	6322.45
1394.96	91.65	6284.35
1395.01	91.6	6356.5
1395.06	91.55	6397.6
1395.11	91.5	6418.42
1395.16	91.45	6437.1
1395.21	91.4	6498.17
1395.26	91.35	6509
1395.31	91.3	6515.82
1395.36	91.25	6588.15
1395.41	91.2	6607.1
1395.46	91.15	6624.47
1395.51	91.1	6646.28
1395.56	91.05	6664.38
1395.61	91	6694.72
1395.66	90.95	6748.2
1395.71	90.9	6774.77
1395.76	90.85	6820.87
1395.81	90.8	6842.2
1395.86	90.75	6882.35
1395.91	90.7	6897.22
1395.96	90.65	6930.85
1396.01	90.6	6958.47
1396.06	90.55	7003.65
1396.11	90.5	7008.47
1396.16	90.45	7032.97
1396.21	90.4	7067.65
1396.26	90.35	7068.78
1396.31	90.3	7067.45
1396.36	90.25	7095.05
1396.41	90.2	7083.75
1396.46	90.15	7087.55
1396.51	90.1	7077.68
1396.56	90.05	7083.95
1396.61	90	7135.05
1396.66	89.95	7107.37
1396.71	89.9	7077.82
1396.76	89.85	7081.35
1396.81	89.8	7100.63
1396.86	89.75	7140.77
1396.91	89.7	7154.25
1396.96	89.65	7110.55
1397.01	89.6	7222.45
1397.06	89.55	7328.47
1397.11	89.5	7401.52
1397.16	89.45	7449.25
1397.21	89.4	7526
1397.26	89.35	7615.25
1397.31	89.3	7786.6
1397.36	89.25	7898.88
1397.41	89.2	8109.32
1397.46	89.15	8247.1
1397.51	89.1	8473.62
1397.56	89.05	8689.4
1397.61	89	8963.45
1397.66	88.95	9256.92
1397.71	88.9	9608.2
1397.76	88.85	9976.73
1397.81	88.8	10345.9
1397.86	88.75	10888
1397.91	88.7	11451.3
1397.96	88.65	12078.3
1398.01	88.6	12872.5
1398.06	88.55	13810.3
1398.11	88.5	14975.7
1398.16	88.45	16354.6
1398.21	88.4	18018.9
1398.26	88.35	20053.4
1398.31	88.3	22571.8
1398.36	88.25	25441.3
1398.41	88.2	28908
1398.46	88.15	33075.3
1398.51	88.1	37654
1398.56	88.05	42819.5
1398.61	88	48453.8
1398.66	87.95	54191.8
1398.71	87.9	60059.3
1398.76	87.85	65186.3
1398.81	87.8	69667.3
1398.86	87.75	73148.3
1398.91	87.7	75192.3
1398.96	87.65	75695.5
1399.01	87.6	74833.3
1399.06	87.55	72389.3
1399.11	87.5	68935.2
1399.16	87.45	64335.2
1399.21	87.4	59007.3
1399.26	87.35	53386.5
1399.31	87.3	47738.2
1399.36	87.25	42272.7
1399.41	87.2	37219.8
1399.46	87.15	32638
1399.51	87.1	28494.7
1399.56	87.05	24955.8
1399.61	87	21908.8
1399.66	86.95	19261.8
1399.71	86.9	17080.5
1399.76	86.85	15216.1
1399.81	86.8	13753
1399.86	86.75	12464.1
1399.91	86.7	11500.8
1399.96	86.65	10585.9
1400.01	86.6	9945.95
1400.06	86.55	9401.82
1400.11	86.5	8907.8
1400.16	86.45	8490.48
1400.21	86.4	8099.2
1400.26	86.35	7821.22
1400.31	86.3	7515.7
1400.36	86.25	7326.75
1400.41	86.2	7184
1400.46	86.15	7112.53
1400.51	86.1	6911.77
1400.56	86.05	6830.55
1400.61	86	6735.97
1400.66	85.95	6662.02
1400.71	85.9	6662.77
1400.76	85.85	6646.8
1400.81	85.8	6641.77
1400.86	85.75	6672.42
1400.91	85.7	6721.25
1400.96	85.65	6854.67
1401.01	85.6	6960.07
1401.06	85.55	7105.65
1401.11	85.5	7283.45
1401.16	85.45	7454.47
1401.21	85.4	7679.57
1401.26	85.35	7931.97
1401.31	85.3	8237.05
1401.36	85.25	8537.82
1401.41	85.2	8968.5
1401.46	85.15	9384.72
1401.51	85.1	9907.32
1401.56	85.05	10516.7
1401.61	85	11304.2
1401.66	84.95	12122.2
1401.71	84.9	13131.8
1401.76	84.85	14494.5
1401.81	84.8	15957.4
1401.86	84.75	17826.8
1401.91	84.7	20321.3
1401.96	84.65	23106.3
1402.01	84.6	26491.8
1402.06	84.55	30502.8
1402.11	84.5	35379.3
1402.16	84.45	41005.5
1402.21	84.4	47295.7
1402.26	84.35	54497.7
1402.31	84.3	62098
1402.36	84.25	69700.5
1402.41	84.2	76957.5
1402.46	84.15	83632.3
1402.51	84.1	89129.2
1402.56	84.05	92947.7
1402.61	84	94614.8
1402.66	83.95	94451.5
1402.71	83.9	92186.3
1402.76	83.85	88030
1402.81	83.8	82759.5
1402.86	83.75	76118.8
1402.91	83.7	68935.2
1402.96	83.65	61294.5
1403.01	83.6	53877.7
1403.06	83.55	46850.2
1403.11	83.5	40466.8
1403.16	83.45	34628.5
1403.21	83.4	29545.7
1403.26	83.35	25129.7
1403.31	83.3	21414.8
1403.36	83.25	18315.4
1403.41	83.2	15707.9
1403.46	83.15	13506.7
1403.51	83.1	11702.6
1403.56	83.05	10244.8
1403.61	83	9016.75
1403.66	82.95	8047.63
1403.71	82.9	7249.3
1403.76	82.85	6555.75
1403.81	82.8	5989.5
1403.86	82.75	5493.7
1403.91	82.7	5122.77
1403.96	82.65	4825.67
1404.01	82.6	4553.92
1404.06	82.55	4268.15
1404.11	82.5	4061.05
1404.16	82.45	3842.28
1404.21	82.4	3689.18
1404.26	82.35	3531.47
1404.31	82.3	3398.07
1404.36	82.25	3287.55
1404.41	82.2	3152.88
1404.46	82.15	3056.3
1404.51	82.1	2958.25
1404.56	82.05	2891.45
1404.61	82	2824.22
1404.66	81.95	2739.67
1404.71	81.9	2666.97
1404.76	81.85	2573.6
1404.81	81.8	2559.55
1404.86	81.75	2508.75
1404.91	81.7	2432.92
1404.96	81.65	2378.81
1405.01	81.6	2338.29
1405.06	81.55	2305.36
1405.11	81.5	2253.05
1405.16	81.45	2229.5
1405.21	81.4	2203.26
1405.26	81.35	2159.18
1405.31	81.3	2137.71
1405.36	81.25	2110.92
1405.41	81.2	2094.2
1405.46	81.15	2048.87
1405.51	81.1	2023.51
1405.56	81.05	1981.49
1405.61	81	1983.49
1405.66	80.95	1952.24
1405.71	80.9	1938.21
1405.76	80.85	1919.81
1405.81	80.8	1901.09
1405.86	80.75	1886.36
1405.91	80.7	1875.39
1405.96	80.65	1839.96
1406.01	80.6	1829.58
1406.06	80.55	1809.45
1406.11	80.5	1791.67
1406.16	80.45	1786.35
1406.21	80.4	1759.74
1406.26	80.35	1749.74
1406.31	80.3	1749.63
1406.36	80.25	1730.38
1406.41	80.2	1728.56
1406.46	80.15	1700.05
1406.51	80.1	1686.55
1406.56	80.05	1688.29
1406.61	80	1685.34
1406.66	79.95	1688.66
1406.71	79.9	1662.16
1406.76	79.85	1643.48
1406.81	79.8	1663.92
1406.86	79.75	1656.86
1406.91	79.7	1647.71
1406.96	79.65	1630.32
1407.01	79.6	1650.16
1407.06	79.55	1630.06
1407.11	79.5	1601.04
1407.16	79.45	1601.73
1407.21	79.4	1599.09
1407.26	79.35	1581
1407.31	79.3	1591.17
1407.36	79.25	1590.45
1407.41	79.2	1590.04
1407.46	79.15	1565.46
1407.51	79.1	1575.24
1407.56	79.05	1595.07
1407.61	79	1555.01
1407.66	78.95	1557.94
1407.71	78.9	1576.7
1407.76	78.85	1567.64
1407.81	78.8	1567.92
1407.86	78.75	1553.93
1407.91	78.7	1564.47
1407.96	78.65	1563
1408.01	78.6	1562.38
1408.06	78.55	1550.26
1408.11	78.5	1565.48
1408.16	78.45	1549.85
1408.21	78.4	1530.79
1408.26	78.35	1547.71
1408.31	78.3	1536.35
1408.36	78.25	1546.01
1408.41	78.2	1551.86
1408.46	78.15	1531.73
1408.51	78.1	1555.21
1408.56	78.05	1539.82
1408.61	78	1543.94
1408.66	77.95	1541.28
1408.71	77.9	1547.21
1408.76	77.85	1531.74
1408.81	77.8	1546.54
1408.86	77.75	1544.28
1408.91	77.7	1521.18
1408.96	77.65	1544.41
1409.01	77.6	1533.48
1409.06	77.55	1528.01
1409.11	77.5	1532.88
1409.16	77.45	1530.77
1409.21	77.4	1528.35
1409.26	77.35	1547.28
1409.31	77.3	1533.78
1409.36	77.25	1519
1409.41	77.2	1529.35
1409.46	77.15	1540.52
1409.51	77.1	1528
1409.56	77.05	1522.18
1409.61	77	1537
1409.66	76.95	1549.91
1409.71	76.9	1542.92
1409.76	76.85	1512.74
1409.81	76.8	1538.69
1409.86	76.75	1542
1409.91	76.7	1546.13
1409.96	76.65	1544.82
1410.01	76.6	1550.55
1410.06	76.55	1558.76
1410.11	76.5	1570.91
1410.16	76.45	1555.1
1410.21	76.4	1593.96
1410.26	76.35	1591.92
1410.31	76.3	1580.34
1410.36	76.25	1595.18
1410.41	76.2	1592.49
1410.46	76.15	1601.85
1410.51	76.1	1598.19
1410.56	76.05	1591.96
1410.61	76	1594.54
1410.66	75.95	1620.6
1410.71	75.9	1644.52
1410.76	75.85	1614.99
1410.81	75.8	1625.7
1410.86	75.75	1642.5
1410.91	75.7	1627.38
1410.96	75.65	1613.49
1411.01	75.6	1625.69
1411.06	75.55	1659.17
1411.11	75.5	1637.12
1411.16	75.45	1668.92
1411.21	75.4	1647.64
1411.26	75.35	1666.19
1411.31	75.3	1658.9
1411.36	75.25	1688.8
1411.41	75.2	1686.57
1411.46	75.15	1713.78
1411.51	75.1	1714.02
1411.56	75.05	1696.06
1411.61	75	1678.17