c:\users\mark\owncloud\muelheim group\projects\gas phase background\ex191_cec356 au in he_1200um.vms
Au4f
	Characteristic Energy eV	1486.61	Acquisition Time s	0.4
KE_Au4f	BE_Au4f	CPS_Au4f
1306.61	180	5644.52
1306.66	179.95	5579.77
1306.71	179.9	5601.45
1306.76	179.85	5610.2
1306.81	179.8	5613.65
1306.86	179.75	5661.88
1306.91	179.7	5646
1306.96	179.65	5562.25
1307.01	179.6	5656.6
1307.06	179.55	5632.57
1307.11	179.5	5604.62
1307.16	179.45	5581.97
1307.21	179.4	5629.85
1307.26	179.35	5666.43
1307.31	179.3	5669.8
1307.36	179.25	5551.77
1307.41	179.2	5621.63
1307.46	179.15	5658.17
1307.51	179.1	5689.07
1307.56	179.05	5599.57
1307.61	179	5624.6
1307.66	178.95	5585.15
1307.71	178.9	5613.05
1307.76	178.85	5597.25
1307.81	178.8	5645.35
1307.86	178.75	5618
1307.91	178.7	5623.35
1307.96	178.65	5641.8
1308.01	178.6	5681.52
1308.06	178.55	5596.12
1308.11	178.5	5541.05
1308.16	178.45	5603.85
1308.21	178.4	5636.07
1308.26	178.35	5649.2
1308.31	178.3	5629.8
1308.36	178.25	5557.77
1308.41	178.2	5617.65
1308.46	178.15	5609.82
1308.51	178.1	5634.87
1308.56	178.05	5680.45
1308.61	178	5672.22
1308.66	177.95	5648.82
1308.71	177.9	5670.18
1308.76	177.85	5627.45
1308.81	177.8	5620.8
1308.86	177.75	5630.52
1308.91	177.7	5649.65
1308.96	177.65	5643.65
1309.01	177.6	5663.4
1309.06	177.55	5727.1
1309.11	177.5	5663.25
1309.16	177.45	5662.57
1309.21	177.4	5726.3
1309.26	177.35	5717.97
1309.31	177.3	5633.42
1309.36	177.25	5632.4
1309.41	177.2	5701.4
1309.46	177.15	5685.87
1309.51	177.1	5631.1
1309.56	177.05	5654.1
1309.61	177	5684.18
1309.66	176.95	5611.17
1309.71	176.9	5651.77
1309.76	176.85	5633.37
1309.81	176.8	5587.73
1309.86	176.75	5677.4
1309.91	176.7	5721.6
1309.96	176.65	5707.02
1310.01	176.6	5645.3
1310.06	176.55	5694
1310.11	176.5	5690.87
1310.16	176.45	5673.6
1310.21	176.4	5706.6
1310.26	176.35	5655.72
1310.31	176.3	5669.57
1310.36	176.25	5618.13
1310.41	176.2	5683.67
1310.46	176.15	5689.25
1310.51	176.1	5638.72
1310.56	176.05	5704.15
1310.61	176	5707.65
1310.66	175.95	5717.5
1310.71	175.9	5704.47
1310.76	175.85	5659.6
1310.81	175.8	5591.17
1310.86	175.75	5644.6
1310.91	175.7	5627.12
1310.96	175.65	5691.45
1311.01	175.6	5671.65
1311.06	175.55	5698.9
1311.11	175.5	5650.38
1311.16	175.45	5712.32
1311.21	175.4	5682.02
1311.26	175.35	5662.35
1311.31	175.3	5679.4
1311.36	175.25	5665.57
1311.41	175.2	5651.8
1311.46	175.15	5704.07
1311.51	175.1	5733.57
1311.56	175.05	5686.6
1311.61	175	5630.77
1311.66	174.95	5697.9
1311.71	174.9	5731.5
1311.76	174.85	5690.87
1311.81	174.8	5748.98
1311.86	174.75	5703.62
1311.91	174.7	5642.27
1311.96	174.65	5721.7
1312.01	174.6	5644.25
1312.06	174.55	5694.25
1312.11	174.5	5672.3
1312.16	174.45	5665.82
1312.21	174.4	5626.8
1312.26	174.35	5712.45
1312.31	174.3	5714.25
1312.36	174.25	5605.43
1312.41	174.2	5649
1312.46	174.15	5664.25
1312.51	174.1	5704.32
1312.56	174.05	5660.9
1312.61	174	5688.05
1312.66	173.95	5751.57
1312.71	173.9	5635.27
1312.76	173.85	5654.05
1312.81	173.8	5708.27
1312.86	173.75	5741.57
1312.91	173.7	5729.7
1312.96	173.65	5771.48
1313.01	173.6	5722.63
1313.06	173.55	5674.45
1313.11	173.5	5758.52
1313.16	173.45	5750.05
1313.21	173.4	5737.5
1313.26	173.35	5738
1313.31	173.3	5770.05
1313.36	173.25	5698.05
1313.41	173.2	5710.95
1313.46	173.15	5706
1313.51	173.1	5688.05
1313.56	173.05	5712.85
1313.61	173	5674.4
1313.66	172.95	5743.8
1313.71	172.9	5765.05
1313.76	172.85	5731.05
1313.81	172.8	5780.07
1313.86	172.75	5699.47
1313.91	172.7	5681.77
1313.96	172.65	5785.13
1314.01	172.6	5767.35
1314.06	172.55	5734.85
1314.11	172.5	5748.17
1314.16	172.45	5791.17
1314.21	172.4	5799.62
1314.26	172.35	5744.62
1314.31	172.3	5760.55
1314.36	172.25	5702.88
1314.41	172.2	5698.15
1314.46	172.15	5733.55
1314.51	172.1	5715.7
1314.56	172.05	5745.13
1314.61	172	5723.32
1314.66	171.95	5719.38
1314.71	171.9	5837.07
1314.76	171.85	5804.77
1314.81	171.8	5776.25
1314.86	171.75	5735.82
1314.91	171.7	5722.57
1314.96	171.65	5794.85
1315.01	171.6	5775.92
1315.06	171.55	5750.55
1315.11	171.5	5700.27
1315.16	171.45	5734.65
1315.21	171.4	5737.7
1315.26	171.35	5737.8
1315.31	171.3	5750.85
1315.36	171.25	5757.6
1315.41	171.2	5762.95
1315.46	171.15	5749.77
1315.51	171.1	5698.55
1315.56	171.05	5717.3
1315.61	171	5724.6
1315.66	170.95	5730.47
1315.71	170.9	5752.55
1315.76	170.85	5788.22
1315.81	170.8	5741
1315.86	170.75	5746.15
1315.91	170.7	5756.9
1315.96	170.65	5697.4
1316.01	170.6	5765.97
1316.06	170.55	5755.92
1316.11	170.5	5724.72
1316.16	170.45	5728.13
1316.21	170.4	5737.6
1316.26	170.35	5715.95
1316.31	170.3	5804.05
1316.36	170.25	5764.1
1316.41	170.2	5739.97
1316.46	170.15	5754.95
1316.51	170.1	5779.47
1316.56	170.05	5820.1
1316.61	170	5766.68
1316.66	169.95	5688.85
1316.71	169.9	5777.3
1316.76	169.85	5763.02
1316.81	169.8	5687.85
1316.86	169.75	5700.43
1316.91	169.7	5731.02
1316.96	169.65	5762.27
1317.01	169.6	5724.85
1317.06	169.55	5820.3
1317.11	169.5	5781.22
1317.16	169.45	5713.67
1317.21	169.4	5780.77
1317.26	169.35	5817.53
1317.31	169.3	5693.42
1317.36	169.25	5731.2
1317.41	169.2	5767.73
1317.46	169.15	5732.88
1317.51	169.1	5754.38
1317.56	169.05	5767.25
1317.61	169	5762.07
1317.66	168.95	5754.47
1317.71	168.9	5822.82
1317.76	168.85	5739.15
1317.81	168.8	5837.07
1317.86	168.75	5727.37
1317.91	168.7	5739.77
1317.96	168.65	5775.5
1318.01	168.6	5739.22
1318.06	168.55	5712.05
1318.11	168.5	5743.85
1318.16	168.45	5745.32
1318.21	168.4	5706.15
1318.26	168.35	5752.45
1318.31	168.3	5717.42
1318.36	168.25	5758.1
1318.41	168.2	5812.88
1318.46	168.15	5742.93
1318.51	168.1	5714.2
1318.56	168.05	5780.35
1318.61	168	5803.1
1318.66	167.95	5743.67
1318.71	167.9	5775
1318.76	167.85	5737.07
1318.81	167.8	5759.35
1318.86	167.75	5773.47
1318.91	167.7	5725.8
1318.96	167.65	5796.57
1319.01	167.6	5721.68
1319.06	167.55	5775.23
1319.11	167.5	5778.95
1319.16	167.45	5776.75
1319.21	167.4	5745.4
1319.26	167.35	5726
1319.31	167.3	5828.07
1319.36	167.25	5845.63
1319.41	167.2	5753.72
1319.46	167.15	5788.07
1319.51	167.1	5810.8
1319.56	167.05	5719.57
1319.61	167	5715.85
1319.66	166.95	5795.18
1319.71	166.9	5808.57
1319.76	166.85	5743.3
1319.81	166.8	5728
1319.86	166.75	5867.17
1319.91	166.7	5821.63
1319.96	166.65	5815.95
1320.01	166.6	5853.25
1320.06	166.55	5851.88
1320.11	166.5	5791.35
1320.16	166.45	5818.02
1320.21	166.4	5754.92
1320.26	166.35	5777.9
1320.31	166.3	5803.88
1320.36	166.25	5832.57
1320.41	166.2	5793.3
1320.46	166.15	5808.4
1320.51	166.1	5861.28
1320.56	166.05	5792.97
1320.61	166	5843.37
1320.66	165.95	5758.4
1320.71	165.9	5767
1320.76	165.85	5879.62
1320.81	165.8	5848.42
1320.86	165.75	5804.4
1320.91	165.7	5794.8
1320.96	165.65	5720.15
1321.01	165.6	5780.57
1321.06	165.55	5786.88
1321.11	165.5	5793.15
1321.16	165.45	5776.02
1321.21	165.4	5871.8
1321.26	165.35	5760.75
1321.31	165.3	5810.7
1321.36	165.25	5828.2
1321.41	165.2	5742.15
1321.46	165.15	5885.5
1321.51	165.1	5852.45
1321.56	165.05	5785.15
1321.61	165	5826.95
1321.66	164.95	5908.42
1321.71	164.9	5844.35
1321.76	164.85	5851.55
1321.81	164.8	5856.95
1321.86	164.75	5850.63
1321.91	164.7	5886.5
1321.96	164.65	5858.82
1322.01	164.6	5850.52
1322.06	164.55	5855.43
1322.11	164.5	5791.97
1322.16	164.45	5823
1322.21	164.4	5848.25
1322.26	164.35	5920.72
1322.31	164.3	5845.5
1322.36	164.25	5821.38
1322.41	164.2	5852.82
1322.46	164.15	5826.25
1322.51	164.1	5927.93
1322.56	164.05	5861.17
1322.61	164	5838.6
1322.66	163.95	5825.2
1322.71	163.9	5865.92
1322.76	163.85	5849.32
1322.81	163.8	5913.17
1322.86	163.75	5895.4
1322.91	163.7	5942.95
1322.96	163.65	5832.88
1323.01	163.6	5839.5
1323.06	163.55	5843.15
1323.11	163.5	5899.55
1323.16	163.45	5871.3
1323.21	163.4	5834.2
1323.26	163.35	5888.52
1323.31	163.3	5902.63
1323.36	163.25	5799.55
1323.41	163.2	5856.75
1323.46	163.15	5861.1
1323.51	163.1	5830.05
1323.56	163.05	5877.3
1323.61	163	5832.95
1323.66	162.95	5861.5
1323.71	162.9	5934.18
1323.76	162.85	5919.82
1323.81	162.8	5885.7
1323.86	162.75	5860.82
1323.91	162.7	5859.38
1323.96	162.65	5886.65
1324.01	162.6	5927.65
1324.06	162.55	5877.1
1324.11	162.5	5859.4
1324.16	162.45	5955.5
1324.21	162.4	5931.97
1324.26	162.35	5824.6
1324.31	162.3	5816.68
1324.36	162.25	5889.45
1324.41	162.2	5897.2
1324.46	162.15	5894.8
1324.51	162.1	5912.2
1324.56	162.05	5862.82
1324.61	162	5816.35
1324.66	161.95	5847.8
1324.71	161.9	5974.05
1324.76	161.85	5928.05
1324.81	161.8	5826.52
1324.86	161.75	5859.62
1324.91	161.7	5949.72
1324.96	161.65	5898.15
1325.01	161.6	5804.2
1325.06	161.55	5889.87
1325.11	161.5	5899.32
1325.16	161.45	5880.72
1325.21	161.4	5901.02
1325.26	161.35	5945.4
1325.31	161.3	5949.65
1325.36	161.25	5924.7
1325.41	161.2	5846.15
1325.46	161.15	5883.78
1325.51	161.1	5868.75
1325.56	161.05	5906.9
1325.61	161	5805.63
1325.66	160.95	5882.82
1325.71	160.9	5929.5
1325.76	160.85	5906.25
1325.81	160.8	5873.1
1325.86	160.75	5943.1
1325.91	160.7	5958.75
1325.96	160.65	5919
1326.01	160.6	5884.75
1326.06	160.55	5931.25
1326.11	160.5	5967.05
1326.16	160.45	5990.82
1326.21	160.4	5924.5
1326.26	160.35	5938.13
1326.31	160.3	5924.52
1326.36	160.25	5952.53
1326.41	160.2	5887.73
1326.46	160.15	5935.5
1326.51	160.1	5939.6
1326.56	160.05	5894.35
1326.61	160	5945.18
1326.66	159.95	5941.55
1326.71	159.9	5902
1326.76	159.85	5889.5
1326.81	159.8	6001.77
1326.86	159.75	5972.95
1326.91	159.7	5970.07
1326.96	159.65	5938.7
1327.01	159.6	5948.22
1327.06	159.55	5977.15
1327.11	159.5	5996.65
1327.16	159.45	5941.02
1327.21	159.4	5986
1327.26	159.35	5960.72
1327.31	159.3	5945.35
1327.36	159.25	5987.37
1327.41	159.2	6013.7
1327.46	159.15	5893.98
1327.51	159.1	5897.77
1327.56	159.05	5998.65
1327.61	159	5917.1
1327.66	158.95	5891.85
1327.71	158.9	5936.05
1327.76	158.85	5966.2
1327.81	158.8	5990.67
1327.86	158.75	5894.47
1327.91	158.7	5950.87
1327.96	158.65	5992.4
1328.01	158.6	5929.9
1328.06	158.55	5934
1328.11	158.5	5913.98
1328.16	158.45	5966.77
1328.21	158.4	6005.45
1328.26	158.35	5971.2
1328.31	158.3	5967.8
1328.36	158.25	6012.55
1328.41	158.2	6021.72
1328.46	158.15	6024.82
1328.51	158.1	6021.32
1328.56	158.05	5874.87
1328.61	158	5972.95
1328.66	157.95	5979.7
1328.71	157.9	5982.25
1328.76	157.85	5985.85
1328.81	157.8	6015.03
1328.86	157.75	5921.35
1328.91	157.7	5924.35
1328.96	157.65	5995.27
1329.01	157.6	5990.27
1329.06	157.55	5996.15
1329.11	157.5	5921.97
1329.16	157.45	5963.85
1329.21	157.4	5972.3
1329.26	157.35	5979.13
1329.31	157.3	6019.02
1329.36	157.25	6062.42
1329.41	157.2	5949.72
1329.46	157.15	5945.35
1329.51	157.1	5966.92
1329.56	157.05	6010.52
1329.61	157	5990.2
1329.66	156.95	6009.32
1329.71	156.9	6054.55
1329.76	156.85	6048.57
1329.81	156.8	5929.67
1329.86	156.75	5959.38
1329.91	156.7	6012.45
1329.96	156.65	6019.38
1330.01	156.6	5950.07
1330.06	156.55	5917.05
1330.11	156.5	6029.13
1330.16	156.45	6026.38
1330.21	156.4	6022.37
1330.26	156.35	6011.4
1330.31	156.3	6114.45
1330.36	156.25	6016.82
1330.41	156.2	6039.9
1330.46	156.15	5993.22
1330.51	156.1	5974.62
1330.56	156.05	6017.22
1330.61	156	5968.45
1330.66	155.95	5971
1330.71	155.9	5961.38
1330.76	155.85	6049.15
1330.81	155.8	6000.43
1330.86	155.75	6055.15
1330.91	155.7	6082.37
1330.96	155.65	6000.87
1331.01	155.6	6001.88
1331.06	155.55	6057.37
1331.11	155.5	6022.93
1331.16	155.45	6001.28
1331.21	155.4	5996
1331.26	155.35	6060.4
1331.31	155.3	6010.8
1331.36	155.25	5988.67
1331.41	155.2	6000.07
1331.46	155.15	6019.07
1331.51	155.1	6032.95
1331.56	155.05	6066.95
1331.61	155	6055.15
1331.66	154.95	6041.45
1331.71	154.9	5989.32
1331.76	154.85	6027.02
1331.81	154.8	6037.25
1331.86	154.75	6057.93
1331.91	154.7	6068.32
1331.96	154.65	6029.62
1332.01	154.6	6026.3
1332.06	154.55	6033.78
1332.11	154.5	6081.43
1332.16	154.45	6064.8
1332.21	154.4	6135.1
1332.26	154.35	6162.12
1332.31	154.3	6147.73
1332.36	154.25	6033.2
1332.41	154.2	6053.55
1332.46	154.15	6070.4
1332.51	154.1	6132.12
1332.56	154.05	6094.92
1332.61	154	6071.3
1332.66	153.95	6050.63
1332.71	153.9	6044.62
1332.76	153.85	6059.42
1332.81	153.8	6068.02
1332.86	153.75	6063.78
1332.91	153.7	6092.82
1332.96	153.65	6090.97
1333.01	153.6	6103.3
1333.06	153.55	6091.17
1333.11	153.5	6049.7
1333.16	153.45	6074.42
1333.21	153.4	6008.3
1333.26	153.35	6126.57
1333.31	153.3	6134.4
1333.36	153.25	6123.93
1333.41	153.2	6138.55
1333.46	153.15	6074.47
1333.51	153.1	6120.92
1333.56	153.05	6048.37
1333.61	153	6074.4
1333.66	152.95	6103.35
1333.71	152.9	6092.15
1333.76	152.85	6083.95
1333.81	152.8	6060.87
1333.86	152.75	6185.15
1333.91	152.7	6214.75
1333.96	152.65	6120.07
1334.01	152.6	6125.52
1334.06	152.55	6108.55
1334.11	152.5	6116.5
1334.16	152.45	6124.32
1334.21	152.4	6106.63
1334.26	152.35	6090.95
1334.31	152.3	6077.73
1334.36	152.25	6078.78
1334.41	152.2	6127.2
1334.46	152.15	6122.07
1334.51	152.1	6091.35
1334.56	152.05	6037.53
1334.61	152	6141.6
1334.66	151.95	6151.45
1334.71	151.9	6068.8
1334.76	151.85	6095.57
1334.81	151.8	6191.55
1334.86	151.75	6139.77
1334.91	151.7	6191.77
1334.96	151.65	6211.97
1335.01	151.6	6109.02
1335.06	151.55	6150.9
1335.11	151.5	6198.42
1335.16	151.45	6178.95
1335.21	151.4	6076.2
1335.26	151.35	6104.13
1335.31	151.3	6154.4
1335.36	151.25	6149.13
1335.41	151.2	6163.88
1335.46	151.15	6214.45
1335.51	151.1	6246.7
1335.56	151.05	6238.4
1335.61	151	6171.5
1335.66	150.95	6188.65
1335.71	150.9	6170.38
1335.76	150.85	6208.2
1335.81	150.8	6199.75
1335.86	150.75	6156.4
1335.91	150.7	6162.42
1335.96	150.65	6190.2
1336.01	150.6	6173.37
1336.06	150.55	6192.55
1336.11	150.5	6231.3
1336.16	150.45	6133.72
1336.21	150.4	6156.57
1336.26	150.35	6222.63
1336.31	150.3	6209.57
1336.36	150.25	6223.67
1336.41	150.2	6154.67
1336.46	150.15	6190.72
1336.51	150.1	6231.15
1336.56	150.05	6132.65
1336.61	150	6229.3
1336.66	149.95	6199.35
1336.71	149.9	6238.55
1336.76	149.85	6255.65
1336.81	149.8	6178.78
1336.86	149.75	6204.27
1336.91	149.7	6227.2
1336.96	149.65	6192.35
1337.01	149.6	6209.25
1337.06	149.55	6180.47
1337.11	149.5	6131.3
1337.16	149.45	6186.2
1337.21	149.4	6224.65
1337.26	149.35	6179.4
1337.31	149.3	6204.02
1337.36	149.25	6171.07
1337.41	149.2	6201.43
1337.46	149.15	6189.3
1337.51	149.1	6174.87
1337.56	149.05	6167.35
1337.61	149	6130.35
1337.66	148.95	6207.53
1337.71	148.9	6219.82
1337.76	148.85	6207.8
1337.81	148.8	6205.63
1337.86	148.75	6243.1
1337.91	148.7	6163.9
1337.96	148.65	6194.47
1338.01	148.6	6154.1
1338.06	148.55	6189.72
1338.11	148.5	6194.42
1338.16	148.45	6183.82
1338.21	148.4	6187.77
1338.26	148.35	6246
1338.31	148.3	6214.47
1338.36	148.25	6175.72
1338.41	148.2	6169.65
1338.46	148.15	6219.6
1338.51	148.1	6153.6
1338.56	148.05	6220.63
1338.61	148	6164.6
1338.66	147.95	6152.37
1338.71	147.9	6232.97
1338.76	147.85	6240.92
1338.81	147.8	6231.43
1338.86	147.75	6161.5
1338.91	147.7	6215.5
1338.96	147.65	6194.95
1339.01	147.6	6205.43
1339.06	147.55	6201.97
1339.11	147.5	6188.02
1339.16	147.45	6226.63
1339.21	147.4	6192.45
1339.26	147.35	6229.42
1339.31	147.3	6258.62
1339.36	147.25	6213.27
1339.41	147.2	6149.38
1339.46	147.15	6235.15
1339.51	147.1	6230.97
1339.56	147.05	6221.5
1339.61	147	6240.45
1339.66	146.95	6211.6
1339.71	146.9	6245.03
1339.76	146.85	6236.85
1339.81	146.8	6287.7
1339.86	146.75	6338.32
1339.91	146.7	6232.6
1339.96	146.65	6264
1340.01	146.6	6239.82
1340.06	146.55	6214.6
1340.11	146.5	6270.5
1340.16	146.45	6282.97
1340.21	146.4	6309.1
1340.26	146.35	6271.6
1340.31	146.3	6290.35
1340.36	146.25	6289.02
1340.41	146.2	6269.65
1340.46	146.15	6251.2
1340.51	146.1	6306.07
1340.56	146.05	6220.67
1340.61	146	6243.67
1340.66	145.95	6268.32
1340.71	145.9	6224.75
1340.76	145.85	6229.72
1340.81	145.8	6226.02
1340.86	145.75	6216.4
1340.91	145.7	6228.22
1340.96	145.65	6317.55
1341.01	145.6	6320.97
1341.06	145.55	6320.38
1341.11	145.5	6274.2
1341.16	145.45	6276.63
1341.21	145.4	6128.13
1341.26	145.35	6196.25
1341.31	145.3	6180.27
1341.36	145.25	6210.2
1341.41	145.2	6245.47
1341.46	145.15	6211.43
1341.51	145.1	6277.3
1341.56	145.05	6287.25
1341.61	145	6300.52
1341.66	144.95	6289.85
1341.71	144.9	6272.93
1341.76	144.85	6272.3
1341.81	144.8	6313.25
1341.86	144.75	6285.82
1341.91	144.7	6258.22
1341.96	144.65	6219.27
1342.01	144.6	6168.98
1342.06	144.55	6238
1342.11	144.5	6254.05
1342.16	144.45	6337.57
1342.21	144.4	6285.15
1342.26	144.35	6245.43
1342.31	144.3	6226.45
1342.36	144.25	6227.3
1342.41	144.2	6248.05
1342.46	144.15	6305.75
1342.51	144.1	6235.97
1342.56	144.05	6265.57
1342.61	144	6301.52
1342.66	143.95	6232.93
1342.71	143.9	6274.38
1342.76	143.85	6373.45
1342.81	143.8	6245.75
1342.86	143.75	6274.85
1342.91	143.7	6289.05
1342.96	143.65	6328.93
1343.01	143.6	6271.97
1343.06	143.55	6172.47
1343.11	143.5	6136.8
1343.16	143.45	6252.9
1343.21	143.4	6270.72
1343.26	143.35	6269.6
1343.31	143.3	6304
1343.36	143.25	6221.15
1343.41	143.2	6334.7
1343.46	143.15	6263.5
1343.51	143.1	6247.17
1343.56	143.05	6314.67
1343.61	143	6309.72
1343.66	142.95	6366.65
1343.71	142.9	6300.82
1343.76	142.85	6313.05
1343.81	142.8	6294.05
1343.86	142.75	6230.87
1343.91	142.7	6209.7
1343.96	142.65	6283.65
1344.01	142.6	6325.52
1344.06	142.55	6317.35
1344.11	142.5	6275.67
1344.16	142.45	6274.35
1344.21	142.4	6288.6
1344.26	142.35	6366.12
1344.31	142.3	6307.5
1344.36	142.25	6306.28
1344.41	142.2	6201.17
1344.46	142.15	6272.22
1344.51	142.1	6236.38
1344.56	142.05	6249.4
1344.61	142	6229.6
1344.66	141.95	6248.72
1344.71	141.9	6286.6
1344.76	141.85	6320.52
1344.81	141.8	6312.07
1344.86	141.75	6282.07
1344.91	141.7	6301.35
1344.96	141.65	6298.52
1345.01	141.6	6302.73
1345.06	141.55	6290.6
1345.11	141.5	6319.18
1345.16	141.45	6295.1
1345.21	141.4	6268.75
1345.26	141.35	6293.32
1345.31	141.3	6327.15
1345.36	141.25	6314.32
1345.41	141.2	6316.2
1345.46	141.15	6331.12
1345.51	141.1	6259.52
1345.56	141.05	6282.5
1345.61	141	6296.05
1345.66	140.95	6242.97
1345.71	140.9	6333.8
1345.76	140.85	6294.13
1345.81	140.8	6320.57
1345.86	140.75	6313.07
1345.91	140.7	6346.02
1345.96	140.65	6253.93
1346.01	140.6	6280.3
1346.06	140.55	6336.32
1346.11	140.5	6349.42
1346.16	140.45	6318.85
1346.21	140.4	6391.45
1346.26	140.35	6336.9
1346.31	140.3	6363.35
1346.36	140.25	6449.62
1346.41	140.2	6373.9
1346.46	140.15	6331.3
1346.51	140.1	6305.52
1346.56	140.05	6255.03
1346.61	140	6365.57
1346.66	139.95	6336.68
1346.71	139.9	6287.32
1346.76	139.85	6325.72
1346.81	139.8	6339.67
1346.86	139.75	6290.77
1346.91	139.7	6327.22
1346.96	139.65	6353.13
1347.01	139.6	6334.9
1347.06	139.55	6320.1
1347.11	139.5	6315.65
1347.16	139.45	6362.8
1347.21	139.4	6306
1347.26	139.35	6322.45
1347.31	139.3	6255.27
1347.36	139.25	6415.87
1347.41	139.2	6365.55
1347.46	139.15	6316.5
1347.51	139.1	6397.45
1347.56	139.05	6279.92
1347.61	139	6321.68
1347.66	138.95	6346.8
1347.71	138.9	6402.42
1347.76	138.85	6333.57
1347.81	138.8	6319.02
1347.86	138.75	6351.88
1347.91	138.7	6306.12
1347.96	138.65	6382.93
1348.01	138.6	6423.8
1348.06	138.55	6427.45
1348.11	138.5	6368.52
1348.16	138.45	6405.3
1348.21	138.4	6346.17
1348.26	138.35	6439.55
1348.31	138.3	6360.6
1348.36	138.25	6422.55
1348.41	138.2	6395.45
1348.46	138.15	6454.42
1348.51	138.1	6385.2
1348.56	138.05	6396.88
1348.61	138	6305.77
1348.66	137.95	6418.6
1348.71	137.9	6433.15
1348.76	137.85	6355
1348.81	137.8	6356.35
1348.86	137.75	6430.35
1348.91	137.7	6445.55
1348.96	137.65	6352.22
1349.01	137.6	6350.67
1349.06	137.55	6373.62
1349.11	137.5	6376.88
1349.16	137.45	6445.18
1349.21	137.4	6376.05
1349.26	137.35	6358.15
1349.31	137.3	6324.38
1349.36	137.25	6441.63
1349.41	137.2	6423.65
1349.46	137.15	6393.9
1349.51	137.1	6402.85
1349.56	137.05	6460.32
1349.61	137	6413.2
1349.66	136.95	6379.9
1349.71	136.9	6403.45
1349.76	136.85	6393.9
1349.81	136.8	6401.63
1349.86	136.75	6467.9
1349.91	136.7	6429.7
1349.96	136.65	6400.72
1350.01	136.6	6380.6
1350.06	136.55	6404.8
1350.11	136.5	6379.6
1350.16	136.45	6428.78
1350.21	136.4	6363.72
1350.26	136.35	6418.65
1350.31	136.3	6452.65
1350.36	136.25	6452.25
1350.41	136.2	6430.6
1350.46	136.15	6473.27
1350.51	136.1	6418.88
1350.56	136.05	6438.93
1350.61	136	6454.4
1350.66	135.95	6345.63
1350.71	135.9	6406.12
1350.76	135.85	6433.95
1350.81	135.8	6410.95
1350.86	135.75	6482.02
1350.91	135.7	6536.65
1350.96	135.65	6478.1
1351.01	135.6	6425.82
1351.06	135.55	6500.2
1351.11	135.5	6486.82
1351.16	135.45	6436.55
1351.21	135.4	6438.42
1351.26	135.35	6398.82
1351.31	135.3	6544.5
1351.36	135.25	6485.45
1351.41	135.2	6420.32
1351.46	135.15	6464.52
1351.51	135.1	6481.2
1351.56	135.05	6437.05
1351.61	135	6475.4
1351.66	134.95	6464.55
1351.71	134.9	6499.95
1351.76	134.85	6475.72
1351.81	134.8	6379.6
1351.86	134.75	6534.95
1351.91	134.7	6467.57
1351.96	134.65	6419.4
1352.01	134.6	6422.82
1352.06	134.55	6500.72
1352.11	134.5	6463.98
1352.16	134.45	6513.93
1352.21	134.4	6555.63
1352.26	134.35	6500.82
1352.31	134.3	6490.75
1352.36	134.25	6454.35
1352.41	134.2	6533.27
1352.46	134.15	6478.95
1352.51	134.1	6558.95
1352.56	134.05	6510.5
1352.61	134	6455.3
1352.66	133.95	6482.63
1352.71	133.9	6519.82
1352.76	133.85	6529.92
1352.81	133.8	6476.38
1352.86	133.75	6534.55
1352.91	133.7	6525.23
1352.96	133.65	6505.38
1353.01	133.6	6518.15
1353.06	133.55	6493.65
1353.11	133.5	6466.25
1353.16	133.45	6527.7
1353.21	133.4	6512.55
1353.26	133.35	6492.5
1353.31	133.3	6561.7
1353.36	133.25	6523.95
1353.41	133.2	6581.85
1353.46	133.15	6491.05
1353.51	133.1	6502.15
1353.56	133.05	6437.3
1353.61	133	6520.38
1353.66	132.95	6580.25
1353.71	132.9	6581.55
1353.76	132.85	6567.7
1353.81	132.8	6619.4
1353.86	132.75	6647.17
1353.91	132.7	6601.2
1353.96	132.65	6570.77
1354.01	132.6	6521.88
1354.06	132.55	6520.52
1354.11	132.5	6605.87
1354.16	132.45	6496.68
1354.21	132.4	6456.48
1354.26	132.35	6558.13
1354.31	132.3	6552.5
1354.36	132.25	6570.63
1354.41	132.2	6651.8
1354.46	132.15	6571
1354.51	132.1	6535.43
1354.56	132.05	6519.6
1354.61	132	6589.7
1354.66	131.95	6518.32
1354.71	131.9	6601.52
1354.76	131.85	6630.63
1354.81	131.8	6605.7
1354.86	131.75	6535.7
1354.91	131.7	6606.2
1354.96	131.65	6667.77
1355.01	131.6	6622.1
1355.06	131.55	6524.05
1355.11	131.5	6587.1
1355.16	131.45	6628.45
1355.21	131.4	6577.47
1355.26	131.35	6606.3
1355.31	131.3	6602.07
1355.36	131.25	6683.88
1355.41	131.2	6578.25
1355.46	131.15	6696.12
1355.51	131.1	6638.85
1355.56	131.05	6636.4
1355.61	131	6600.32
1355.66	130.95	6666.57
1355.71	130.9	6604.9
1355.76	130.85	6665.8
1355.81	130.8	6675.87
1355.86	130.75	6628.78
1355.91	130.7	6546.28
1355.96	130.65	6555.18
1356.01	130.6	6586.3
1356.06	130.55	6567.68
1356.11	130.5	6611.82
1356.16	130.45	6570.07
1356.21	130.4	6594.55
1356.26	130.35	6593.17
1356.31	130.3	6659.7
1356.36	130.25	6584.35
1356.41	130.2	6540.85
1356.46	130.15	6560.77
1356.51	130.1	6641.4
1356.56	130.05	6692.42
1356.61	130	6695.35
1356.66	129.95	6631.92
1356.71	129.9	6588.67
1356.76	129.85	6630.85
1356.81	129.8	6656.32
1356.86	129.75	6696.7
1356.91	129.7	6574.2
1356.96	129.65	6587.37
1357.01	129.6	6613.95
1357.06	129.55	6636.15
1357.11	129.5	6684.42
1357.16	129.45	6627.73
1357.21	129.4	6638.6
1357.26	129.35	6611.9
1357.31	129.3	6522.25
1357.36	129.25	6595.82
1357.41	129.2	6667.25
1357.46	129.15	6665.27
1357.51	129.1	6653.1
1357.56	129.05	6741.7
1357.61	129	6811.15
1357.66	128.95	6709.45
1357.71	128.9	6692.68
1357.76	128.85	6643.07
1357.81	128.8	6698.5
1357.86	128.75	6619.85
1357.91	128.7	6657.73
1357.96	128.65	6643.5
1358.01	128.6	6612.2
1358.06	128.55	6697.15
1358.11	128.5	6714.45
1358.16	128.45	6740.6
1358.21	128.4	6761.9
1358.26	128.35	6754.87
1358.31	128.3	6726.75
1358.36	128.25	6758.65
1358.41	128.2	6727.63
1358.46	128.15	6722.05
1358.51	128.1	6766.6
1358.56	128.05	6715.95
1358.61	128	6799.18
1358.66	127.95	6781.88
1358.71	127.9	6735.6
1358.76	127.85	6716.1
1358.81	127.8	6758.6
1358.86	127.75	6752.05
1358.91	127.7	6655.18
1358.96	127.65	6654.15
1359.01	127.6	6699.6
1359.06	127.55	6703.62
1359.11	127.5	6782.97
1359.16	127.45	6839.6
1359.21	127.4	6796.75
1359.26	127.35	6748.05
1359.31	127.3	6702.22
1359.36	127.25	6792.95
1359.41	127.2	6830.43
1359.46	127.15	6763
1359.51	127.1	6738.88
1359.56	127.05	6764.05
1359.61	127	6792.12
1359.66	126.95	6787.55
1359.71	126.9	6756.72
1359.76	126.85	6716.85
1359.81	126.8	6801.07
1359.86	126.75	6789.8
1359.91	126.7	6740.27
1359.96	126.65	6703.57
1360.01	126.6	6718.1
1360.06	126.55	6843.57
1360.11	126.5	6807.1
1360.16	126.45	6762.25
1360.21	126.4	6811.3
1360.26	126.35	6783.37
1360.31	126.3	6826.55
1360.36	126.25	6869.67
1360.41	126.2	6856.7
1360.46	126.15	6820.27
1360.51	126.1	6877.55
1360.56	126.05	6902.8
1360.61	126	6883.72
1360.66	125.95	6844.7
1360.71	125.9	6882.02
1360.76	125.85	6896.57
1360.81	125.8	6833.6
1360.86	125.75	6857.27
1360.91	125.7	6733.32
1360.96	125.65	6821.28
1361.01	125.6	6859.57
1361.06	125.55	6840.43
1361.11	125.5	6809.7
1361.16	125.45	6833.78
1361.21	125.4	6900.97
1361.26	125.35	6856.5
1361.31	125.3	6892.65
1361.36	125.25	6859.75
1361.41	125.2	6829.85
1361.46	125.15	6881.9
1361.51	125.1	6882.3
1361.56	125.05	6881.85
1361.61	125	6937.25
1361.66	124.95	6862.12
1361.71	124.9	6880.55
1361.76	124.85	6906
1361.81	124.8	6920.87
1361.86	124.75	6820.8
1361.91	124.7	6902.5
1361.96	124.65	6947.85
1362.01	124.6	7003.2
1362.06	124.55	6964.2
1362.11	124.5	6929.07
1362.16	124.45	6937.17
1362.21	124.4	6966.25
1362.26	124.35	6967
1362.31	124.3	6953.72
1362.36	124.25	6936.1
1362.41	124.2	6943.13
1362.46	124.15	6905.15
1362.51	124.1	6952.27
1362.56	124.05	6953.35
1362.61	124	7045.95
1362.66	123.95	7055.9
1362.71	123.9	6966.17
1362.76	123.85	7010.43
1362.81	123.8	7057.12
1362.86	123.75	6965.35
1362.91	123.7	6953.5
1362.96	123.65	6975.9
1363.01	123.6	6927.97
1363.06	123.55	6977.68
1363.11	123.5	7069.1
1363.16	123.45	7004.15
1363.21	123.4	6959.92
1363.26	123.35	7029.5
1363.31	123.3	7033.22
1363.36	123.25	7000.45
1363.41	123.2	7044.55
1363.46	123.15	7030.67
1363.51	123.1	7005.72
1363.56	123.05	7074.95
1363.61	123	7069.27
1363.66	122.95	7035.13
1363.71	122.9	7070.3
1363.76	122.85	7118.75
1363.81	122.8	7033.05
1363.86	122.75	6987.68
1363.91	122.7	7101.12
1363.96	122.65	7038.22
1364.01	122.6	7025.7
1364.06	122.55	7033.8
1364.11	122.5	7069.8
1364.16	122.45	7104.62
1364.21	122.4	7119.5
1364.26	122.35	7076.85
1364.31	122.3	7087
1364.36	122.25	7096.5
1364.41	122.2	7062.93
1364.46	122.15	7111.43
1364.51	122.1	7124.67
1364.56	122.05	7101.7
1364.61	122	7086.48
1364.66	121.95	7103.02
1364.71	121.9	7126.17
1364.76	121.85	7204.97
1364.81	121.8	7106.2
1364.86	121.75	7093.6
1364.91	121.7	7193.07
1364.96	121.65	7213.95
1365.01	121.6	7183.88
1365.06	121.55	7098.22
1365.11	121.5	7189.97
1365.16	121.45	7176.7
1365.21	121.4	7209.15
1365.26	121.35	7209.35
1365.31	121.3	7194.87
1365.36	121.25	7162.63
1365.41	121.2	7215.23
1365.46	121.15	7224.65
1365.51	121.1	7206.57
1365.56	121.05	7276.45
1365.61	121	7201.82
1365.66	120.95	7212.95
1365.71	120.9	7157.1
1365.76	120.85	7241.85
1365.81	120.8	7212.35
1365.86	120.75	7193.75
1365.91	120.7	7244.2
1365.96	120.65	7204.65
1366.01	120.6	7177.1
1366.06	120.55	7251.52
1366.11	120.5	7269.67
1366.16	120.45	7230.7
1366.21	120.4	7260.4
1366.26	120.35	7289.22
1366.31	120.3	7270.1
1366.36	120.25	7219.72
1366.41	120.2	7265.97
1366.46	120.15	7315.7
1366.51	120.1	7282.3
1366.56	120.05	7293.1
1366.61	120	7263.4
1366.66	119.95	7234.13
1366.71	119.9	7252.9
1366.76	119.85	7307.73
1366.81	119.8	7261.7
1366.86	119.75	7226.75
1366.91	119.7	7256.6
1366.96	119.65	7274.2
1367.01	119.6	7280.85
1367.06	119.55	7292.73
1367.11	119.5	7322.77
1367.16	119.45	7286.63
1367.21	119.4	7330.35
1367.26	119.35	7304.77
1367.31	119.3	7269.5
1367.36	119.25	7301.2
1367.41	119.2	7312.05
1367.46	119.15	7391.2
1367.51	119.1	7352.25
1367.56	119.05	7253.02
1367.61	119	7352.9
1367.66	118.95	7377.63
1367.71	118.9	7366.45
1367.76	118.85	7363.32
1367.81	118.8	7383.2
1367.86	118.75	7290.8
1367.91	118.7	7338.72
1367.96	118.65	7373.72
1368.01	118.6	7350.52
1368.06	118.55	7363.3
1368.11	118.5	7317.5
1368.16	118.45	7267.88
1368.21	118.4	7261.15
1368.26	118.35	7278.13
1368.31	118.3	7295.15
1368.36	118.25	7293.22
1368.41	118.2	7366.57
1368.46	118.15	7292.02
1368.51	118.1	7241.77
1368.56	118.05	7362.57
1368.61	118	7340.27
1368.66	117.95	7337.45
1368.71	117.9	7309.97
1368.76	117.85	7260.63
1368.81	117.8	7441.9
1368.86	117.75	7407.2
1368.91	117.7	7307.12
1368.96	117.65	7282.6
1369.01	117.6	7335.25
1369.06	117.55	7412.5
1369.11	117.5	7345.2
1369.16	117.45	7302.32
1369.21	117.4	7317.05
1369.26	117.35	7412.97
1369.31	117.3	7412.8
1369.36	117.25	7252.27
1369.41	117.2	7290.4
1369.46	117.15	7377.5
1369.51	117.1	7346.9
1369.56	117.05	7314.85
1369.61	117	7339.42
1369.66	116.95	7343.8
1369.71	116.9	7331.15
1369.76	116.85	7368.13
1369.81	116.8	7387.97
1369.86	116.75	7337.75
1369.91	116.7	7295.55
1369.96	116.65	7301.63
1370.01	116.6	7297.32
1370.06	116.55	7316.92
1370.11	116.5	7438.4
1370.16	116.45	7366.3
1370.21	116.4	7348.42
1370.26	116.35	7318
1370.31	116.3	7353.57
1370.36	116.25	7326.97
1370.41	116.2	7362.65
1370.46	116.15	7327.32
1370.51	116.1	7378.57
1370.56	116.05	7369.42
1370.61	116	7392.95
1370.66	115.95	7398.88
1370.71	115.9	7362.37
1370.76	115.85	7319.65
1370.81	115.8	7281.43
1370.86	115.75	7385.1
1370.91	115.7	7438.67
1370.96	115.65	7362.85
1371.01	115.6	7378.17
1371.06	115.55	7421.55
1371.11	115.5	7409.32
1371.16	115.45	7421.95
1371.21	115.4	7469.85
1371.26	115.35	7416.68
1371.31	115.3	7446.3
1371.36	115.25	7496.15
1371.41	115.2	7387.2
1371.46	115.15	7393.05
1371.51	115.1	7397.45
1371.56	115.05	7439.07
1371.61	115	7464.65
1371.66	114.95	7486.95
1371.71	114.9	7401.35
1371.76	114.85	7418.3
1371.81	114.8	7531.88
1371.86	114.75	7467.88
1371.91	114.7	7461.3
1371.96	114.65	7432.45
1372.01	114.6	7415.52
1372.06	114.55	7473.8
1372.11	114.5	7522.02
1372.16	114.45	7439.32
1372.21	114.4	7433.47
1372.26	114.35	7449.75
1372.31	114.3	7513.05
1372.36	114.25	7502.68
1372.41	114.2	7499.95
1372.46	114.15	7420.87
1372.51	114.1	7458.6
1372.56	114.05	7478.2
1372.61	114	7414.38
1372.66	113.95	7437.1
1372.71	113.9	7562.82
1372.76	113.85	7468.32
1372.81	113.8	7537.85
1372.86	113.75	7516.6
1372.91	113.7	7499.62
1372.96	113.65	7508.55
1373.01	113.6	7500.67
1373.06	113.55	7534.85
1373.11	113.5	7582.47
1373.16	113.45	7569.45
1373.21	113.4	7533.42
1373.26	113.35	7554.8
1373.31	113.3	7565.65
1373.36	113.25	7564.38
1373.41	113.2	7581.32
1373.46	113.15	7543.07
1373.51	113.1	7550.85
1373.56	113.05	7513.95
1373.61	113	7504.65
1373.66	112.95	7620.67
1373.71	112.9	7571.82
1373.76	112.85	7588.25
1373.81	112.8	7500.47
1373.86	112.75	7523.9
1373.91	112.7	7589.47
1373.96	112.65	7588.88
1374.01	112.6	7589.15
1374.06	112.55	7594.18
1374.11	112.5	7530.92
1374.16	112.45	7578.82
1374.21	112.4	7646.02
1374.26	112.35	7659.52
1374.31	112.3	7615.1
1374.36	112.25	7603.67
1374.41	112.2	7588.93
1374.46	112.15	7614.5
1374.51	112.1	7656.52
1374.56	112.05	7689.72
1374.61	112	7662.42
1374.66	111.95	7597.42
1374.71	111.9	7570
1374.76	111.85	7694.42
1374.81	111.8	7679.65
1374.86	111.75	7741.63
1374.91	111.7	7654.55
1374.96	111.65	7668.2
1375.01	111.6	7596.32
1375.06	111.55	7689.65
1375.11	111.5	7676.68
1375.16	111.45	7694.18
1375.21	111.4	7694.15
1375.26	111.35	7699.42
1375.31	111.3	7659.05
1375.36	111.25	7690.18
1375.41	111.2	7635.55
1375.46	111.15	7626.63
1375.51	111.1	7686.32
1375.56	111.05	7632.1
1375.61	111	7705.35
1375.66	110.95	7690.07
1375.71	110.9	7677.5
1375.76	110.85	7584.95
1375.81	110.8	7634.9
1375.86	110.75	7697.57
1375.91	110.7	7654.55
1375.96	110.65	7710.05
1376.01	110.6	7692.4
1376.06	110.55	7606.65
1376.11	110.5	7612.47
1376.16	110.45	7681.88
1376.21	110.4	7690.47
1376.26	110.35	7667.5
1376.31	110.3	7640.57
1376.36	110.25	7654.1
1376.41	110.2	7617.53
1376.46	110.15	7635.9
1376.51	110.1	7618.78
1376.56	110.05	7619.13
1376.61	110	7602.75
1376.66	109.95	7685.03
1376.71	109.9	7580.18
1376.76	109.85	7660.57
1376.81	109.8	7601.63
1376.86	109.75	7500.75
1376.91	109.7	7545.8
1376.96	109.65	7657.42
1377.01	109.6	7724.42
1377.06	109.55	7562.73
1377.11	109.5	7647.8
1377.16	109.45	7623.32
1377.21	109.4	7627.68
1377.26	109.35	7561.68
1377.31	109.3	7587.05
1377.36	109.25	7611.8
1377.41	109.2	7583.6
1377.46	109.15	7557.3
1377.51	109.1	7531.75
1377.56	109.05	7510.77
1377.61	109	7616.85
1377.66	108.95	7594.57
1377.71	108.9	7537.65
1377.76	108.85	7541.85
1377.81	108.8	7568.7
1377.86	108.75	7608.4
1377.91	108.7	7448.3
1377.96	108.65	7488.8
1378.01	108.6	7438.13
1378.06	108.55	7440.67
1378.11	108.5	7527.73
1378.16	108.45	7468.95
1378.21	108.4	7415
1378.26	108.35	7413.55
1378.31	108.3	7472.55
1378.36	108.25	7442.95
1378.41	108.2	7407.2
1378.46	108.15	7313.32
1378.51	108.1	7310.65
1378.56	108.05	7373.5
1378.61	108	7371.82
1378.66	107.95	7384.9
1378.71	107.9	7348.2
1378.76	107.85	7319.9
1378.81	107.8	7363.65
1378.86	107.75	7429.18
1378.91	107.7	7305.38
1378.96	107.65	7265.38
1379.01	107.6	7226.95
1379.06	107.55	7290.95
1379.11	107.5	7287.55
1379.16	107.45	7278.4
1379.21	107.4	7270.27
1379.26	107.35	7236.28
1379.31	107.3	7169.3
1379.36	107.25	7239.6
1379.41	107.2	7299.3
1379.46	107.15	7197.07
1379.51	107.1	7239
1379.56	107.05	7307.37
1379.61	107	7227.88
1379.66	106.95	7164.62
1379.71	106.9	7157.37
1379.76	106.85	7199.07
1379.81	106.8	7221.25
1379.86	106.75	7120.13
1379.91	106.7	7133.42
1379.96	106.65	7167.17
1380.01	106.6	7111.07
1380.06	106.55	7118.3
1380.11	106.5	7087
1380.16	106.45	7143.85
1380.21	106.4	7119.87
1380.26	106.35	7076.9
1380.31	106.3	7112.85
1380.36	106.25	6980.75
1380.41	106.2	7001.55
1380.46	106.15	7095.25
1380.51	106.1	7048
1380.56	106.05	7019.1
1380.61	106	6971.55
1380.66	105.95	7004.38
1380.71	105.9	7074.5
1380.76	105.85	7018.65
1380.81	105.8	6957.05
1380.86	105.75	7059.15
1380.91	105.7	6988.07
1380.96	105.65	6972.75
1381.01	105.6	6949.47
1381.06	105.55	6987.97
1381.11	105.5	6978.17
1381.16	105.45	7030.92
1381.21	105.4	7007.4
1381.26	105.35	6914.8
1381.31	105.3	7033.5
1381.36	105.25	7069.47
1381.41	105.2	7001.95
1381.46	105.15	7035.77
1381.51	105.1	6993.6
1381.56	105.05	6990.85
1381.61	105	6869.9
1381.66	104.95	6934.72
1381.71	104.9	7014.85
1381.76	104.85	6943.65
1381.81	104.8	6929.38
1381.86	104.75	6989.9
1381.91	104.7	6908.85
1381.96	104.65	6981.92
1382.01	104.6	6926.72
1382.06	104.55	6960.75
1382.11	104.5	6992.15
1382.16	104.45	6926.1
1382.21	104.4	6828.17
1382.26	104.35	6847.82
1382.31	104.3	6875.47
1382.36	104.25	6962.12
1382.41	104.2	6887.4
1382.46	104.15	6950.7
1382.51	104.1	6869.4
1382.56	104.05	6883.32
1382.61	104	6985.85
1382.66	103.95	6908.27
1382.71	103.9	6919.38
1382.76	103.85	6872.57
1382.81	103.8	6802.1
1382.86	103.75	6813.2
1382.91	103.7	6935.35
1382.96	103.65	6969.35
1383.01	103.6	6976.35
1383.06	103.55	6962.82
1383.11	103.5	6999.52
1383.16	103.45	6919.72
1383.21	103.4	6843.98
1383.26	103.35	6927.5
1383.31	103.3	6973.7
1383.36	103.25	6889.45
1383.41	103.2	6957.07
1383.46	103.15	7053.65
1383.51	103.1	7015.27
1383.56	103.05	6919.07
1383.61	103	6924.9
1383.66	102.95	6958.37
1383.71	102.9	7051.32
1383.76	102.85	6959.45
1383.81	102.8	6936.75
1383.86	102.75	7070.92
1383.91	102.7	7029.62
1383.96	102.65	7006.05
1384.01	102.6	7010.38
1384.06	102.55	6996.92
1384.11	102.5	6963.85
1384.16	102.45	6999.1
1384.21	102.4	7010.72
1384.26	102.35	7019.35
1384.31	102.3	7060.9
1384.36	102.25	7034.5
1384.41	102.2	7092.27
1384.46	102.15	7079.25
1384.51	102.1	7023.6
1384.56	102.05	7051.48
1384.61	102	7029.57
1384.66	101.95	7065.77
1384.71	101.9	7033.5
1384.76	101.85	7059.95
1384.81	101.8	7042.6
1384.86	101.75	7136.97
1384.91	101.7	7065.15
1384.96	101.65	7091.6
1385.01	101.6	7110.15
1385.06	101.55	7156.22
1385.11	101.5	7089.22
1385.16	101.45	7164.62
1385.21	101.4	7115.25
1385.26	101.35	7116.32
1385.31	101.3	7157.68
1385.36	101.25	7166.92
1385.41	101.2	7156.15
1385.46	101.15	7182.45
1385.51	101.1	7141.43
1385.56	101.05	7148.95
1385.61	101	7060.95
1385.66	100.95	7107.2
1385.71	100.9	7130.35
1385.76	100.85	7235.65
1385.81	100.8	7184.4
1385.86	100.75	7206.15
1385.91	100.7	7243.35
1385.96	100.65	7187.05
1386.01	100.6	7235.63
1386.06	100.55	7242.3
1386.11	100.5	7216.05
1386.16	100.45	7235.5
1386.21	100.4	7258.42
1386.26	100.35	7214.22
1386.31	100.3	7265.4
1386.36	100.25	7356.82
1386.41	100.2	7322.93
1386.46	100.15	7283.62
1386.51	100.1	7278.67
1386.56	100.05	7327.15
1386.61	100	7294.1
1386.66	99.95	7290.25
1386.71	99.9	7403.05
1386.76	99.85	7355.45
1386.81	99.8	7360.47
1386.86	99.75	7383.88
1386.91	99.7	7364.67
1386.96	99.65	7444.02
1387.01	99.6	7380.4
1387.06	99.55	7381.25
1387.11	99.5	7344.32
1387.16	99.45	7408.3
1387.21	99.4	7434.02
1387.26	99.35	7433.65
1387.31	99.3	7422.42
1387.36	99.25	7358.47
1387.41	99.2	7433.88
1387.46	99.15	7474
1387.51	99.1	7456.63
1387.56	99.05	7488.57
1387.61	99	7450.43
1387.66	98.95	7396.02
1387.71	98.9	7491.6
1387.76	98.85	7397
1387.81	98.8	7375.67
1387.86	98.75	7463.47
1387.91	98.7	7528.2
1387.96	98.65	7527.22
1388.01	98.6	7479.6
1388.06	98.55	7530.5
1388.11	98.5	7495.63
1388.16	98.45	7452.1
1388.21	98.4	7557.02
1388.26	98.35	7566.57
1388.31	98.3	7577.22
1388.36	98.25	7577.57
1388.41	98.2	7553.2
1388.46	98.15	7588.52
1388.51	98.1	7527.12
1388.56	98.05	7427.77
1388.61	98	7503.17
1388.66	97.95	7509.18
1388.71	97.9	7482.82
1388.76	97.85	7559.3
1388.81	97.8	7515.4
1388.86	97.75	7478.62
1388.91	97.7	7510.9
1388.96	97.65	7606.17
1389.01	97.6	7554.97
1389.06	97.55	7548.72
1389.11	97.5	7546.48
1389.16	97.45	7511.8
1389.21	97.4	7528.42
1389.26	97.35	7517.42
1389.31	97.3	7531.45
1389.36	97.25	7495.18
1389.41	97.2	7456.97
1389.46	97.15	7535
1389.51	97.1	7543.88
1389.56	97.05	7430.47
1389.61	97	7448.25
1389.66	96.95	7426.17
1389.71	96.9	7386.43
1389.76	96.85	7381.02
1389.81	96.8	7383.45
1389.86	96.75	7423.47
1389.91	96.7	7403.7
1389.96	96.65	7386.55
1390.01	96.6	7353.5
1390.06	96.55	7292.25
1390.11	96.5	7302.9
1390.16	96.45	7334.92
1390.21	96.4	7353.9
1390.26	96.35	7343.37
1390.31	96.3	7250.72
1390.36	96.25	7289.38
1390.41	96.2	7294.32
1390.46	96.15	7303.67
1390.51	96.1	7323.8
1390.56	96.05	7317.9
1390.61	96	7342.2
1390.66	95.95	7337.45
1390.71	95.9	7344.85
1390.76	95.85	7291.05
1390.81	95.8	7269.67
1390.86	95.75	7219.57
1390.91	95.7	7277.4
1390.96	95.65	7307.45
1391.01	95.6	7282.53
1391.06	95.55	7260.27
1391.11	95.5	7301.6
1391.16	95.45	7377.42
1391.21	95.4	7376.35
1391.26	95.35	7429.18
1391.31	95.3	7378.52
1391.36	95.25	7431.97
1391.41	95.2	7334.65
1391.46	95.15	7423.65
1391.51	95.1	7505.43
1391.56	95.05	7437.7
1391.61	95	7442.85
1391.66	94.95	7469.9
1391.71	94.9	7547.97
1391.76	94.85	7500.77
1391.81	94.8	7527.9
1391.86	94.75	7534.18
1391.91	94.7	7503.3
1391.96	94.65	7538.52
1392.01	94.6	7633.9
1392.06	94.55	7650.2
1392.11	94.5	7611.05
1392.16	94.45	7646.22
1392.21	94.4	7599.77
1392.26	94.35	7637.73
1392.31	94.3	7589.82
1392.36	94.25	7653.3
1392.41	94.2	7636
1392.46	94.15	7687.42
1392.51	94.1	7627.55
1392.56	94.05	7636.55
1392.61	94	7591.48
1392.66	93.95	7614.42
1392.71	93.9	7674.82
1392.76	93.85	7619.7
1392.81	93.8	7591.52
1392.86	93.75	7620.3
1392.91	93.7	7575.3
1392.96	93.65	7583.93
1393.01	93.6	7657.1
1393.06	93.55	7605.23
1393.11	93.5	7684.02
1393.16	93.45	7626.63
1393.21	93.4	7571.43
1393.26	93.35	7592.25
1393.31	93.3	7545.55
1393.36	93.25	7507.15
1393.41	93.2	7457.22
1393.46	93.15	7477.68
1393.51	93.1	7465.7
1393.56	93.05	7456.68
1393.61	93	7443.32
1393.66	92.95	7414.57
1393.71	92.9	7348
1393.76	92.85	7364.7
1393.81	92.8	7329.77
1393.86	92.75	7281.85
1393.91	92.7	7390.95
1393.96	92.65	7344.85
1394.01	92.6	7352.42
1394.06	92.55	7323
1394.11	92.5	7344.2
1394.16	92.45	7269.95
1394.21	92.4	7294.67
1394.26	92.35	7297.4
1394.31	92.3	7235.75
1394.36	92.25	7242.8
1394.41	92.2	7308.1
1394.46	92.15	7273.07
1394.51	92.1	7310.67
1394.56	92.05	7255
1394.61	92	7308.35
1394.66	91.95	7340.9
1394.71	91.9	7344.45
1394.76	91.85	7347.07
1394.81	91.8	7321.8
1394.86	91.75	7316.12
1394.91	91.7	7386.12
1394.96	91.65	7430.03
1395.01	91.6	7407.85
1395.06	91.55	7450.13
1395.11	91.5	7529
1395.16	91.45	7587.9
1395.21	91.4	7523.07
1395.26	91.35	7586.57
1395.31	91.3	7658.88
1395.36	91.25	7605.4
1395.41	91.2	7690.23
1395.46	91.15	7696.43
1395.51	91.1	7769.62
1395.56	91.05	7837.2
1395.61	91	7886.75
1395.66	90.95	7868.93
1395.71	90.9	7919.6
1395.76	90.85	7951.72
1395.81	90.8	8080.15
1395.86	90.75	8072.73
1395.91	90.7	8105.95
1395.96	90.65	8145.43
1396.01	90.6	8154.8
1396.06	90.55	8153.37
1396.11	90.5	8086.05
1396.16	90.45	8174.72
1396.21	90.4	8174.95
1396.26	90.35	8168.85
1396.31	90.3	8315.5
1396.36	90.25	8250.1
1396.41	90.2	8183.82
1396.46	90.15	8232.73
1396.51	90.1	8259
1396.56	90.05	8200.82
1396.61	90	8130.3
1396.66	89.95	8154.5
1396.71	89.9	8269.85
1396.76	89.85	8351.02
1396.81	89.8	8319.5
1396.86	89.75	8346.6
1396.91	89.7	8308.55
1396.96	89.65	8401.02
1397.01	89.6	8455.05
1397.06	89.55	8506.88
1397.11	89.5	8667.58
1397.16	89.45	8638.1
1397.21	89.4	8788.85
1397.26	89.35	9042.55
1397.31	89.3	8958.13
1397.36	89.25	9136.4
1397.41	89.2	9323.8
1397.46	89.15	9586.77
1397.51	89.1	9926.65
1397.56	89.05	10059.4
1397.61	89	10423.2
1397.66	88.95	10684.2
1397.71	88.9	11025.2
1397.76	88.85	11553.8
1397.81	88.8	11968.7
1397.86	88.75	12560.7
1397.91	88.7	13138.8
1397.96	88.65	13906.2
1398.01	88.6	14841.8
1398.06	88.55	15886.6
1398.11	88.5	17242.6
1398.16	88.45	18853.8
1398.21	88.4	20804.8
1398.26	88.35	23330.3
1398.31	88.3	26048.8
1398.36	88.25	29417.8
1398.41	88.2	33399.5
1398.46	88.15	38105.7
1398.51	88.1	43558.2
1398.56	88.05	49511.5
1398.61	88	56131
1398.66	87.95	62822.5
1398.71	87.9	69320
1398.76	87.85	75642.3
1398.81	87.8	81159.8
1398.86	87.75	85079.5
1398.91	87.7	87728.3
1398.96	87.65	88906
1399.01	87.6	88082
1399.06	87.55	85464.5
1399.11	87.5	81612.3
1399.16	87.45	76726.5
1399.21	87.4	70734.5
1399.26	87.35	64416
1399.31	87.3	57834.3
1399.36	87.25	51733.2
1399.41	87.2	45992
1399.46	87.15	40537.3
1399.51	87.1	35594.8
1399.56	87.05	31523.8
1399.61	87	27654
1399.66	86.95	24443
1399.71	86.9	21732.2
1399.76	86.85	19224.8
1399.81	86.8	17305.6
1399.86	86.75	15596.9
1399.91	86.7	14076.5
1399.96	86.65	13002.2
1400.01	86.6	12013.8
1400.06	86.55	11254.6
1400.11	86.5	10666.9
1400.16	86.45	10100
1400.21	86.4	9606.35
1400.26	86.35	9126
1400.31	86.3	8851.17
1400.36	86.25	8583.47
1400.41	86.2	8317.02
1400.46	86.15	8198.02
1400.51	86.1	8025.75
1400.56	86.05	7843.6
1400.61	86	7785.23
1400.66	85.95	7813.47
1400.71	85.9	7651
1400.76	85.85	7639.45
1400.81	85.8	7725.55
1400.86	85.75	7725.27
1400.91	85.7	7834.72
1400.96	85.65	7864.77
1401.01	85.6	8050.27
1401.06	85.55	8159.45
1401.11	85.5	8295.5
1401.16	85.45	8549.47
1401.21	85.4	8845.05
1401.26	85.35	9175.02
1401.31	85.3	9456.92
1401.36	85.25	9852.9
1401.41	85.2	10293.6
1401.46	85.15	10816.2
1401.51	85.1	11326.3
1401.56	85.05	12066
1401.61	85	13103.5
1401.66	84.95	14090
1401.71	84.9	15270.6
1401.76	84.85	16544.4
1401.81	84.8	18481
1401.86	84.75	20638.6
1401.91	84.7	23126.5
1401.96	84.65	26473
1402.01	84.6	30312.8
1402.06	84.55	35100.5
1402.11	84.5	40939.3
1402.16	84.45	47231
1402.21	84.4	54837
1402.26	84.35	62801.3
1402.31	84.3	71735.5
1402.36	84.25	80699.3
1402.41	84.2	89375.5
1402.46	84.15	97245.8
1402.51	84.1	103945
1402.56	84.05	108216
1402.61	84	110801
1402.66	83.95	110953
1402.71	83.9	108558
1402.76	83.85	104444
1402.81	83.8	98477
1402.86	83.75	91002.5
1402.91	83.7	82875
1402.96	83.65	74408.8
1403.01	83.6	65882.5
1403.06	83.55	57580
1403.11	83.5	50281.5
1403.16	83.45	43535.5
1403.21	83.4	37512.3
1403.26	83.35	32509.5
1403.31	83.3	27638.8
1403.36	83.25	23767
1403.41	83.2	20442
1403.46	83.15	17477.5
1403.51	83.1	15061.5
1403.56	83.05	13175.1
1403.61	83	11534.7
1403.66	82.95	10181.9
1403.71	82.9	9012.82
1403.76	82.85	8155.52
1403.81	82.8	7423.6
1403.86	82.75	6797.37
1403.91	82.7	6254.47
1403.96	82.65	5714.05
1404.01	82.6	5324.72
1404.06	82.55	5046.72
1404.11	82.5	4744.95
1404.16	82.45	4542.6
1404.21	82.4	4300.2
1404.26	82.35	4087.47
1404.31	82.3	3958.37
1404.36	82.25	3742.97
1404.41	82.2	3653.87
1404.46	82.15	3466.45
1404.51	82.1	3375.55
1404.56	82.05	3298.97
1404.61	82	3199.3
1404.66	81.95	3079.18
1404.71	81.9	3019.22
1404.76	81.85	2919.9
1404.81	81.8	2845.2
1404.86	81.75	2825.1
1404.91	81.7	2735.4
1404.96	81.65	2723.57
1405.01	81.6	2610.85
1405.06	81.55	2561.45
1405.11	81.5	2541.13
1405.16	81.45	2496.86
1405.21	81.4	2459.09
1405.26	81.35	2393.45
1405.31	81.3	2338.04
1405.36	81.25	2336.97
1405.41	81.2	2277.68
1405.46	81.15	2305.63
1405.51	81.1	2227.67
1405.56	81.05	2220.38
1405.61	81	2169.91
1405.66	80.95	2133.89
1405.71	80.9	2079.42
1405.76	80.85	2072.83
1405.81	80.8	2058.42
1405.86	80.75	2038.51
1405.91	80.7	2064.23
1405.96	80.65	2023.18
1406.01	80.6	1955.18
1406.06	80.55	1927.32
1406.11	80.5	1911.17
1406.16	80.45	1887.73
1406.21	80.4	1928.43
1406.26	80.35	1931.33
1406.31	80.3	1889.89
1406.36	80.25	1815.22
1406.41	80.2	1883.5
1406.46	80.15	1895.44
1406.51	80.1	1863.69
1406.56	80.05	1852.01
1406.61	80	1826.14
1406.66	79.95	1839.57
1406.71	79.9	1806.02
1406.76	79.85	1781.03
1406.81	79.8	1765.45
1406.86	79.75	1747.32
1406.91	79.7	1732.5
1406.96	79.65	1751.69
1407.01	79.6	1753.78
1407.06	79.55	1719.12
1407.11	79.5	1742.99
1407.16	79.45	1734.03
1407.21	79.4	1720.33
1407.26	79.35	1711.19
1407.31	79.3	1681.45
1407.36	79.25	1706.29
1407.41	79.2	1709.63
1407.46	79.15	1715.27
1407.51	79.1	1663.78
1407.56	79.05	1680.93
1407.61	79	1676.8
1407.66	78.95	1681.98
1407.71	78.9	1661.4
1407.76	78.85	1649.87
1407.81	78.8	1635.37
1407.86	78.75	1654.73
1407.91	78.7	1671.94
1407.96	78.65	1662.48
1408.01	78.6	1671.79
1408.06	78.55	1631.29
1408.11	78.5	1609.93
1408.16	78.45	1630.11
1408.21	78.4	1641.9
1408.26	78.35	1647.02
1408.31	78.3	1691.97
1408.36	78.25	1627.18
1408.41	78.2	1602.38
1408.46	78.15	1652.34
1408.51	78.1	1626.31
1408.56	78.05	1635.89
1408.61	78	1615.75
1408.66	77.95	1662.63
1408.71	77.9	1650.25
1408.76	77.85	1656.43
1408.81	77.8	1602.11
1408.86	77.75	1658.87
1408.91	77.7	1656.65
1408.96	77.65	1639.21
1409.01	77.6	1633.54
1409.06	77.55	1631.07
1409.11	77.5	1618.61
1409.16	77.45	1614.25
1409.21	77.4	1657.69
1409.26	77.35	1622.08
1409.31	77.3	1615.88
1409.36	77.25	1634.59
1409.41	77.2	1672.56
1409.46	77.15	1668.03
1409.51	77.1	1657.7
1409.56	77.05	1639.99
1409.61	77	1666.1
1409.66	76.95	1645.26
1409.71	76.9	1686.76
1409.76	76.85	1680.12
1409.81	76.8	1672.37
1409.86	76.75	1630.46
1409.91	76.7	1670.9
1409.96	76.65	1651.45
1410.01	76.6	1663.93
1410.06	76.55	1665.56
1410.11	76.5	1693.11
1410.16	76.45	1694.3
1410.21	76.4	1680.55
1410.26	76.35	1691.22
1410.31	76.3	1659.3
1410.36	76.25	1698.9
1410.41	76.2	1717.23
1410.46	76.15	1720.77
1410.51	76.1	1700.44
1410.56	76.05	1703.39
1410.61	76	1737.03
1410.66	75.95	1739.3
1410.71	75.9	1750.26
1410.76	75.85	1755.08
1410.81	75.8	1769.17
1410.86	75.75	1759.01
1410.91	75.7	1796.17
1410.96	75.65	1801.52
1411.01	75.6	1800.63
1411.06	75.55	1816.29
1411.11	75.5	1803.18
1411.16	75.45	1824.88
1411.21	75.4	1826.65
1411.26	75.35	1848.61
1411.31	75.3	1803.92
1411.36	75.25	1812.47
1411.41	75.2	1825.49
1411.46	75.15	1825.84
1411.51	75.1	1845.3
1411.56	75.05	1890.96
1411.61	75	1920.29