C:\Users\Mark\ownCloud\Muelheim Group\Projects\Gas phase background\EX321_CEC356_Au Ag and Cu in O2.vms
Pr:Au4f
	Characteristic Energy eV	1486.61	Acquisition Time s	1
KE_Pr:Au4f	BE_Pr:Au4f	CPS_Pr:Au4f
1311.61	175	3015.58
1311.71	174.9	2987.05
1311.81	174.8	3016.88
1311.91	174.7	3029.62
1312.01	174.6	3007.29
1312.11	174.5	3030.7
1312.21	174.4	3049.87
1312.31	174.3	3052.69
1312.41	174.2	3044.58
1312.51	174.1	3024.61
1312.61	174	3048.1
1312.71	173.9	3045.53
1312.81	173.8	3042.21
1312.91	173.7	3011.94
1313.01	173.6	3033.13
1313.11	173.5	3029.88
1313.21	173.4	3021.36
1313.31	173.3	3027.93
1313.41	173.2	3039.94
1313.51	173.1	3064.7
1313.61	173	3027.77
1313.71	172.9	3040.33
1313.81	172.8	3047.62
1313.91	172.7	3063.85
1314.01	172.6	3062.96
1314.11	172.5	3014.92
1314.21	172.4	3032.69
1314.31	172.3	3050.02
1314.41	172.2	3036.57
1314.51	172.1	3004.88
1314.61	172	3018.39
1314.71	171.9	3026.51
1314.81	171.8	3043.38
1314.91	171.7	3053.87
1315.01	171.6	3039.05
1315.11	171.5	3041.81
1315.21	171.4	3046.82
1315.31	171.3	3105.6
1315.41	171.2	3079.53
1315.51	171.1	3083.85
1315.61	171	3090.17
1315.71	170.9	3053.86
1315.81	170.8	3039.77
1315.91	170.7	3038.4
1316.01	170.6	3034.68
1316.11	170.5	3079.94
1316.21	170.4	3045.97
1316.31	170.3	3077.73
1316.41	170.2	3085.21
1316.51	170.1	3057.43
1316.61	170	3008.38
1316.71	169.9	3041.45
1316.81	169.8	3076.68
1316.91	169.7	3026.23
1317.01	169.6	3029.43
1317.11	169.5	3073.16
1317.21	169.4	3034.28
1317.31	169.3	3061.7
1317.41	169.2	3032.21
1317.51	169.1	3078.6
1317.61	169	3079.01
1317.71	168.9	3069.93
1317.81	168.8	3071.14
1317.91	168.7	3068.32
1318.01	168.6	3046.49
1318.11	168.5	3043.93
1318.21	168.4	3058.22
1318.31	168.3	3088.28
1318.41	168.2	3093.88
1318.51	168.1	3066.86
1318.61	168	3057.1
1318.71	167.9	3067.46
1318.81	167.8	3092
1318.91	167.7	3062.33
1319.01	167.6	3054.25
1319.11	167.5	3097.13
1319.21	167.4	3092.55
1319.31	167.3	3093.07
1319.41	167.2	3091.38
1319.51	167.1	3122.47
1319.61	167	3075.56
1319.71	166.9	3116.81
1319.81	166.8	3083.36
1319.91	166.7	3100.82
1320.01	166.6	3079.07
1320.11	166.5	3062.07
1320.21	166.4	3061.97
1320.31	166.3	3077.18
1320.41	166.2	3080.27
1320.51	166.1	3055.99
1320.61	166	3045.77
1320.71	165.9	3061.62
1320.81	165.8	3094.64
1320.91	165.7	3084.99
1321.01	165.6	3075.12
1321.11	165.5	3071.46
1321.21	165.4	3061.69
1321.31	165.3	3063.21
1321.41	165.2	3050.51
1321.51	165.1	3094.15
1321.61	165	3049.06
1321.71	164.9	3033.08
1321.81	164.8	3094.03
1321.91	164.7	3111.21
1322.01	164.6	3124.17
1322.11	164.5	3111.52
1322.21	164.4	3077.89
1322.31	164.3	3055.74
1322.41	164.2	3107.82
1322.51	164.1	3152.52
1322.61	164	3094.7
1322.71	163.9	3094.63
1322.81	163.8	3082.73
1322.91	163.7	3103.59
1323.01	163.6	3105.73
1323.11	163.5	3129.9
1323.21	163.4	3107.21
1323.31	163.3	3109.53
1323.41	163.2	3114.03
1323.51	163.1	3125.63
1323.61	163	3123.5
1323.71	162.9	3108.51
1323.81	162.8	3119.92
1323.91	162.7	3119.55
1324.01	162.6	3132.56
1324.11	162.5	3086.81
1324.21	162.4	3136
1324.31	162.3	3135.24
1324.41	162.2	3132.59
1324.51	162.1	3139.9
1324.61	162	3123.85
1324.71	161.9	3137.11
1324.81	161.8	3115.61
1324.91	161.7	3124.87
1325.01	161.6	3112.03
1325.11	161.5	3113.57
1325.21	161.4	3092.95
1325.31	161.3	3132.23
1325.41	161.2	3125.97
1325.51	161.1	3177.3
1325.61	161	3136.18
1325.71	160.9	3120.66
1325.81	160.8	3111.54
1325.91	160.7	3112.59
1326.01	160.6	3118.6
1326.11	160.5	3139.05
1326.21	160.4	3108.47
1326.31	160.3	3135.49
1326.41	160.2	3100.31
1326.51	160.1	3114.89
1326.61	160	3136.39
1326.71	159.9	3148.99
1326.81	159.8	3150.7
1326.91	159.7	3179.42
1327.01	159.6	3149.83
1327.11	159.5	3172.02
1327.21	159.4	3126.35
1327.31	159.3	3158.23
1327.41	159.2	3182.13
1327.51	159.1	3159.63
1327.61	159	3156.9
1327.71	158.9	3169.46
1327.81	158.8	3208.34
1327.91	158.7	3144.8
1328.01	158.6	3141.09
1328.11	158.5	3162.33
1328.21	158.4	3148.38
1328.31	158.3	3146.95
1328.41	158.2	3195.18
1328.51	158.1	3181.37
1328.61	158	3152.35
1328.71	157.9	3185.82
1328.81	157.8	3152.18
1328.91	157.7	3146.81
1329.01	157.6	3124.93
1329.11	157.5	3153.58
1329.21	157.4	3098.92
1329.31	157.3	3172.91
1329.41	157.2	3155.11
1329.51	157.1	3186.88
1329.61	157	3182.23
1329.71	156.9	3184.13
1329.81	156.8	3206.55
1329.91	156.7	3189.96
1330.01	156.6	3187.49
1330.11	156.5	3212.46
1330.21	156.4	3244.97
1330.31	156.3	3227.97
1330.41	156.2	3181.66
1330.51	156.1	3214.05
1330.61	156	3177.29
1330.71	155.9	3161.96
1330.81	155.8	3166.82
1330.91	155.7	3190.08
1331.01	155.6	3182.87
1331.11	155.5	3187.98
1331.21	155.4	3227.92
1331.31	155.3	3221.62
1331.41	155.2	3193.69
1331.51	155.1	3198.13
1331.61	155	3191.85
1331.71	154.9	3209.81
1331.81	154.8	3175.84
1331.91	154.7	3212.59
1332.01	154.6	3197.3
1332.11	154.5	3241.09
1332.21	154.4	3258.46
1332.31	154.3	3207.8
1332.41	154.2	3234.48
1332.51	154.1	3226.77
1332.61	154	3205.59
1332.71	153.9	3210.01
1332.81	153.8	3279.79
1332.91	153.7	3259.86
1333.01	153.6	3222.58
1333.11	153.5	3191.8
1333.21	153.4	3205.64
1333.31	153.3	3246.92
1333.41	153.2	3245.27
1333.51	153.1	3236.8
1333.61	153	3255.58
1333.71	152.9	3227.15
1333.81	152.8	3241.04
1333.91	152.7	3225.99
1334.01	152.6	3232.97
1334.11	152.5	3230.77
1334.21	152.4	3266.86
1334.31	152.3	3252.94
1334.41	152.2	3239.66
1334.51	152.1	3244.3
1334.61	152	3239.78
1334.71	151.9	3300.43
1334.81	151.8	3264.78
1334.91	151.7	3246.77
1335.01	151.6	3280.14
1335.11	151.5	3289.33
1335.21	151.4	3301.86
1335.31	151.3	3277.77
1335.41	151.2	3296.97
1335.51	151.1	3258.3
1335.61	151	3266.78
1335.71	150.9	3312.46
1335.81	150.8	3268.53
1335.91	150.7	3264.77
1336.01	150.6	3263.85
1336.11	150.5	3282.89
1336.21	150.4	3294.31
1336.31	150.3	3258.86
1336.41	150.2	3302.61
1336.51	150.1	3274.3
1336.61	150	3241.84
1336.71	149.9	3264.45
1336.81	149.8	3258.26
1336.91	149.7	3250.35
1337.01	149.6	3263.1
1337.11	149.5	3271.81
1337.21	149.4	3298.66
1337.31	149.3	3312.64
1337.41	149.2	3308.4
1337.51	149.1	3295.32
1337.61	149	3283.81
1337.71	148.9	3258.29
1337.81	148.8	3280.67
1337.91	148.7	3250.04
1338.01	148.6	3271.12
1338.11	148.5	3317.51
1338.21	148.4	3298.73
1338.31	148.3	3264.24
1338.41	148.2	3280.61
1338.51	148.1	3284.91
1338.61	148	3298.85
1338.71	147.9	3257.07
1338.81	147.8	3272.16
1338.91	147.7	3254.44
1339.01	147.6	3315.58
1339.11	147.5	3300.08
1339.21	147.4	3330.18
1339.31	147.3	3306.46
1339.41	147.2	3339.3
1339.51	147.1	3343.23
1339.61	147	3293.71
1339.71	146.9	3329.23
1339.81	146.8	3293.07
1339.91	146.7	3319.43
1340.01	146.6	3327.48
1340.11	146.5	3325.63
1340.21	146.4	3302.98
1340.31	146.3	3305.84
1340.41	146.2	3299.34
1340.51	146.1	3307.44
1340.61	146	3313.55
1340.71	145.9	3337.04
1340.81	145.8	3319.31
1340.91	145.7	3302.57
1341.01	145.6	3311.86
1341.11	145.5	3311.99
1341.21	145.4	3346.99
1341.31	145.3	3335.61
1341.41	145.2	3284.86
1341.51	145.1	3304.59
1341.61	145	3327.71
1341.71	144.9	3325.91
1341.81	144.8	3353.22
1341.91	144.7	3313.74
1342.01	144.6	3301.07
1342.11	144.5	3322.97
1342.21	144.4	3353.13
1342.31	144.3	3316.13
1342.41	144.2	3293.01
1342.51	144.1	3320.85
1342.61	144	3302.27
1342.71	143.9	3295.05
1342.81	143.8	3301.06
1342.91	143.7	3346.07
1343.01	143.6	3297.42
1343.11	143.5	3346.76
1343.21	143.4	3325.11
1343.31	143.3	3342.92
1343.41	143.2	3376.15
1343.51	143.1	3326.53
1343.61	143	3347.82
1343.71	142.9	3355.84
1343.81	142.8	3331.24
1343.91	142.7	3324.92
1344.01	142.6	3342.53
1344.11	142.5	3337.2
1344.21	142.4	3334.74
1344.31	142.3	3357.21
1344.41	142.2	3286.65
1344.51	142.1	3355.44
1344.61	142	3354.39
1344.71	141.9	3297.33
1344.81	141.8	3298.64
1344.91	141.7	3345.47
1345.01	141.6	3321.26
1345.11	141.5	3380.4
1345.21	141.4	3367.11
1345.31	141.3	3322.74
1345.41	141.2	3335.79
1345.51	141.1	3320.06
1345.61	141	3332.37
1345.71	140.9	3353.24
1345.81	140.8	3326.35
1345.91	140.7	3348.74
1346.01	140.6	3354.79
1346.11	140.5	3363.88
1346.21	140.4	3367.78
1346.31	140.3	3344.27
1346.41	140.2	3357.79
1346.51	140.1	3367.23
1346.61	140	3361.66
1346.71	139.9	3348.12
1346.81	139.8	3365.22
1346.91	139.7	3332.76
1347.01	139.6	3361.9
1347.11	139.5	3354.06
1347.21	139.4	3361.53
1347.31	139.3	3375.33
1347.41	139.2	3373.87
1347.51	139.1	3381.21
1347.61	139	3372.44
1347.71	138.9	3347.04
1347.81	138.8	3383.51
1347.91	138.7	3400.7
1348.01	138.6	3368.07
1348.11	138.5	3382.1
1348.21	138.4	3386.52
1348.31	138.3	3410.9
1348.41	138.2	3432.29
1348.51	138.1	3393.03
1348.61	138	3352.62
1348.71	137.9	3339.86
1348.81	137.8	3409.61
1348.91	137.7	3454.74
1349.01	137.6	3411.28
1349.11	137.5	3415.02
1349.21	137.4	3377.27
1349.31	137.3	3386.21
1349.41	137.2	3418.23
1349.51	137.1	3435.98
1349.61	137	3411.06
1349.71	136.9	3410.56
1349.81	136.8	3413.24
1349.91	136.7	3392.88
1350.01	136.6	3391.77
1350.11	136.5	3389.8
1350.21	136.4	3388.94
1350.31	136.3	3380.96
1350.41	136.2	3379.02
1350.51	136.1	3436.23
1350.61	136	3452.89
1350.71	135.9	3449.71
1350.81	135.8	3422.48
1350.91	135.7	3407.89
1351.01	135.6	3407.96
1351.11	135.5	3442.26
1351.21	135.4	3412.67
1351.31	135.3	3461.88
1351.41	135.2	3475.34
1351.51	135.1	3382.16
1351.61	135	3426.43
1351.71	134.9	3397.78
1351.81	134.8	3449.35
1351.91	134.7	3434.23
1352.01	134.6	3417.66
1352.11	134.5	3430.98
1352.21	134.4	3415.75
1352.31	134.3	3441.88
1352.41	134.2	3448.16
1352.51	134.1	3442.24
1352.61	134	3449.43
1352.71	133.9	3472.47
1352.81	133.8	3497.74
1352.91	133.7	3436.46
1353.01	133.6	3435.22
1353.11	133.5	3440.46
1353.21	133.4	3457.76
1353.31	133.3	3454.81
1353.41	133.2	3438.98
1353.51	133.1	3401.86
1353.61	133	3472.45
1353.71	132.9	3471.74
1353.81	132.8	3434.64
1353.91	132.7	3424.44
1354.01	132.6	3479.29
1354.11	132.5	3457.82
1354.21	132.4	3482.4
1354.31	132.3	3460.58
1354.41	132.2	3466.63
1354.51	132.1	3483.61
1354.61	132	3490.27
1354.71	131.9	3478.6
1354.81	131.8	3523.56
1354.91	131.7	3479.2
1355.01	131.6	3495.57
1355.11	131.5	3483.82
1355.21	131.4	3482.61
1355.31	131.3	3507.81
1355.41	131.2	3483.26
1355.51	131.1	3543.31
1355.61	131	3511.52
1355.71	130.9	3471.86
1355.81	130.8	3508.82
1355.91	130.7	3491.96
1356.01	130.6	3484.29
1356.11	130.5	3483.72
1356.21	130.4	3495.81
1356.31	130.3	3505.21
1356.41	130.2	3539.83
1356.51	130.1	3489.1
1356.61	130	3506.92
1356.71	129.9	3518.62
1356.81	129.8	3527.36
1356.91	129.7	3516.32
1357.01	129.6	3512.47
1357.11	129.5	3510.88
1357.21	129.4	3502.13
1357.31	129.3	3523.61
1357.41	129.2	3551.5
1357.51	129.1	3506.42
1357.61	129	3522.22
1357.71	128.9	3530.85
1357.81	128.8	3550.09
1357.91	128.7	3547.59
1358.01	128.6	3546.21
1358.11	128.5	3541.23
1358.21	128.4	3576.63
1358.31	128.3	3544.81
1358.41	128.2	3541.89
1358.51	128.1	3589.95
1358.61	128	3524.38
1358.71	127.9	3548.78
1358.81	127.8	3515.18
1358.91	127.7	3571.85
1359.01	127.6	3570.74
1359.11	127.5	3546.89
1359.21	127.4	3578.09
1359.31	127.3	3579.45
1359.41	127.2	3597.63
1359.51	127.1	3589.75
1359.61	127	3580.59
1359.71	126.9	3565.61
1359.81	126.8	3589.16
1359.91	126.7	3596.23
1360.01	126.6	3572.02
1360.11	126.5	3559.21
1360.21	126.4	3586.71
1360.31	126.3	3614
1360.41	126.2	3628.63
1360.51	126.1	3599.93
1360.61	126	3601.23
1360.71	125.9	3643.58
1360.81	125.8	3625.71
1360.91	125.7	3644.88
1361.01	125.6	3638.3
1361.11	125.5	3607.84
1361.21	125.4	3612.32
1361.31	125.3	3643.35
1361.41	125.2	3650.03
1361.51	125.1	3636.6
1361.61	125	3652.91
1361.71	124.9	3640.56
1361.81	124.8	3656.83
1361.91	124.7	3666.29
1362.01	124.6	3632.62
1362.11	124.5	3616.65
1362.21	124.4	3652.97
1362.31	124.3	3684.75
1362.41	124.2	3681.15
1362.51	124.1	3713.09
1362.61	124	3702.31
1362.71	123.9	3738
1362.81	123.8	3679.15
1362.91	123.7	3695.71
1363.01	123.6	3710.79
1363.11	123.5	3725.06
1363.21	123.4	3679.82
1363.31	123.3	3728.89
1363.41	123.2	3693.63
1363.51	123.1	3741.03
1363.61	123	3793.63
1363.71	122.9	3735.49
1363.81	122.8	3716.13
1363.91	122.7	3757.13
1364.01	122.6	3755.34
1364.11	122.5	3767.54
1364.21	122.4	3734.82
1364.31	122.3	3772.91
1364.41	122.2	3822.29
1364.51	122.1	3811.15
1364.61	122	3790.98
1364.71	121.9	3738.49
1364.81	121.8	3745.7
1364.91	121.7	3794.56
1365.01	121.6	3829.41
1365.11	121.5	3826.59
1365.21	121.4	3795.42
1365.31	121.3	3814.3
1365.41	121.2	3804.64
1365.51	121.1	3792.32
1365.61	121	3835.74
1365.71	120.9	3812.85
1365.81	120.8	3846.26
1365.91	120.7	3820.13
1366.01	120.6	3861.88
1366.11	120.5	3847.88
1366.21	120.4	3836.5
1366.31	120.3	3866.05
1366.41	120.2	3866.36
1366.51	120.1	3812.17
1366.61	120	3862.18
1366.71	119.9	3853.67
1366.81	119.8	3858.91
1366.91	119.7	3854.87
1367.01	119.6	3875.85
1367.11	119.5	3876.63
1367.21	119.4	3853.88
1367.31	119.3	3869.27
1367.41	119.2	3889.88
1367.51	119.1	3887.95
1367.61	119	3919.26
1367.71	118.9	3898.36
1367.81	118.8	3839.56
1367.91	118.7	3810.27
1368.01	118.6	3855.72
1368.11	118.5	3882.38
1368.21	118.4	3868.95
1368.31	118.3	3899.54
1368.41	118.2	3880.65
1368.51	118.1	3917.66
1368.61	118	3869.09
1368.71	117.9	3890.72
1368.81	117.8	3864.86
1368.91	117.7	3868.65
1369.01	117.6	3858.96
1369.11	117.5	3909
1369.21	117.4	3948.71
1369.31	117.3	3897.77
1369.41	117.2	3890.86
1369.51	117.1	3890.07
1369.61	117	3910.88
1369.71	116.9	3884.07
1369.81	116.8	3857.06
1369.91	116.7	3934.82
1370.01	116.6	3931.78
1370.11	116.5	3941.77
1370.21	116.4	3932.8
1370.31	116.3	3919.46
1370.41	116.2	3915.47
1370.51	116.1	3880.89
1370.61	116	3903.94
1370.71	115.9	3937.42
1370.81	115.8	3923.85
1370.91	115.7	3890.32
1371.01	115.6	3930.65
1371.11	115.5	3958.41
1371.21	115.4	3961.97
1371.31	115.3	3912.9
1371.41	115.2	3950.91
1371.51	115.1	3964.04
1371.61	115	3941.89
1371.71	114.9	3927.15
1371.81	114.8	3912.27
1371.91	114.7	3930.24
1372.01	114.6	3981.35
1372.11	114.5	3957.12
1372.21	114.4	3962.03
1372.31	114.3	3955.58
1372.41	114.2	3943.26
1372.51	114.1	3976.1
1372.61	114	3943.99
1372.71	113.9	4004.82
1372.81	113.8	4000.95
1372.91	113.7	4019.2
1373.01	113.6	3954.02
1373.11	113.5	3993.71
1373.21	113.4	4000.88
1373.31	113.3	4047.65
1373.41	113.2	4033.83
1373.51	113.1	4016.92
1373.61	113	4030.29
1373.71	112.9	4055.42
1373.81	112.8	4034.2
1373.91	112.7	4051.45
1374.01	112.6	4027.49
1374.11	112.5	4026.65
1374.21	112.4	4048.3
1374.31	112.3	4069.85
1374.41	112.2	4060.32
1374.51	112.1	4074.31
1374.61	112	4034.18
1374.71	111.9	4038.77
1374.81	111.8	4078.85
1374.91	111.7	4098.88
1375.01	111.6	4105.64
1375.11	111.5	4101.38
1375.21	111.4	4097.39
1375.31	111.3	4073.4
1375.41	111.2	4053.23
1375.51	111.1	4112.23
1375.61	111	4114.33
1375.71	110.9	4103.17
1375.81	110.8	4088.14
1375.91	110.7	4100.24
1376.01	110.6	4045.85
1376.11	110.5	4051.41
1376.21	110.4	4043.54
1376.31	110.3	4064.26
1376.41	110.2	4072.85
1376.51	110.1	4095.46
1376.61	110	4075.87
1376.71	109.9	4085.33
1376.81	109.8	4025.68
1376.91	109.7	4080.02
1377.01	109.6	4061.93
1377.11	109.5	4062.76
1377.21	109.4	4021.99
1377.31	109.3	4037.46
1377.41	109.2	4045.71
1377.51	109.1	4003.7
1377.61	109	4005.12
1377.71	108.9	3995.84
1377.81	108.8	4008.11
1377.91	108.7	3978.58
1378.01	108.6	3991.11
1378.11	108.5	4015.49
1378.21	108.4	3998.85
1378.31	108.3	3979.03
1378.41	108.2	3948.81
1378.51	108.1	3969.14
1378.61	108	3937.12
1378.71	107.9	3935.35
1378.81	107.8	3908.21
1378.91	107.7	3933.35
1379.01	107.6	3911.98
1379.11	107.5	3946.79
1379.21	107.4	3905.87
1379.31	107.3	3890.97
1379.41	107.2	3866.75
1379.51	107.1	3842.04
1379.61	107	3808.61
1379.71	106.9	3816.45
1379.81	106.8	3821.09
1379.91	106.7	3816.32
1380.01	106.6	3809.54
1380.11	106.5	3787.57
1380.21	106.4	3810.12
1380.31	106.3	3798.95
1380.41	106.2	3777.93
1380.51	106.1	3757.86
1380.61	106	3770.9
1380.71	105.9	3746.13
1380.81	105.8	3776.49
1380.91	105.7	3745.53
1381.01	105.6	3751.96
1381.11	105.5	3731.02
1381.21	105.4	3753.53
1381.31	105.3	3760.94
1381.41	105.2	3723.61
1381.51	105.1	3708.49
1381.61	105	3699.64
1381.71	104.9	3733.33
1381.81	104.8	3707.16
1381.91	104.7	3729.86
1382.01	104.6	3783.33
1382.11	104.5	3687.46
1382.21	104.4	3650.75
1382.31	104.3	3647.44
1382.41	104.2	3730.65
1382.51	104.1	3704.11
1382.61	104	3696.68
1382.71	103.9	3726.71
1382.81	103.8	3724.85
1382.91	103.7	3741.21
1383.01	103.6	3675.6
1383.11	103.5	3684.65
1383.21	103.4	3712.13
1383.31	103.3	3650.28
1383.41	103.2	3719.3
1383.51	103.1	3692.89
1383.61	103	3717.89
1383.71	102.9	3684.38
1383.81	102.8	3667.17
1383.91	102.7	3687.38
1384.01	102.6	3682.78
1384.11	102.5	3691.22
1384.21	102.4	3672.6
1384.31	102.3	3682.25
1384.41	102.2	3717.81
1384.51	102.1	3674
1384.61	102	3691.8
1384.71	101.9	3686.86
1384.81	101.8	3676.5
1384.91	101.7	3675.9
1385.01	101.6	3670.32
1385.11	101.5	3689.23
1385.21	101.4	3712.04
1385.31	101.3	3667.13
1385.41	101.2	3703.51
1385.51	101.1	3719.54
1385.61	101	3714.44
1385.71	100.9	3717.16
1385.81	100.8	3723.25
1385.91	100.7	3759.38
1386.01	100.6	3743.19
1386.11	100.5	3751.03
1386.21	100.4	3731.96
1386.31	100.3	3701.22
1386.41	100.2	3712.85
1386.51	100.1	3745.83
1386.61	100	3741.55
1386.71	99.9	3744.33
1386.81	99.8	3734.82
1386.91	99.7	3705.69
1387.01	99.6	3701.75
1387.11	99.5	3704.4
1387.21	99.4	3765.69
1387.31	99.3	3718.43
1387.41	99.2	3735.32
1387.51	99.1	3751
1387.61	99	3727.43
1387.71	98.9	3688.57
1387.81	98.8	3720.62
1387.91	98.7	3730.03
1388.01	98.6	3720.22
1388.11	98.5	3727.9
1388.21	98.4	3736.08
1388.31	98.3	3744.48
1388.41	98.2	3697.22
1388.51	98.1	3723.89
1388.61	98	3714.53
1388.71	97.9	3701.81
1388.81	97.8	3740.45
1388.91	97.7	3705.71
1389.01	97.6	3696.62
1389.11	97.5	3715.53
1389.21	97.4	3709.58
1389.31	97.3	3669.76
1389.41	97.2	3659.66
1389.51	97.1	3670.04
1389.61	97	3626.99
1389.71	96.9	3586.43
1389.81	96.8	3606.13
1389.91	96.7	3564.23
1390.01	96.6	3611.3
1390.11	96.5	3549.67
1390.21	96.4	3540.66
1390.31	96.3	3499.88
1390.41	96.2	3509.12
1390.51	96.1	3514.61
1390.61	96	3506.68
1390.71	95.9	3501.03
1390.81	95.8	3452.88
1390.91	95.7	3514.91
1391.01	95.6	3540.84
1391.11	95.5	3541.33
1391.21	95.4	3560.17
1391.31	95.3	3549.83
1391.41	95.2	3551.56
1391.51	95.1	3522.34
1391.61	95	3559.42
1391.71	94.9	3599.23
1391.81	94.8	3559.44
1391.91	94.7	3551.24
1392.01	94.6	3567.93
1392.11	94.5	3577.68
1392.21	94.4	3596.65
1392.31	94.3	3620.63
1392.41	94.2	3607.88
1392.51	94.1	3613.02
1392.61	94	3600.07
1392.71	93.9	3575.58
1392.81	93.8	3634.37
1392.91	93.7	3622.67
1393.01	93.6	3610.74
1393.11	93.5	3567.73
1393.21	93.4	3509.91
1393.31	93.3	3598.29
1393.41	93.2	3543.05
1393.51	93.1	3522.23
1393.61	93	3512.44
1393.71	92.9	3465.97
1393.81	92.8	3481.81
1393.91	92.7	3455.66
1394.01	92.6	3468.18
1394.11	92.5	3447.35
1394.21	92.4	3411.02
1394.31	92.3	3444.27
1394.41	92.2	3449.08
1394.51	92.1	3496.12
1394.61	92	3455.98
1394.71	91.9	3452.77
1394.81	91.8	3496.19
1394.91	91.7	3545.52
1395.01	91.6	3554.52
1395.11	91.5	3581.22
1395.21	91.4	3558.01
1395.31	91.3	3624.47
1395.41	91.2	3686.85
1395.51	91.1	3718.4
1395.61	91	3734.42
1395.71	90.9	3796.84
1395.81	90.8	3835.89
1395.91	90.7	3876.55
1396.01	90.6	3900.9
1396.11	90.5	3917.79
1396.21	90.4	3933.1
1396.31	90.3	3961.98
1396.41	90.2	3981.16
1396.51	90.1	4003.53
1396.61	90	4007.23
1396.71	89.9	3974.55
1396.81	89.8	4006.51
1396.91	89.7	4006.69
1397.01	89.6	4054.9
1397.11	89.5	4120.05
1397.21	89.4	4245.62
1397.31	89.3	4385.82
1397.41	89.2	4564.16
1397.51	89.1	4762.62
1397.61	89	5021.8
1397.71	88.9	5410.74
1397.81	88.8	5825.87
1397.91	88.7	6505.42
1398.01	88.6	7341.58
1398.11	88.5	8598.63
1398.21	88.4	10439.2
1398.31	88.3	13091.7
1398.41	88.2	16799
1398.51	88.1	21654.3
1398.61	88	27489.5
1398.71	87.9	33384.1
1398.81	87.8	38541.8
1398.91	87.7	41553.7
1399.01	87.6	41100.9
1399.11	87.5	37744.9
1399.21	87.4	32389
1399.31	87.3	26058.8
1399.41	87.2	20147
1399.51	87.1	15362.6
1399.61	87	11761
1399.71	86.9	9221.55
1399.81	86.8	7434.67
1399.91	86.7	6229.86
1400.01	86.6	5437.29
1400.11	86.5	4896.1
1400.21	86.4	4501.7
1400.31	86.3	4234.63
1400.41	86.2	3970.33
1400.51	86.1	3889.77
1400.61	86	3754.75
1400.71	85.9	3708.33
1400.81	85.8	3744.82
1400.91	85.7	3844.01
1401.01	85.6	3926.16
1401.11	85.5	4109.13
1401.21	85.4	4318.28
1401.31	85.3	4643.75
1401.41	85.2	5038.19
1401.51	85.1	5639.73
1401.61	85	6451.09
1401.71	84.9	7636.86
1401.81	84.8	9359.64
1401.91	84.7	11848.8
1402.01	84.6	15493.9
1402.11	84.5	20756
1402.21	84.4	27232.8
1402.31	84.3	34849.7
1402.41	84.2	42766.8
1402.51	84.1	49094.2
1402.61	84	52055.2
1402.71	83.9	50611.9
1402.81	83.8	45283.5
1402.91	83.7	37676.1
1403.01	83.6	29176.5
1403.11	83.5	21728
1403.21	83.4	15803.4
1403.31	83.3	11418.3
1403.41	83.2	8304.12
1403.51	83.1	6210.85
1403.61	83	4793.89
1403.71	82.9	3844.16
1403.81	82.8	3243.27
1403.91	82.7	2786.52
1404.01	82.6	2453.02
1404.11	82.5	2212.01
1404.21	82.4	2017.05
1404.31	82.3	1820.43
1404.41	82.2	1751.92
1404.51	82.1	1617.15
1404.61	82	1559.73
1404.71	81.9	1462.76
1404.81	81.8	1397.85
1404.91	81.7	1365.32
1405.01	81.6	1299.92
1405.11	81.5	1257.66
1405.21	81.4	1234.34
1405.31	81.3	1194.99
1405.41	81.2	1128.03
1405.51	81.1	1106.87
1405.61	81	1082.58
1405.71	80.9	1058.15
1405.81	80.8	1026.78
1405.91	80.7	1015
1406.01	80.6	994.207
1406.11	80.5	997.784
1406.21	80.4	978.342
1406.31	80.3	965.017
1406.41	80.2	933.4
1406.51	80.1	914.121
1406.61	80	924.709
1406.71	79.9	903.745
1406.81	79.8	886.139
1406.91	79.7	890.114
1407.01	79.6	883.932
1407.11	79.5	886.894
1407.21	79.4	881.884
1407.31	79.3	861.272
1407.41	79.2	867.462
1407.51	79.1	869.175
1407.61	79	856.326
1407.71	78.9	856.119
1407.81	78.8	835.025
1407.91	78.7	829.2
1408.01	78.6	833.92
1408.11	78.5	841.358
1408.21	78.4	839.293
1408.31	78.3	829.406
1408.41	78.2	836.435
1408.51	78.1	834.325
1408.61	78	841.11
1408.71	77.9	848.856
1408.81	77.8	812.338
1408.91	77.7	809.65
1409.01	77.6	810.092
1409.11	77.5	812.062
1409.21	77.4	818.738
1409.31	77.3	826.717
1409.41	77.2	841.031
1409.51	77.1	841.137
1409.61	77	848.959
1409.71	76.9	838.398
1409.81	76.8	861.083
1409.91	76.7	852.281
1410.01	76.6	849.264
1410.11	76.5	831.093
1410.21	76.4	860.262
1410.31	76.3	865.727
1410.41	76.2	877.924
1410.51	76.1	867.092
1410.61	76	878.884
1410.71	75.9	889.972
1410.81	75.8	885.099
1410.91	75.7	898.175
1411.01	75.6	920.491
1411.11	75.5	926.133
1411.21	75.4	918.85
1411.31	75.3	923.379
1411.41	75.2	918.781
1411.51	75.1	916.017
1411.61	75	940.591