c:\users\mark\owncloud\muelheim group\projects\gas phase background\ex191_cec356 au in he_1200um.vms
Au4f
	Characteristic Energy eV	1486.61	Acquisition Time s	0.4
KE_Au4f	BE_Au4f	CPS_Au4f
1306.61	180	5377.6
1306.66	179.95	5324.25
1306.71	179.9	5361.9
1306.76	179.85	5394.32
1306.81	179.8	5351.77
1306.86	179.75	5350.13
1306.91	179.7	5361.55
1306.96	179.65	5347.27
1307.01	179.6	5369.57
1307.06	179.55	5368.37
1307.11	179.5	5350.95
1307.16	179.45	5382.63
1307.21	179.4	5369.2
1307.26	179.35	5378.5
1307.31	179.3	5377.6
1307.36	179.25	5354.92
1307.41	179.2	5346.6
1307.46	179.15	5358.52
1307.51	179.1	5356.12
1307.56	179.05	5399.75
1307.61	179	5372.37
1307.66	178.95	5335.35
1307.71	178.9	5360.7
1307.76	178.85	5369.62
1307.81	178.8	5332.7
1307.86	178.75	5355.2
1307.91	178.7	5400.27
1307.96	178.65	5383.6
1308.01	178.6	5419.3
1308.06	178.55	5396.1
1308.11	178.5	5355.5
1308.16	178.45	5373.6
1308.21	178.4	5369.42
1308.26	178.35	5378.32
1308.31	178.3	5380.3
1308.36	178.25	5381.68
1308.41	178.2	5354.45
1308.46	178.15	5378.52
1308.51	178.1	5368.8
1308.56	178.05	5340.65
1308.61	178	5362.17
1308.66	177.95	5370.67
1308.71	177.9	5385.2
1308.76	177.85	5371.35
1308.81	177.8	5417.6
1308.86	177.75	5403.15
1308.91	177.7	5409.45
1308.96	177.65	5392.97
1309.01	177.6	5399.07
1309.06	177.55	5371.07
1309.11	177.5	5397.6
1309.16	177.45	5384.4
1309.21	177.4	5411.07
1309.26	177.35	5400.57
1309.31	177.3	5365.55
1309.36	177.25	5381.68
1309.41	177.2	5416.82
1309.46	177.15	5421.97
1309.51	177.1	5433.65
1309.56	177.05	5401.63
1309.61	177	5384.62
1309.66	176.95	5386.07
1309.71	176.9	5428.57
1309.76	176.85	5430.57
1309.81	176.8	5408.07
1309.86	176.75	5453.35
1309.91	176.7	5440.77
1309.96	176.65	5416.63
1310.01	176.6	5419.6
1310.06	176.55	5429.8
1310.11	176.5	5428.62
1310.16	176.45	5441.52
1310.21	176.4	5397.3
1310.26	176.35	5383.35
1310.31	176.3	5434.55
1310.36	176.25	5411.52
1310.41	176.2	5414.45
1310.46	176.15	5418
1310.51	176.1	5412.32
1310.56	176.05	5423.37
1310.61	176	5454.07
1310.66	175.95	5433.07
1310.71	175.9	5419.4
1310.76	175.85	5434.87
1310.81	175.8	5448.45
1310.86	175.75	5420.5
1310.91	175.7	5429.62
1310.96	175.65	5441.4
1311.01	175.6	5425.05
1311.06	175.55	5441.07
1311.11	175.5	5406.5
1311.16	175.45	5412.37
1311.21	175.4	5448.35
1311.26	175.35	5436.45
1311.31	175.3	5459.7
1311.36	175.25	5420.67
1311.41	175.2	5447.63
1311.46	175.15	5430.03
1311.51	175.1	5442.93
1311.56	175.05	5461.65
1311.61	175	5425.03
1311.66	174.95	5399.02
1311.71	174.9	5440.23
1311.76	174.85	5441.75
1311.81	174.8	5462.17
1311.86	174.75	5453.9
1311.91	174.7	5454.07
1311.96	174.65	5458.93
1312.01	174.6	5457.17
1312.06	174.55	5445.45
1312.11	174.5	5418.35
1312.16	174.45	5415.75
1312.21	174.4	5460.9
1312.26	174.35	5467.88
1312.31	174.3	5465.8
1312.36	174.25	5440.77
1312.41	174.2	5438.98
1312.46	174.15	5402.55
1312.51	174.1	5396.68
1312.56	174.05	5428.62
1312.61	174	5476.3
1312.66	173.95	5471.35
1312.71	173.9	5415.2
1312.76	173.85	5464.45
1312.81	173.8	5457.6
1312.86	173.75	5437.1
1312.91	173.7	5505.15
1312.96	173.65	5469.7
1313.01	173.6	5460.13
1313.06	173.55	5426.88
1313.11	173.5	5466.97
1313.16	173.45	5523.02
1313.21	173.4	5501.8
1313.26	173.35	5447.9
1313.31	173.3	5484.6
1313.36	173.25	5454.47
1313.41	173.2	5483.75
1313.46	173.15	5481.4
1313.51	173.1	5473.57
1313.56	173.05	5452.35
1313.61	173	5443.35
1313.66	172.95	5459.05
1313.71	172.9	5467.2
1313.76	172.85	5434.82
1313.81	172.8	5475.9
1313.86	172.75	5460.3
1313.91	172.7	5518.9
1313.96	172.65	5497.8
1314.01	172.6	5514.45
1314.06	172.55	5467.53
1314.11	172.5	5481.4
1314.16	172.45	5481.52
1314.21	172.4	5530.05
1314.26	172.35	5529.62
1314.31	172.3	5477.45
1314.36	172.25	5455.3
1314.41	172.2	5473.9
1314.46	172.15	5496.55
1314.51	172.1	5462.05
1314.56	172.05	5472.07
1314.61	172	5495.72
1314.66	171.95	5502.35
1314.71	171.9	5477.73
1314.76	171.85	5463.88
1314.81	171.8	5492.82
1314.86	171.75	5469.87
1314.91	171.7	5475.75
1314.96	171.65	5477.73
1315.01	171.6	5476.22
1315.06	171.55	5488.6
1315.11	171.5	5480.05
1315.16	171.45	5467.93
1315.21	171.4	5478.25
1315.26	171.35	5450.82
1315.31	171.3	5442.35
1315.36	171.25	5475.23
1315.41	171.2	5507.15
1315.46	171.15	5485.63
1315.51	171.1	5469.02
1315.56	171.05	5476.52
1315.61	171	5488.3
1315.66	170.95	5491.8
1315.71	170.9	5467.1
1315.76	170.85	5509.92
1315.81	170.8	5508.72
1315.86	170.75	5497.32
1315.91	170.7	5476.92
1315.96	170.65	5481.68
1316.01	170.6	5503.67
1316.06	170.55	5496.9
1316.11	170.5	5470.07
1316.16	170.45	5466.32
1316.21	170.4	5537.25
1316.26	170.35	5501.43
1316.31	170.3	5491.85
1316.36	170.25	5504.82
1316.41	170.2	5492.97
1316.46	170.15	5483.67
1316.51	170.1	5502.32
1316.56	170.05	5522.12
1316.61	170	5523.42
1316.66	169.95	5528.13
1316.71	169.9	5518.47
1316.76	169.85	5491.4
1316.81	169.8	5496.48
1316.86	169.75	5482
1316.91	169.7	5529.72
1316.96	169.65	5551.82
1317.01	169.6	5537.88
1317.06	169.55	5531.6
1317.11	169.5	5504.27
1317.16	169.45	5510.25
1317.21	169.4	5557.37
1317.26	169.35	5546.5
1317.31	169.3	5525.45
1317.36	169.25	5518.75
1317.41	169.2	5499.5
1317.46	169.15	5510.75
1317.51	169.1	5513.85
1317.56	169.05	5525.92
1317.61	169	5510.1
1317.66	168.95	5464.35
1317.71	168.9	5475.45
1317.76	168.85	5532.47
1317.81	168.8	5569.72
1317.86	168.75	5565.23
1317.91	168.7	5572.47
1317.96	168.65	5554.25
1318.01	168.6	5526.35
1318.06	168.55	5517.85
1318.11	168.5	5550.5
1318.16	168.45	5498.02
1318.21	168.4	5470.3
1318.26	168.35	5537.7
1318.31	168.3	5502.8
1318.36	168.25	5532.7
1318.41	168.2	5516.25
1318.46	168.15	5554.87
1318.51	168.1	5519.38
1318.56	168.05	5517.65
1318.61	168	5539.6
1318.66	167.95	5592.65
1318.71	167.9	5530.13
1318.76	167.85	5528.25
1318.81	167.8	5489.45
1318.86	167.75	5530.7
1318.91	167.7	5518.22
1318.96	167.65	5541.8
1319.01	167.6	5510.8
1319.06	167.55	5534.55
1319.11	167.5	5545.07
1319.16	167.45	5514.75
1319.21	167.4	5527.7
1319.26	167.35	5544
1319.31	167.3	5507.3
1319.36	167.25	5504.7
1319.41	167.2	5493.7
1319.46	167.15	5536.22
1319.51	167.1	5549.32
1319.56	167.05	5534.55
1319.61	167	5542.5
1319.66	166.95	5580.65
1319.71	166.9	5546.38
1319.76	166.85	5539.57
1319.81	166.8	5568.2
1319.86	166.75	5536.85
1319.91	166.7	5550.7
1319.96	166.65	5530.13
1320.01	166.6	5523.8
1320.06	166.55	5530.07
1320.11	166.5	5543.02
1320.16	166.45	5553.07
1320.21	166.4	5550
1320.26	166.35	5556.85
1320.31	166.3	5561.52
1320.36	166.25	5572.3
1320.41	166.2	5546.88
1320.46	166.15	5556.97
1320.51	166.1	5577.05
1320.56	166.05	5573.1
1320.61	166	5569.18
1320.66	165.95	5557.45
1320.71	165.9	5558.67
1320.76	165.85	5588.42
1320.81	165.8	5594.5
1320.86	165.75	5569.15
1320.91	165.7	5553.02
1320.96	165.65	5560.38
1321.01	165.6	5582.57
1321.06	165.55	5604.82
1321.11	165.5	5564.62
1321.16	165.45	5578.78
1321.21	165.4	5591.48
1321.26	165.35	5569.77
1321.31	165.3	5558.82
1321.36	165.25	5586.7
1321.41	165.2	5616.7
1321.46	165.15	5576.38
1321.51	165.1	5594.07
1321.56	165.05	5602.3
1321.61	165	5557.02
1321.66	164.95	5612.32
1321.71	164.9	5598.88
1321.76	164.85	5546.22
1321.81	164.8	5569.6
1321.86	164.75	5580.43
1321.91	164.7	5552.73
1321.96	164.65	5566.35
1322.01	164.6	5562.65
1322.06	164.55	5573.02
1322.11	164.5	5561.65
1322.16	164.45	5592.42
1322.21	164.4	5598.47
1322.26	164.35	5591.7
1322.31	164.3	5562.05
1322.36	164.25	5604.13
1322.41	164.2	5623.9
1322.46	164.15	5588.05
1322.51	164.1	5605.05
1322.56	164.05	5581.9
1322.61	164	5608.9
1322.66	163.95	5615.27
1322.71	163.9	5592.15
1322.76	163.85	5593.7
1322.81	163.8	5639.38
1322.86	163.75	5628.85
1322.91	163.7	5598.37
1322.96	163.65	5625.87
1323.01	163.6	5639.95
1323.06	163.55	5628.1
1323.11	163.5	5631.17
1323.16	163.45	5590.92
1323.21	163.4	5591.95
1323.26	163.35	5570.6
1323.31	163.3	5619.8
1323.36	163.25	5602.88
1323.41	163.2	5597.17
1323.46	163.15	5584.07
1323.51	163.1	5596.68
1323.56	163.05	5625.92
1323.61	163	5620.85
1323.66	162.95	5623.4
1323.71	162.9	5620.45
1323.76	162.85	5623.27
1323.81	162.8	5615.2
1323.86	162.75	5608.3
1323.91	162.7	5589.72
1323.96	162.65	5612.55
1324.01	162.6	5663.7
1324.06	162.55	5635.03
1324.11	162.5	5620.55
1324.16	162.45	5625.13
1324.21	162.4	5597.15
1324.26	162.35	5634.97
1324.31	162.3	5647.37
1324.36	162.25	5660.65
1324.41	162.2	5661.12
1324.46	162.15	5653.45
1324.51	162.1	5646.4
1324.56	162.05	5662.2
1324.61	162	5658.37
1324.66	161.95	5630.75
1324.71	161.9	5673.82
1324.76	161.85	5652.93
1324.81	161.8	5629.6
1324.86	161.75	5651.3
1324.91	161.7	5672.6
1324.96	161.65	5678.57
1325.01	161.6	5640.82
1325.06	161.55	5659.75
1325.11	161.5	5673
1325.16	161.45	5646.82
1325.21	161.4	5622.12
1325.26	161.35	5668.72
1325.31	161.3	5671.82
1325.36	161.25	5658.78
1325.41	161.2	5663.22
1325.46	161.15	5639.9
1325.51	161.1	5658.67
1325.56	161.05	5659.85
1325.61	161	5626.22
1325.66	160.95	5687.35
1325.71	160.9	5675.67
1325.76	160.85	5685.38
1325.81	160.8	5661.48
1325.86	160.75	5683.02
1325.91	160.7	5653.2
1325.96	160.65	5672.17
1326.01	160.6	5664.47
1326.06	160.55	5619.27
1326.11	160.5	5675.03
1326.16	160.45	5687.25
1326.21	160.4	5675.4
1326.26	160.35	5699.15
1326.31	160.3	5673.07
1326.36	160.25	5695.9
1326.41	160.2	5661.95
1326.46	160.15	5644.47
1326.51	160.1	5686.9
1326.56	160.05	5658.25
1326.61	160	5664.75
1326.66	159.95	5655.57
1326.71	159.9	5692.1
1326.76	159.85	5683.5
1326.81	159.8	5711.65
1326.86	159.75	5717.97
1326.91	159.7	5703.07
1326.96	159.65	5679.45
1327.01	159.6	5663.57
1327.06	159.55	5681
1327.11	159.5	5687.45
1327.16	159.45	5700.4
1327.21	159.4	5711.43
1327.26	159.35	5701.97
1327.31	159.3	5696.52
1327.36	159.25	5692.7
1327.41	159.2	5714.75
1327.46	159.15	5722.15
1327.51	159.1	5709.05
1327.56	159.05	5707.27
1327.61	159	5672.93
1327.66	158.95	5669.55
1327.71	158.9	5691.6
1327.76	158.85	5705.45
1327.81	158.8	5713.27
1327.86	158.75	5681.95
1327.91	158.7	5671.5
1327.96	158.65	5721.9
1328.01	158.6	5716.25
1328.06	158.55	5704.82
1328.11	158.5	5680.35
1328.16	158.45	5685.45
1328.21	158.4	5761.8
1328.26	158.35	5719.02
1328.31	158.3	5727.57
1328.36	158.25	5729.72
1328.41	158.2	5718.7
1328.46	158.15	5718.52
1328.51	158.1	5733.1
1328.56	158.05	5706.48
1328.61	158	5710.82
1328.66	157.95	5697.68
1328.71	157.9	5728.8
1328.76	157.85	5715.27
1328.81	157.8	5739.6
1328.86	157.75	5727.1
1328.91	157.7	5706.82
1328.96	157.65	5717.7
1329.01	157.6	5714.25
1329.06	157.55	5672.25
1329.11	157.5	5712.5
1329.16	157.45	5728.85
1329.21	157.4	5735.92
1329.26	157.35	5769.72
1329.31	157.3	5735.13
1329.36	157.25	5755.97
1329.41	157.2	5730.43
1329.46	157.15	5732.75
1329.51	157.1	5751.07
1329.56	157.05	5734.97
1329.61	157	5739.45
1329.66	156.95	5725.18
1329.71	156.9	5750.2
1329.76	156.85	5778.3
1329.81	156.8	5717.97
1329.86	156.75	5748.52
1329.91	156.7	5775.3
1329.96	156.65	5766.7
1330.01	156.6	5757.6
1330.06	156.55	5729.65
1330.11	156.5	5757.53
1330.16	156.45	5756.5
1330.21	156.4	5756.9
1330.26	156.35	5740.87
1330.31	156.3	5749
1330.36	156.25	5751.12
1330.41	156.2	5767.27
1330.46	156.15	5795.07
1330.51	156.1	5781.77
1330.56	156.05	5736.92
1330.61	156	5750.82
1330.66	155.95	5743.75
1330.71	155.9	5739.5
1330.76	155.85	5765.85
1330.81	155.8	5742.27
1330.86	155.75	5767.9
1330.91	155.7	5793.2
1330.96	155.65	5770.87
1331.01	155.6	5771.38
1331.06	155.55	5817.63
1331.11	155.5	5793.35
1331.16	155.45	5805.18
1331.21	155.4	5788.2
1331.26	155.35	5788.07
1331.31	155.3	5810.2
1331.36	155.25	5793.8
1331.41	155.2	5773.8
1331.46	155.15	5770.52
1331.51	155.1	5796.85
1331.56	155.05	5828.98
1331.61	155	5819.75
1331.66	154.95	5799.1
1331.71	154.9	5798.15
1331.76	154.85	5807.12
1331.81	154.8	5837.63
1331.86	154.75	5822.3
1331.91	154.7	5813.05
1331.96	154.65	5824.45
1332.01	154.6	5835.1
1332.06	154.55	5789.42
1332.11	154.5	5788.82
1332.16	154.45	5804.2
1332.21	154.4	5807.2
1332.26	154.35	5847.47
1332.31	154.3	5797.53
1332.36	154.25	5797.35
1332.41	154.2	5812.07
1332.46	154.15	5826.07
1332.51	154.1	5801.05
1332.56	154.05	5834.02
1332.61	154	5842.45
1332.66	153.95	5856.45
1332.71	153.9	5777.7
1332.76	153.85	5787.3
1332.81	153.8	5849.27
1332.86	153.75	5862.1
1332.91	153.7	5841.9
1332.96	153.65	5827.55
1333.01	153.6	5852.57
1333.06	153.55	5830.57
1333.11	153.5	5836.52
1333.16	153.45	5859.67
1333.21	153.4	5801.35
1333.26	153.35	5853.78
1333.31	153.3	5834.32
1333.36	153.25	5829.3
1333.41	153.2	5881.38
1333.46	153.15	5847.35
1333.51	153.1	5860.9
1333.56	153.05	5832.5
1333.61	153	5845.77
1333.66	152.95	5847.15
1333.71	152.9	5839.13
1333.76	152.85	5866.2
1333.81	152.8	5841.32
1333.86	152.75	5868.67
1333.91	152.7	5865.9
1333.96	152.65	5854.65
1334.01	152.6	5873.7
1334.06	152.55	5888.27
1334.11	152.5	5862.68
1334.16	152.45	5852.57
1334.21	152.4	5873.13
1334.26	152.35	5869.97
1334.31	152.3	5864.27
1334.36	152.25	5904.82
1334.41	152.2	5905.52
1334.46	152.15	5932.8
1334.51	152.1	5867.6
1334.56	152.05	5864.35
1334.61	152	5905.57
1334.66	151.95	5853.85
1334.71	151.9	5847.42
1334.76	151.85	5866.05
1334.81	151.8	5878.57
1334.86	151.75	5864.67
1334.91	151.7	5894.25
1334.96	151.65	5858.75
1335.01	151.6	5892.53
1335.06	151.55	5906.88
1335.11	151.5	5880.1
1335.16	151.45	5869.2
1335.21	151.4	5826.35
1335.26	151.35	5859.2
1335.31	151.3	5920.8
1335.36	151.25	5909.9
1335.41	151.2	5917.3
1335.46	151.15	5911.8
1335.51	151.1	5900.8
1335.56	151.05	5842.27
1335.61	151	5864.87
1335.66	150.95	5898.37
1335.71	150.9	5926.63
1335.76	150.85	5897.47
1335.81	150.8	5914.77
1335.86	150.75	5921.38
1335.91	150.7	5921.68
1335.96	150.65	5924.25
1336.01	150.6	5905.8
1336.06	150.55	5903.35
1336.11	150.5	5926.52
1336.16	150.45	5924.38
1336.21	150.4	5888.37
1336.26	150.35	5924.85
1336.31	150.3	5942.75
1336.36	150.25	5953.1
1336.41	150.2	5943.35
1336.46	150.15	5915.77
1336.51	150.1	5954.57
1336.56	150.05	5894.65
1336.61	150	5905.4
1336.66	149.95	5939.75
1336.71	149.9	5953.6
1336.76	149.85	5963.72
1336.81	149.8	5941.75
1336.86	149.75	5932.47
1336.91	149.7	5958.05
1336.96	149.65	5911.8
1337.01	149.6	5898
1337.06	149.55	5935.72
1337.11	149.5	5909.02
1337.16	149.45	5911.65
1337.21	149.4	5929.97
1337.26	149.35	5940.9
1337.31	149.3	5945.27
1337.36	149.25	5976.15
1337.41	149.2	5927.45
1337.46	149.15	5913.75
1337.51	149.1	5963.3
1337.56	149.05	5925.43
1337.61	149	5942.77
1337.66	148.95	5945.32
1337.71	148.9	5969.3
1337.76	148.85	5970.3
1337.81	148.8	5989.72
1337.86	148.75	5949.02
1337.91	148.7	5954.35
1337.96	148.65	5944.92
1338.01	148.6	5955.32
1338.06	148.55	5954.42
1338.11	148.5	5973.72
1338.16	148.45	5952.37
1338.21	148.4	5935.05
1338.26	148.35	5934.55
1338.31	148.3	5953.17
1338.36	148.25	5960.27
1338.41	148.2	5972.35
1338.46	148.15	5984.1
1338.51	148.1	5963.98
1338.56	148.05	5952.57
1338.61	148	5976.72
1338.66	147.95	5966.63
1338.71	147.9	5989.1
1338.76	147.85	6002.55
1338.81	147.8	6016.7
1338.86	147.75	5927.8
1338.91	147.7	5987.57
1338.96	147.65	5976.05
1339.01	147.6	6039.18
1339.06	147.55	6008.85
1339.11	147.5	5970.77
1339.16	147.45	5964.05
1339.21	147.4	5942.95
1339.26	147.35	5989.38
1339.31	147.3	5978.4
1339.36	147.25	5973.05
1339.41	147.2	5975.03
1339.46	147.15	5996.17
1339.51	147.1	5994.77
1339.56	147.05	6010.35
1339.61	147	5976.12
1339.66	146.95	5978.85
1339.71	146.9	5981.75
1339.76	146.85	6002.4
1339.81	146.8	5977.5
1339.86	146.75	6018.35
1339.91	146.7	5977.02
1339.96	146.65	5991.1
1340.01	146.6	5991.12
1340.06	146.55	5947.5
1340.11	146.5	5977.47
1340.16	146.45	5993.78
1340.21	146.4	5979.67
1340.26	146.35	5992.75
1340.31	146.3	6003.47
1340.36	146.25	6028.32
1340.41	146.2	5991.2
1340.46	146.15	6014.67
1340.51	146.1	6026.35
1340.56	146.05	5998.7
1340.61	146	6015.3
1340.66	145.95	6024.3
1340.71	145.9	6043.55
1340.76	145.85	6008.2
1340.81	145.8	6019.82
1340.86	145.75	6011.3
1340.91	145.7	5987
1340.96	145.65	6005.57
1341.01	145.6	6007.7
1341.06	145.55	5967.6
1341.11	145.5	5971.55
1341.16	145.45	6023.37
1341.21	145.4	6003.32
1341.26	145.35	6018.78
1341.31	145.3	5989.8
1341.36	145.25	6009.52
1341.41	145.2	6006.32
1341.46	145.15	5979.6
1341.51	145.1	5984.15
1341.56	145.05	5981.28
1341.61	145	6002.65
1341.66	144.95	5969.95
1341.71	144.9	6026.38
1341.76	144.85	6007.22
1341.81	144.8	6039.7
1341.86	144.75	5996.72
1341.91	144.7	6002.1
1341.96	144.65	6043.75
1342.01	144.6	6002.97
1342.06	144.55	6078.62
1342.11	144.5	6054.7
1342.16	144.45	6028.2
1342.21	144.4	6040.8
1342.26	144.35	6003.05
1342.31	144.3	6038.2
1342.36	144.25	6025.95
1342.41	144.2	6037.25
1342.46	144.15	6010.52
1342.51	144.1	6017.12
1342.56	144.05	5995.27
1342.61	144	6024.9
1342.66	143.95	6023.98
1342.71	143.9	6026.8
1342.76	143.85	6026.72
1342.81	143.8	6077.5
1342.86	143.75	6017.05
1342.91	143.7	6032.57
1342.96	143.65	6054
1343.01	143.6	6018.25
1343.06	143.55	6062.73
1343.11	143.5	6113.2
1343.16	143.45	6040.13
1343.21	143.4	6046.82
1343.26	143.35	6052
1343.31	143.3	6018.72
1343.36	143.25	6058.13
1343.41	143.2	6039.25
1343.46	143.15	6029.9
1343.51	143.1	6050.52
1343.56	143.05	6053.6
1343.61	143	6043.05
1343.66	142.95	6022.45
1343.71	142.9	6033
1343.76	142.85	6024.22
1343.81	142.8	6056.35
1343.86	142.75	6015.85
1343.91	142.7	6047.65
1343.96	142.65	6063.37
1344.01	142.6	6048.93
1344.06	142.55	6057.07
1344.11	142.5	6074.42
1344.16	142.45	6060.82
1344.21	142.4	6056.05
1344.26	142.35	6034.72
1344.31	142.3	6067.93
1344.36	142.25	6066.63
1344.41	142.2	6086.12
1344.46	142.15	6043.32
1344.51	142.1	6068.02
1344.56	142.05	6073.15
1344.61	142	6048.67
1344.66	141.95	6060.07
1344.71	141.9	6101.5
1344.76	141.85	6085.5
1344.81	141.8	6101.88
1344.86	141.75	6084.7
1344.91	141.7	6064
1344.96	141.65	6065.95
1345.01	141.6	6075.77
1345.06	141.55	6082.4
1345.11	141.5	6051.55
1345.16	141.45	6067.22
1345.21	141.4	6052.65
1345.26	141.35	6023.15
1345.31	141.3	6042.07
1345.36	141.25	6081.82
1345.41	141.2	6044.02
1345.46	141.15	6077.35
1345.51	141.1	6093.35
1345.56	141.05	6129.77
1345.61	141	6099.42
1345.66	140.95	6062.7
1345.71	140.9	6061.3
1345.76	140.85	6064.45
1345.81	140.8	6084.72
1345.86	140.75	6087.63
1345.91	140.7	6094.1
1345.96	140.65	6050.47
1346.01	140.6	6087.4
1346.06	140.55	6120.85
1346.11	140.5	6131.7
1346.16	140.45	6114
1346.21	140.4	6098.52
1346.26	140.35	6108.32
1346.31	140.3	6111.3
1346.36	140.25	6134.9
1346.41	140.2	6140.67
1346.46	140.15	6129.38
1346.51	140.1	6129.25
1346.56	140.05	6128.57
1346.61	140	6097.25
1346.66	139.95	6075.27
1346.71	139.9	6091.6
1346.76	139.85	6116.4
1346.81	139.8	6091.07
1346.86	139.75	6115.23
1346.91	139.7	6106.48
1346.96	139.65	6116.07
1347.01	139.6	6135.03
1347.06	139.55	6127.7
1347.11	139.5	6128.05
1347.16	139.45	6094.77
1347.21	139.4	6136
1347.26	139.35	6130.72
1347.31	139.3	6074.35
1347.36	139.25	6136.8
1347.41	139.2	6145.05
1347.46	139.15	6117.88
1347.51	139.1	6134.87
1347.56	139.05	6130.3
1347.61	139	6115.5
1347.66	138.95	6145.03
1347.71	138.9	6125.03
1347.76	138.85	6124.4
1347.81	138.8	6179.75
1347.86	138.75	6134.25
1347.91	138.7	6136.2
1347.96	138.65	6169.9
1348.01	138.6	6127.37
1348.06	138.55	6140.23
1348.11	138.5	6095.82
1348.16	138.45	6091.7
1348.21	138.4	6125.38
1348.26	138.35	6199.92
1348.31	138.3	6178.88
1348.36	138.25	6192.88
1348.41	138.2	6139.97
1348.46	138.15	6167.37
1348.51	138.1	6178.47
1348.56	138.05	6152.7
1348.61	138	6171.48
1348.66	137.95	6162.15
1348.71	137.9	6172.4
1348.76	137.85	6182.53
1348.81	137.8	6183.5
1348.86	137.75	6157.12
1348.91	137.7	6142.77
1348.96	137.65	6121.07
1349.01	137.6	6142.45
1349.06	137.55	6167.5
1349.11	137.5	6169
1349.16	137.45	6179.87
1349.21	137.4	6135.13
1349.26	137.35	6187.65
1349.31	137.3	6173.62
1349.36	137.25	6212.82
1349.41	137.2	6204.5
1349.46	137.15	6178.95
1349.51	137.1	6126.22
1349.56	137.05	6161.95
1349.61	137	6182.47
1349.66	136.95	6206.12
1349.71	136.9	6205.95
1349.76	136.85	6166.25
1349.81	136.8	6183.7
1349.86	136.75	6168.95
1349.91	136.7	6161.6
1349.96	136.65	6199.47
1350.01	136.6	6191.17
1350.06	136.55	6171.6
1350.11	136.5	6188.4
1350.16	136.45	6187.1
1350.21	136.4	6186.48
1350.26	136.35	6204.35
1350.31	136.3	6200.72
1350.36	136.25	6175.63
1350.41	136.2	6180.82
1350.46	136.15	6197.32
1350.51	136.1	6219.77
1350.56	136.05	6196.15
1350.61	136	6232.07
1350.66	135.95	6228.42
1350.71	135.9	6209.8
1350.76	135.85	6258.02
1350.81	135.8	6199.97
1350.86	135.75	6209.42
1350.91	135.7	6202.82
1350.96	135.65	6166.6
1351.01	135.6	6176
1351.06	135.55	6196.35
1351.11	135.5	6200.87
1351.16	135.45	6222.55
1351.21	135.4	6205.7
1351.26	135.35	6223.85
1351.31	135.3	6225.75
1351.36	135.25	6230.6
1351.41	135.2	6265.95
1351.46	135.15	6242.1
1351.51	135.1	6244.07
1351.56	135.05	6199.42
1351.61	135	6227.1
1351.66	134.95	6241.43
1351.71	134.9	6208.88
1351.76	134.85	6234.02
1351.81	134.8	6247
1351.86	134.75	6273.42
1351.91	134.7	6246.38
1351.96	134.65	6235.4
1352.01	134.6	6258.88
1352.06	134.55	6221.72
1352.11	134.5	6230.9
1352.16	134.45	6247.85
1352.21	134.4	6256.7
1352.26	134.35	6259.75
1352.31	134.3	6230.95
1352.36	134.25	6233.52
1352.41	134.2	6249.5
1352.46	134.15	6215.6
1352.51	134.1	6257.07
1352.56	134.05	6242.35
1352.61	134	6268.9
1352.66	133.95	6247.85
1352.71	133.9	6244.72
1352.76	133.85	6264.15
1352.81	133.8	6226.72
1352.86	133.75	6243.67
1352.91	133.7	6254.02
1352.96	133.65	6275.45
1353.01	133.6	6292.35
1353.06	133.55	6279.97
1353.11	133.5	6266.6
1353.16	133.45	6266.35
1353.21	133.4	6262.85
1353.26	133.35	6236.52
1353.31	133.3	6257.77
1353.36	133.25	6294.32
1353.41	133.2	6279.95
1353.46	133.15	6276.7
1353.51	133.1	6293.3
1353.56	133.05	6269.1
1353.61	133	6282.93
1353.66	132.95	6312.68
1353.71	132.9	6269.57
1353.76	132.85	6264.7
1353.81	132.8	6292.32
1353.86	132.75	6245.15
1353.91	132.7	6306.65
1353.96	132.65	6288.35
1354.01	132.6	6260.82
1354.06	132.55	6305.25
1354.11	132.5	6329.4
1354.16	132.45	6298.02
1354.21	132.4	6305.18
1354.26	132.35	6304.32
1354.31	132.3	6308.27
1354.36	132.25	6281.07
1354.41	132.2	6299.25
1354.46	132.15	6341.05
1354.51	132.1	6334.2
1354.56	132.05	6275.7
1354.61	132	6311.85
1354.66	131.95	6314.97
1354.71	131.9	6345.63
1354.76	131.85	6327.88
1354.81	131.8	6313.37
1354.86	131.75	6379.65
1354.91	131.7	6324.32
1354.96	131.65	6301.45
1355.01	131.6	6330.4
1355.06	131.55	6299.57
1355.11	131.5	6287.1
1355.16	131.45	6319.9
1355.21	131.4	6335.6
1355.26	131.35	6321.02
1355.31	131.3	6339.62
1355.36	131.25	6322.1
1355.41	131.2	6266.65
1355.46	131.15	6294.97
1355.51	131.1	6376.92
1355.56	131.05	6358.95
1355.61	131	6326.17
1355.66	130.95	6348.02
1355.71	130.9	6304.13
1355.76	130.85	6357.55
1355.81	130.8	6346.1
1355.86	130.75	6326.95
1355.91	130.7	6322.75
1355.96	130.65	6352.7
1356.01	130.6	6332.12
1356.06	130.55	6299.7
1356.11	130.5	6351.55
1356.16	130.45	6338.4
1356.21	130.4	6352.25
1356.26	130.35	6423.22
1356.31	130.3	6391.7
1356.36	130.25	6345.07
1356.41	130.2	6352.55
1356.46	130.15	6368.05
1356.51	130.1	6372.5
1356.56	130.05	6398.42
1356.61	130	6357.27
1356.66	129.95	6369.87
1356.71	129.9	6433.95
1356.76	129.85	6393.65
1356.81	129.8	6389.13
1356.86	129.75	6388.65
1356.91	129.7	6349.77
1356.96	129.65	6391.77
1357.01	129.6	6375.85
1357.06	129.55	6366.57
1357.11	129.5	6403.02
1357.16	129.45	6399.13
1357.21	129.4	6360.55
1357.26	129.35	6343.85
1357.31	129.3	6335.38
1357.36	129.25	6381.4
1357.41	129.2	6388.3
1357.46	129.15	6391.38
1357.51	129.1	6384.55
1357.56	129.05	6373.57
1357.61	129	6372.15
1357.66	128.95	6388.3
1357.71	128.9	6339.8
1357.76	128.85	6385.97
1357.81	128.8	6374.7
1357.86	128.75	6355.1
1357.91	128.7	6367.3
1357.96	128.65	6390.25
1358.01	128.6	6389.15
1358.06	128.55	6395.27
1358.11	128.5	6416.63
1358.16	128.45	6406.05
1358.21	128.4	6420.72
1358.26	128.35	6441.72
1358.31	128.3	6401.75
1358.36	128.25	6384.1
1358.41	128.2	6425.8
1358.46	128.15	6441.8
1358.51	128.1	6410.95
1358.56	128.05	6411.63
1358.61	128	6408.85
1358.66	127.95	6399.55
1358.71	127.9	6416.38
1358.76	127.85	6431.12
1358.81	127.8	6460.72
1358.86	127.75	6430.57
1358.91	127.7	6385.23
1358.96	127.65	6390.23
1359.01	127.6	6374.5
1359.06	127.55	6404.55
1359.11	127.5	6405.1
1359.16	127.45	6419.82
1359.21	127.4	6455.65
1359.26	127.35	6433.78
1359.31	127.3	6409.1
1359.36	127.25	6450.7
1359.41	127.2	6417.63
1359.46	127.15	6430.2
1359.51	127.1	6480.72
1359.56	127.05	6477.5
1359.61	127	6437.53
1359.66	126.95	6464.2
1359.71	126.9	6471.28
1359.76	126.85	6450.23
1359.81	126.8	6475.57
1359.86	126.75	6473.17
1359.91	126.7	6478.55
1359.96	126.65	6478.2
1360.01	126.6	6489.72
1360.06	126.55	6510.2
1360.11	126.5	6506.82
1360.16	126.45	6502.85
1360.21	126.4	6544.5
1360.26	126.35	6516.38
1360.31	126.3	6512.88
1360.36	126.25	6535.72
1360.41	126.2	6497.82
1360.46	126.15	6521.75
1360.51	126.1	6499.5
1360.56	126.05	6535.57
1360.61	126	6488.05
1360.66	125.95	6490.18
1360.71	125.9	6544.6
1360.76	125.85	6533.32
1360.81	125.8	6535.25
1360.86	125.75	6494.02
1360.91	125.7	6503.27
1360.96	125.65	6471.1
1361.01	125.6	6534.5
1361.06	125.55	6558.85
1361.11	125.5	6502.45
1361.16	125.45	6497.37
1361.21	125.4	6519.35
1361.26	125.35	6557.17
1361.31	125.3	6539.67
1361.36	125.25	6534.7
1361.41	125.2	6527.77
1361.46	125.15	6574.2
1361.51	125.1	6540.6
1361.56	125.05	6556.17
1361.61	125	6564.02
1361.66	124.95	6536.25
1361.71	124.9	6526.55
1361.76	124.85	6582.57
1361.81	124.8	6569.27
1361.86	124.75	6562.47
1361.91	124.7	6599.77
1361.96	124.65	6585.55
1362.01	124.6	6624.18
1362.06	124.55	6626.07
1362.11	124.5	6546.9
1362.16	124.45	6600
1362.21	124.4	6607.32
1362.26	124.35	6572.53
1362.31	124.3	6609.02
1362.36	124.25	6625.03
1362.41	124.2	6618.5
1362.46	124.15	6594.3
1362.51	124.1	6603.05
1362.56	124.05	6627.05
1362.61	124	6631.57
1362.66	123.95	6653.5
1362.71	123.9	6639.15
1362.76	123.85	6631.25
1362.81	123.8	6673.65
1362.86	123.75	6640.6
1362.91	123.7	6615.32
1362.96	123.65	6607.17
1363.01	123.6	6660.8
1363.06	123.55	6677.07
1363.11	123.5	6690.45
1363.16	123.45	6682.1
1363.21	123.4	6679.07
1363.26	123.35	6662.53
1363.31	123.3	6719.4
1363.36	123.25	6676.02
1363.41	123.2	6678.72
1363.46	123.15	6715.65
1363.51	123.1	6698.07
1363.56	123.05	6700
1363.61	123	6718.45
1363.66	122.95	6707.9
1363.71	122.9	6720.43
1363.76	122.85	6749.92
1363.81	122.8	6715.65
1363.86	122.75	6722.3
1363.91	122.7	6758.85
1363.96	122.65	6706.63
1364.01	122.6	6722.85
1364.06	122.55	6758.75
1364.11	122.5	6777.63
1364.16	122.45	6764.32
1364.21	122.4	6773.02
1364.26	122.35	6828.7
1364.31	122.3	6756.12
1364.36	122.25	6792.37
1364.41	122.2	6772.53
1364.46	122.15	6805.82
1364.51	122.1	6795.05
1364.56	122.05	6795.6
1364.61	122	6796.75
1364.66	121.95	6764.5
1364.71	121.9	6765.65
1364.76	121.85	6799.6
1364.81	121.8	6800.85
1364.86	121.75	6799.2
1364.91	121.7	6814.22
1364.96	121.65	6832.25
1365.01	121.6	6880.38
1365.06	121.55	6846.7
1365.11	121.5	6868.02
1365.16	121.45	6830.92
1365.21	121.4	6829.05
1365.26	121.35	6823.4
1365.31	121.3	6845.1
1365.36	121.25	6826.63
1365.41	121.2	6843.75
1365.46	121.15	6892.1
1365.51	121.1	6862.47
1365.56	121.05	6893.52
1365.61	121	6882.27
1365.66	120.95	6845.97
1365.71	120.9	6839.67
1365.76	120.85	6896.17
1365.81	120.8	6912.42
1365.86	120.75	6896.97
1365.91	120.7	6896.28
1365.96	120.65	6905.27
1366.01	120.6	6892.8
1366.06	120.55	6946.65
1366.11	120.5	6921.32
1366.16	120.45	6927.15
1366.21	120.4	6907.12
1366.26	120.35	6962.9
1366.31	120.3	6947.02
1366.36	120.25	6884.7
1366.41	120.2	6952.8
1366.46	120.15	6970.45
1366.51	120.1	6953.8
1366.56	120.05	6960.72
1366.61	120	6966.43
1366.66	119.95	6925.3
1366.71	119.9	6985.32
1366.76	119.85	6939.32
1366.81	119.8	6937.22
1366.86	119.75	6917.37
1366.91	119.7	6933.52
1366.96	119.65	6980.05
1367.01	119.6	6954.05
1367.06	119.55	6970.9
1367.11	119.5	7009.42
1367.16	119.45	6970.75
1367.21	119.4	7010.72
1367.26	119.35	6990.1
1367.31	119.3	6964.05
1367.36	119.25	6942.02
1367.41	119.2	6965
1367.46	119.15	7013.82
1367.51	119.1	6966.7
1367.56	119.05	6964.57
1367.61	119	6984.22
1367.66	118.95	7029.82
1367.71	118.9	7030.32
1367.76	118.85	6984.75
1367.81	118.8	6992.5
1367.86	118.75	7008.98
1367.91	118.7	7004.13
1367.96	118.65	7060.05
1368.01	118.6	7026.48
1368.06	118.55	7039
1368.11	118.5	6995.43
1368.16	118.45	7033.35
1368.21	118.4	7027.77
1368.26	118.35	7016.32
1368.31	118.3	7000.23
1368.36	118.25	7034.18
1368.41	118.2	7075.8
1368.46	118.15	6989.15
1368.51	118.1	7026.97
1368.56	118.05	7046.85
1368.61	118	7041.28
1368.66	117.95	7033.15
1368.71	117.9	7017.3
1368.76	117.85	7038.78
1368.81	117.8	7067.22
1368.86	117.75	7054.85
1368.91	117.7	7021.32
1368.96	117.65	7023.32
1369.01	117.6	7029.82
1369.06	117.55	7070.65
1369.11	117.5	7086.28
1369.16	117.45	7131.02
1369.21	117.4	7073.82
1369.26	117.35	7035.07
1369.31	117.3	7037.17
1369.36	117.25	7060.45
1369.41	117.2	7119.4
1369.46	117.15	7065.52
1369.51	117.1	7058.22
1369.56	117.05	7087.53
1369.61	117	7089.97
1369.66	116.95	7095.03
1369.71	116.9	7106.77
1369.76	116.85	7096.02
1369.81	116.8	7104.2
1369.86	116.75	7122.8
1369.91	116.7	7086.63
1369.96	116.65	7063.25
1370.01	116.6	7064.47
1370.06	116.55	7103.88
1370.11	116.5	7134
1370.16	116.45	7150.32
1370.21	116.4	7175.32
1370.26	116.35	7139.6
1370.31	116.3	7132.5
1370.36	116.25	7146.72
1370.41	116.2	7123.25
1370.46	116.15	7149.3
1370.51	116.1	7094.4
1370.56	116.05	7139.55
1370.61	116	7161.75
1370.66	115.95	7139.6
1370.71	115.9	7112.63
1370.76	115.85	7098.27
1370.81	115.8	7134.05
1370.86	115.75	7170.38
1370.91	115.7	7188.88
1370.96	115.65	7168.1
1371.01	115.6	7217.45
1371.06	115.55	7198.62
1371.11	115.5	7172.6
1371.16	115.45	7221.55
1371.21	115.4	7220.27
1371.26	115.35	7195.3
1371.31	115.3	7176.55
1371.36	115.25	7170.13
1371.41	115.2	7193.98
1371.46	115.15	7222.17
1371.51	115.1	7213.4
1371.56	115.05	7213.93
1371.61	115	7229.67
1371.66	114.95	7213.35
1371.71	114.9	7252.9
1371.76	114.85	7205.4
1371.81	114.8	7261.38
1371.86	114.75	7276.1
1371.91	114.7	7242.85
1371.96	114.65	7257.97
1372.01	114.6	7233.45
1372.06	114.55	7296.35
1372.11	114.5	7300.15
1372.16	114.45	7294.6
1372.21	114.4	7316.48
1372.26	114.35	7289.27
1372.31	114.3	7296.43
1372.36	114.25	7304.07
1372.41	114.2	7272.05
1372.46	114.15	7332.32
1372.51	114.1	7346.15
1372.56	114.05	7329.42
1372.61	114	7329.22
1372.66	113.95	7382.3
1372.71	113.9	7341.17
1372.76	113.85	7302.68
1372.81	113.8	7329.5
1372.86	113.75	7345.75
1372.91	113.7	7339.42
1372.96	113.65	7323.95
1373.01	113.6	7315.82
1373.06	113.55	7359.85
1373.11	113.5	7402.6
1373.16	113.45	7387.7
1373.21	113.4	7395.57
1373.26	113.35	7378.55
1373.31	113.3	7415.97
1373.36	113.25	7396.38
1373.41	113.2	7395.8
1373.46	113.15	7409.82
1373.51	113.1	7409.25
1373.56	113.05	7417.85
1373.61	113	7425.25
1373.66	112.95	7407.4
1373.71	112.9	7470.92
1373.76	112.85	7468.88
1373.81	112.8	7448.82
1373.86	112.75	7446.32
1373.91	112.7	7487.12
1373.96	112.65	7442.17
1374.01	112.6	7493.1
1374.06	112.55	7491.92
1374.11	112.5	7475.35
1374.16	112.45	7511.3
1374.21	112.4	7481.43
1374.26	112.35	7546.65
1374.31	112.3	7525.1
1374.36	112.25	7525.87
1374.41	112.2	7519.6
1374.46	112.15	7503.85
1374.51	112.1	7563.13
1374.56	112.05	7583.85
1374.61	112	7595.4
1374.66	111.95	7573.78
1374.71	111.9	7576.88
1374.76	111.85	7559.7
1374.81	111.8	7563.22
1374.86	111.75	7617.73
1374.91	111.7	7606.77
1374.96	111.65	7549.8
1375.01	111.6	7576.72
1375.06	111.55	7582.73
1375.11	111.5	7588.07
1375.16	111.45	7575.43
1375.21	111.4	7586.48
1375.26	111.35	7608.05
1375.31	111.3	7620.2
1375.36	111.25	7623.98
1375.41	111.2	7620.9
1375.46	111.15	7601.77
1375.51	111.1	7634.67
1375.56	111.05	7651.1
1375.61	111	7681.4
1375.66	110.95	7688.93
1375.71	110.9	7731.75
1375.76	110.85	7741.22
1375.81	110.8	7697.63
1375.86	110.75	7721.45
1375.91	110.7	7674.3
1375.96	110.65	7692.27
1376.01	110.6	7673.55
1376.06	110.55	7657.37
1376.11	110.5	7594.47
1376.16	110.45	7604.55
1376.21	110.4	7540.85
1376.26	110.35	7511.32
1376.31	110.3	7475.4
1376.36	110.25	7412.17
1376.41	110.2	7397.5
1376.46	110.15	7384.1
1376.51	110.1	7398.25
1376.56	110.05	7391.48
1376.61	110	7371.77
1376.66	109.95	7361.1
1376.71	109.9	7360.47
1376.76	109.85	7325.3
1376.81	109.8	7385.05
1376.86	109.75	7420.75
1376.91	109.7	7412.53
1376.96	109.65	7497.32
1377.01	109.6	7503.78
1377.06	109.55	7528.57
1377.11	109.5	7630.32
1377.16	109.45	7705.05
1377.21	109.4	7801.05
1377.26	109.35	7910.35
1377.31	109.3	8031.97
1377.36	109.25	8187.55
1377.41	109.2	8278.67
1377.46	109.15	8398.27
1377.51	109.1	8516.92
1377.56	109.05	8623.8
1377.61	109	8801.73
1377.66	108.95	8860.27
1377.71	108.9	8863.22
1377.76	108.85	8901.15
1377.81	108.8	8869.27
1377.86	108.75	8798.85
1377.91	108.7	8656.97
1377.96	108.65	8569.5
1378.01	108.6	8441.25
1378.06	108.55	8280.95
1378.11	108.5	8151.15
1378.16	108.45	7982.65
1378.21	108.4	7888.62
1378.26	108.35	7788.37
1378.31	108.3	7731.52
1378.36	108.25	7627.8
1378.41	108.2	7519.87
1378.46	108.15	7477.95
1378.51	108.1	7387.35
1378.56	108.05	7330.72
1378.61	108	7283.37
1378.66	107.95	7244.9
1378.71	107.9	7229.22
1378.76	107.85	7146.2
1378.81	107.8	7143.75
1378.86	107.75	7113.55
1378.91	107.7	7090.82
1378.96	107.65	7060.32
1379.01	107.6	7056.92
1379.06	107.55	6979.95
1379.11	107.5	7001.6
1379.16	107.45	7024.6
1379.21	107.4	7019.65
1379.26	107.35	7031.85
1379.31	107.3	6996.52
1379.36	107.25	7025.8
1379.41	107.2	7053.9
1379.46	107.15	7043.95
1379.51	107.1	7051.63
1379.56	107.05	7055.85
1379.61	107	7018.45
1379.66	106.95	6994.85
1379.71	106.9	6926.97
1379.76	106.85	6889.35
1379.81	106.8	6825.3
1379.86	106.75	6749
1379.91	106.7	6710
1379.96	106.65	6639.72
1380.01	106.6	6561.88
1380.06	106.55	6558.45
1380.11	106.5	6515.97
1380.16	106.45	6496.63
1380.21	106.4	6486.65
1380.26	106.35	6428.67
1380.31	106.3	6459.52
1380.36	106.25	6439.6
1380.41	106.2	6437.22
1380.46	106.15	6477.57
1380.51	106.1	6515.72
1380.56	106.05	6506.97
1380.61	106	6483
1380.66	105.95	6571.72
1380.71	105.9	6619.85
1380.76	105.85	6690.05
1380.81	105.8	6754.02
1380.86	105.75	6898.2
1380.91	105.7	6978.8
1380.96	105.65	7104.82
1381.01	105.6	7296.88
1381.06	105.55	7462.63
1381.11	105.5	7654.38
1381.16	105.45	7874.3
1381.21	105.4	8037.05
1381.26	105.35	8204.95
1381.31	105.3	8341.2
1381.36	105.25	8442.6
1381.41	105.2	8435.85
1381.46	105.15	8415.3
1381.51	105.1	8357.75
1381.56	105.05	8227.8
1381.61	105	8069.13
1381.66	104.95	7903.85
1381.71	104.9	7698.65
1381.76	104.85	7551.57
1381.81	104.8	7343.93
1381.86	104.75	7214.75
1381.91	104.7	7071.05
1381.96	104.65	6925.47
1382.01	104.6	6864.45
1382.06	104.55	6649
1382.11	104.5	6554.38
1382.16	104.45	6515.27
1382.21	104.4	6494.47
1382.26	104.35	6387.73
1382.31	104.3	6307.73
1382.36	104.25	6281.35
1382.41	104.2	6201.52
1382.46	104.15	6183.55
1382.51	104.1	6174.95
1382.56	104.05	6105.4
1382.61	104	6114.7
1382.66	103.95	6153
1382.71	103.9	6114.67
1382.76	103.85	6109.5
1382.81	103.8	6070.32
1382.86	103.75	6042.57
1382.91	103.7	6068.2
1382.96	103.65	6028.93
1383.01	103.6	6047.55
1383.06	103.55	6051.52
1383.11	103.5	6019.72
1383.16	103.45	6026.6
1383.21	103.4	6029.02
1383.26	103.35	6017.57
1383.31	103.3	6027.25
1383.36	103.25	6041.6
1383.41	103.2	5978.5
1383.46	103.15	5964.8
1383.51	103.1	6033.9
1383.56	103.05	5988.98
1383.61	103	5993.57
1383.66	102.95	5984.02
1383.71	102.9	6016.63
1383.76	102.85	6019.65
1383.81	102.8	6018.65
1383.86	102.75	6036.5
1383.91	102.7	6023.9
1383.96	102.65	6036.82
1384.01	102.6	5969.18
1384.06	102.55	5961.1
1384.11	102.5	5980.25
1384.16	102.45	5983.1
1384.21	102.4	5961.5
1384.26	102.35	5984.72
1384.31	102.3	6040.52
1384.36	102.25	6020.1
1384.41	102.2	6000.95
1384.46	102.15	5990.25
1384.51	102.1	5987.37
1384.56	102.05	6012.27
1384.61	102	6031.07
1384.66	101.95	6026.55
1384.71	101.9	5982.2
1384.76	101.85	6011.52
1384.81	101.8	6036.82
1384.86	101.75	6064.2
1384.91	101.7	6000.2
1384.96	101.65	6044.02
1385.01	101.6	6001.4
1385.06	101.55	6031.3
1385.11	101.5	6006.5
1385.16	101.45	6042.45
1385.21	101.4	6035.85
1385.26	101.35	6044.15
1385.31	101.3	6030.45
1385.36	101.25	6017.32
1385.41	101.2	6052.6
1385.46	101.15	6023.2
1385.51	101.1	6055.67
1385.56	101.05	6041.28
1385.61	101	6023.52
1385.66	100.95	6040.8
1385.71	100.9	6074.82
1385.76	100.85	6029.3
1385.81	100.8	6076.63
1385.86	100.75	6067.37
1385.91	100.7	6117.22
1385.96	100.65	6051.1
1386.01	100.6	6040.07
1386.06	100.55	6023.05
1386.11	100.5	6095.55
1386.16	100.45	6059.35
1386.21	100.4	6082.68
1386.26	100.35	6070.72
1386.31	100.3	6098.22
1386.36	100.25	6076.3
1386.41	100.2	6013.7
1386.46	100.15	6079.57
1386.51	100.1	6031.3
1386.56	100.05	6062.88
1386.61	100	6090.45
1386.66	99.95	6088.9
1386.71	99.9	6088.57
1386.76	99.85	6063.3
1386.81	99.8	6085.72
1386.86	99.75	6096.07
1386.91	99.7	6071.92
1386.96	99.65	6042
1387.01	99.6	6068.45
1387.06	99.55	6034.57
1387.11	99.5	6057.15
1387.16	99.45	6051.02
1387.21	99.4	6098.88
1387.26	99.35	6112.4
1387.31	99.3	6085.82
1387.36	99.25	6077.22
1387.41	99.2	6108.05
1387.46	99.15	6085.77
1387.51	99.1	6061.75
1387.56	99.05	6046.77
1387.61	99	6037.63
1387.66	98.95	6048.5
1387.71	98.9	6069.55
1387.76	98.85	6118.78
1387.81	98.8	6062.3
1387.86	98.75	6063.78
1387.91	98.7	6080.77
1387.96	98.65	6073.75
1388.01	98.6	6090.43
1388.06	98.55	6068.47
1388.11	98.5	6068.1
1388.16	98.45	6091
1388.21	98.4	6124.25
1388.26	98.35	6048.65
1388.31	98.3	6057.27
1388.36	98.25	6049.38
1388.41	98.2	6074.55
1388.46	98.15	6047.5
1388.51	98.1	6067.42
1388.56	98.05	6054.57
1388.61	98	6023.22
1388.66	97.95	6057.97
1388.71	97.9	6039.22
1388.76	97.85	6042.73
1388.81	97.8	5996.15
1388.86	97.75	6034.4
1388.91	97.7	6066.77
1388.96	97.65	5990.77
1389.01	97.6	6010.35
1389.06	97.55	6010.9
1389.11	97.5	6010.5
1389.16	97.45	6030.3
1389.21	97.4	5995.97
1389.26	97.35	5976.3
1389.31	97.3	5981.02
1389.36	97.25	5941.12
1389.41	97.2	5935.75
1389.46	97.15	5927.07
1389.51	97.1	5929.97
1389.56	97.05	5889.75
1389.61	97	5903.85
1389.66	96.95	5918.78
1389.71	96.9	5890.3
1389.76	96.85	5874.42
1389.81	96.8	5867.9
1389.86	96.75	5873.15
1389.91	96.7	5828.8
1389.96	96.65	5826.95
1390.01	96.6	5807.88
1390.06	96.55	5810.82
1390.11	96.5	5813.9
1390.16	96.45	5742.75
1390.21	96.4	5716.85
1390.26	96.35	5797.27
1390.31	96.3	5787.15
1390.36	96.25	5733.67
1390.41	96.2	5786.38
1390.46	96.15	5768.22
1390.51	96.1	5736.1
1390.56	96.05	5706.05
1390.61	96	5692.22
1390.66	95.95	5713.1
1390.71	95.9	5672
1390.76	95.85	5715.82
1390.81	95.8	5680.1
1390.86	95.75	5704.45
1390.91	95.7	5721.97
1390.96	95.65	5720.1
1391.01	95.6	5708.6
1391.06	95.55	5709.77
1391.11	95.5	5739.27
1391.16	95.45	5751.25
1391.21	95.4	5755.52
1391.26	95.35	5734.82
1391.31	95.3	5753.4
1391.36	95.25	5761.02
1391.41	95.2	5743.5
1391.46	95.15	5794.07
1391.51	95.1	5835.72
1391.56	95.05	5771.25
1391.61	95	5772.53
1391.66	94.95	5804.82
1391.71	94.9	5803.2
1391.76	94.85	5808.9
1391.81	94.8	5853
1391.86	94.75	5815.72
1391.91	94.7	5777.17
1391.96	94.65	5832.4
1392.01	94.6	5838.52
1392.06	94.55	5872.75
1392.11	94.5	5877.47
1392.16	94.45	5856.45
1392.21	94.4	5831.65
1392.26	94.35	5887.1
1392.31	94.3	5873.1
1392.36	94.25	5886.88
1392.41	94.2	5907.65
1392.46	94.15	5843.93
1392.51	94.1	5856.02
1392.56	94.05	5900.52
1392.61	94	5847.17
1392.66	93.95	5845.27
1392.71	93.9	5856.25
1392.76	93.85	5892.65
1392.81	93.8	5865.38
1392.86	93.75	5852.55
1392.91	93.7	5886.32
1392.96	93.65	5910.07
1393.01	93.6	5862.85
1393.06	93.55	5837.7
1393.11	93.5	5820.5
1393.16	93.45	5843.65
1393.21	93.4	5814.4
1393.26	93.35	5834.7
1393.31	93.3	5807.97
1393.36	93.25	5816.75
1393.41	93.2	5801.07
1393.46	93.15	5758.65
1393.51	93.1	5734
1393.56	93.05	5738.27
1393.61	93	5723.25
1393.66	92.95	5706.35
1393.71	92.9	5651.4
1393.76	92.85	5729.65
1393.81	92.8	5648
1393.86	92.75	5607.85
1393.91	92.7	5632.75
1393.96	92.65	5613.72
1394.01	92.6	5596.2
1394.06	92.55	5607.6
1394.11	92.5	5592.85
1394.16	92.45	5585.1
1394.21	92.4	5570.23
1394.26	92.35	5555.67
1394.31	92.3	5592.75
1394.36	92.25	5582.97
1394.41	92.2	5584.38
1394.46	92.15	5582.05
1394.51	92.1	5577.3
1394.56	92.05	5602.15
1394.61	92	5647.22
1394.66	91.95	5624.92
1394.71	91.9	5673.47
1394.76	91.85	5672.75
1394.81	91.8	5666.17
1394.86	91.75	5632.17
1394.91	91.7	5694.65
1394.96	91.65	5654.25
1395.01	91.6	5699.4
1395.06	91.55	5785.82
1395.11	91.5	5802.8
1395.16	91.45	5837
1395.21	91.4	5876.3
1395.26	91.35	5867.6
1395.31	91.3	5884.62
1395.36	91.25	5927.02
1395.41	91.2	5955.38
1395.46	91.15	5988.82
1395.51	91.1	5970.52
1395.56	91.05	5987.88
1395.61	91	6042.4
1395.66	90.95	6074.85
1395.71	90.9	6110.43
1395.76	90.85	6152.7
1395.81	90.8	6211.63
1395.86	90.75	6229.87
1395.91	90.7	6252.47
1395.96	90.65	6290.5
1396.01	90.6	6302.55
1396.06	90.55	6341.32
1396.11	90.5	6319.25
1396.16	90.45	6333.07
1396.21	90.4	6401.75
1396.26	90.35	6394.7
1396.31	90.3	6371.2
1396.36	90.25	6391.92
1396.41	90.2	6420.95
1396.46	90.15	6392.97
1396.51	90.1	6380.43
1396.56	90.05	6400.6
1396.61	90	6380.25
1396.66	89.95	6386.12
1396.71	89.9	6379.4
1396.76	89.85	6374.13
1396.81	89.8	6397
1396.86	89.75	6434.77
1396.91	89.7	6452.53
1396.96	89.65	6426.55
1397.01	89.6	6501.02
1397.06	89.55	6586.17
1397.11	89.5	6667.35
1397.16	89.45	6712.07
1397.21	89.4	6792.85
1397.26	89.35	6903.32
1397.31	89.3	6994.18
1397.36	89.25	7117.6
1397.41	89.2	7277.57
1397.46	89.15	7412.12
1397.51	89.1	7650.4
1397.56	89.05	7825.6
1397.61	89	8057.42
1397.66	88.95	8293.75
1397.71	88.9	8563.52
1397.76	88.85	8943.22
1397.81	88.8	9296.27
1397.86	88.75	9729.2
1397.91	88.7	10218.1
1397.96	88.65	10777.1
1398.01	88.6	11481.3
1398.06	88.55	12338.2
1398.11	88.5	13287.8
1398.16	88.45	14492.7
1398.21	88.4	15973.6
1398.26	88.35	17792.9
1398.31	88.3	20019.6
1398.36	88.25	22577.1
1398.41	88.2	25557.8
1398.46	88.15	29248
1398.51	88.1	33373.2
1398.56	88.05	37944
1398.61	88	42954.8
1398.66	87.95	48060
1398.71	87.9	53198.5
1398.76	87.85	58004.8
1398.81	87.8	62125.5
1398.86	87.75	65222.5
1398.91	87.7	67068
1398.96	87.65	67757.5
1399.01	87.6	67128.8
1399.06	87.55	64979
1399.11	87.5	61918
1399.16	87.45	57878
1399.21	87.4	53176
1399.26	87.35	48105.5
1399.31	87.3	42992.3
1399.36	87.25	38153.8
1399.41	87.2	33534.5
1399.46	87.15	29334
1399.51	87.1	25580.3
1399.56	87.05	22409.3
1399.61	87	19669.9
1399.66	86.95	17288.1
1399.71	86.9	15337.4
1399.76	86.85	13631.6
1399.81	86.8	12399.7
1399.86	86.75	11260.2
1399.91	86.7	10311.5
1399.96	86.65	9529.42
1400.01	86.6	8966.48
1400.06	86.55	8444.35
1400.11	86.5	8040.95
1400.16	86.45	7674.87
1400.21	86.4	7286.52
1400.26	86.35	7056.68
1400.31	86.3	6830.35
1400.36	86.25	6619.75
1400.41	86.2	6488.1
1400.46	86.15	6413.7
1400.51	86.1	6237.57
1400.56	86.05	6150.52
1400.61	86	6083.98
1400.66	85.95	6034.87
1400.71	85.9	6028.75
1400.76	85.85	5994.85
1400.81	85.8	6018.65
1400.86	85.75	6063.3
1400.91	85.7	6094.82
1400.96	85.65	6201.12
1401.01	85.6	6282.15
1401.06	85.55	6406.8
1401.11	85.5	6566.9
1401.16	85.45	6750.47
1401.21	85.4	6922.82
1401.26	85.35	7127.88
1401.31	85.3	7359.97
1401.36	85.25	7656.85
1401.41	85.2	8012
1401.46	85.15	8449.5
1401.51	85.1	8901.33
1401.56	85.05	9407.55
1401.61	85	10091
1401.66	84.95	10861.4
1401.71	84.9	11766.9
1401.76	84.85	12903.1
1401.81	84.8	14200.4
1401.86	84.75	15920
1401.91	84.7	18000.8
1401.96	84.65	20414.6
1402.01	84.6	23392.7
1402.06	84.55	26925.3
1402.11	84.5	31218.5
1402.16	84.45	36254.8
1402.21	84.4	41862
1402.26	84.35	48174.5
1402.31	84.3	54901
1402.36	84.25	61726.8
1402.41	84.2	68218.3
1402.46	84.15	74383
1402.51	84.1	79409
1402.56	84.05	82955.8
1402.61	84	84626.3
1402.66	83.95	84520.8
1402.71	83.9	82636
1402.76	83.85	79129
1402.81	83.8	74412.3
1402.86	83.75	68458
1402.91	83.7	62132.7
1402.96	83.65	55208
1403.01	83.6	48553
1403.06	83.55	42251.8
1403.11	83.5	36412
1403.16	83.45	31118.5
1403.21	83.4	26606.8
1403.26	83.35	22615
1403.31	83.3	19258.6
1403.36	83.25	16443.5
1403.41	83.2	14109.3
1403.46	83.15	12145.1
1403.51	83.1	10512.4
1403.56	83.05	9213.45
1403.61	83	8148.52
1403.66	82.95	7312.5
1403.71	82.9	6544.45
1403.76	82.85	5929.05
1403.81	82.8	5455.72
1403.86	82.75	5015.75
1403.91	82.7	4680.32
1403.96	82.65	4399.07
1404.01	82.6	4140.15
1404.06	82.55	3896.6
1404.11	82.5	3712
1404.16	82.45	3522.15
1404.21	82.4	3372.17
1404.26	82.35	3235.07
1404.31	82.3	3112.8
1404.36	82.25	3026.32
1404.41	82.2	2923.15
1404.46	82.15	2812.52
1404.51	82.1	2710.38
1404.56	82.05	2685.77
1404.61	82	2639.45
1404.66	81.95	2536.82
1404.71	81.9	2459.26
1404.76	81.85	2397.43
1404.81	81.8	2388.79
1404.86	81.75	2327.88
1404.91	81.7	2275.49
1404.96	81.65	2241.17
1405.01	81.6	2173.11
1405.06	81.55	2155.91
1405.11	81.5	2091.48
1405.16	81.45	2078.6
1405.21	81.4	2080.79
1405.26	81.35	2037.75
1405.31	81.3	1999.47
1405.36	81.25	1980.3
1405.41	81.2	1959.17
1405.46	81.15	1933.03
1405.51	81.1	1896.13
1405.56	81.05	1862
1405.61	81	1864.77
1405.66	80.95	1840.6
1405.71	80.9	1812.75
1405.76	80.85	1803.6
1405.81	80.8	1793.16
1405.86	80.75	1777.47
1405.91	80.7	1755.71
1405.96	80.65	1726.8
1406.01	80.6	1715.88
1406.06	80.55	1703.16
1406.11	80.5	1695.3
1406.16	80.45	1667.16
1406.21	80.4	1660.92
1406.26	80.35	1658.88
1406.31	80.3	1652.73
1406.36	80.25	1653.1
1406.41	80.2	1642.41
1406.46	80.15	1626.74
1406.51	80.1	1607.93
1406.56	80.05	1610.82
1406.61	80	1600.1
1406.66	79.95	1595.55
1406.71	79.9	1575.18
1406.76	79.85	1577.27
1406.81	79.8	1589.29
1406.86	79.75	1569.6
1406.91	79.7	1551.86
1406.96	79.65	1542.08
1407.01	79.6	1558.99
1407.06	79.55	1536.23
1407.11	79.5	1526.22
1407.16	79.45	1527.67
1407.21	79.4	1517.35
1407.26	79.35	1515.62
1407.31	79.3	1501.3
1407.36	79.25	1505.02
1407.41	79.2	1515.02
1407.46	79.15	1500.75
1407.51	79.1	1513.43
1407.56	79.05	1517.46
1407.61	79	1479.58
1407.66	78.95	1492.42
1407.71	78.9	1502.23
1407.76	78.85	1491.41
1407.81	78.8	1486.81
1407.86	78.75	1483.89
1407.91	78.7	1477.19
1407.96	78.65	1510.36
1408.01	78.6	1499.39
1408.06	78.55	1476.46
1408.11	78.5	1480.18
1408.16	78.45	1470.29
1408.21	78.4	1467.51
1408.26	78.35	1469.94
1408.31	78.3	1471.54
1408.36	78.25	1470.79
1408.41	78.2	1459.86
1408.46	78.15	1446.88
1408.51	78.1	1473.29
1408.56	78.05	1458.64
1408.61	78	1464.28
1408.66	77.95	1465.92
1408.71	77.9	1477.24
1408.76	77.85	1452.2
1408.81	77.8	1462.34
1408.86	77.75	1460.01
1408.91	77.7	1440.95
1408.96	77.65	1471.25
1409.01	77.6	1473.66
1409.06	77.55	1438.25
1409.11	77.5	1448.91
1409.16	77.45	1454.79
1409.21	77.4	1438.58
1409.26	77.35	1452.41
1409.31	77.3	1452.64
1409.36	77.25	1439.74
1409.41	77.2	1452.37
1409.46	77.15	1459.05
1409.51	77.1	1438.66
1409.56	77.05	1450.05
1409.61	77	1453.1
1409.66	76.95	1460.96
1409.71	76.9	1459.95
1409.76	76.85	1443.35
1409.81	76.8	1446.99
1409.86	76.75	1465.93
1409.91	76.7	1458.19
1409.96	76.65	1459.82
1410.01	76.6	1476.19
1410.06	76.55	1471.72
1410.11	76.5	1513.74
1410.16	76.45	1477.74
1410.21	76.4	1498.92
1410.26	76.35	1494.81
1410.31	76.3	1481.91
1410.36	76.25	1502.47
1410.41	76.2	1495.95
1410.46	76.15	1517.88
1410.51	76.1	1497.06
1410.56	76.05	1496.14
1410.61	76	1513.87
1410.66	75.95	1525.34
1410.71	75.9	1534.29
1410.76	75.85	1507.57
1410.81	75.8	1537.05
1410.86	75.75	1548.86
1410.91	75.7	1537.55
1410.96	75.65	1533.29
1411.01	75.6	1546.14
1411.06	75.55	1549.27
1411.11	75.5	1527.39
1411.16	75.45	1549.46
1411.21	75.4	1528.99
1411.26	75.35	1568.61
1411.31	75.3	1549.07
1411.36	75.25	1572.13
1411.41	75.2	1572.23
1411.46	75.15	1586.79
1411.51	75.1	1588.57
1411.56	75.05	1593.73
1411.61	75	1584.29