C:\Users\Mark\ownCloud\Muelheim Group\Projects\Gas phase background\Au in He 800um nozzle\Experiment 2019-01-28_Au in He 800 um nozzle - Selection.vms
Au4f
	Characteristic Energy eV	1486.61	Acquisition Time s	0.4
KE_Au4f	BE_Au4f	CPS_Au4f
1356.66	129.95	1918.72
1356.71	129.9	1883.54
1356.76	129.85	1887.98
1356.81	129.8	1909.2
1356.86	129.75	1933.98
1356.91	129.7	1871.92
1356.96	129.65	1898.43
1357.01	129.6	1900.41
1357.06	129.55	1883.54
1357.11	129.5	1856.81
1357.16	129.45	1913.04
1357.21	129.4	1885.36
1357.26	129.35	1923.85
1357.31	129.3	1894.41
1357.36	129.25	1855.95
1357.41	129.2	1902.73
1357.46	129.15	1847.05
1357.51	129.1	1948.59
1357.56	129.05	1892.53
1357.61	129	1882.03
1357.66	128.95	1874.42
1357.71	128.9	1896.16
1357.76	128.85	1922.33
1357.81	128.8	1896.98
1357.86	128.75	1877.76
1357.91	128.7	1933.11
1357.96	128.65	1968.29
1358.01	128.6	1933.46
1358.06	128.55	1887.54
1358.11	128.5	1937.9
1358.16	128.45	1948.73
1358.21	128.4	1904.64
1358.26	128.35	1901.9
1358.31	128.3	1834.76
1358.36	128.25	1875.18
1358.41	128.2	1861.07
1358.46	128.15	1875.73
1358.51	128.1	1951.07
1358.56	128.05	1942.6
1358.61	128	1918.66
1358.66	127.95	1897.01
1358.71	127.9	1901.45
1358.76	127.85	1893.17
1358.81	127.8	1925.03
1358.86	127.75	1943.61
1358.91	127.7	1928.44
1358.96	127.65	1879.41
1359.01	127.6	1906.07
1359.06	127.55	1918
1359.11	127.5	1929.59
1359.16	127.45	1906.2
1359.21	127.4	1911.89
1359.26	127.35	1947.34
1359.31	127.3	1918.55
1359.36	127.25	1942.87
1359.41	127.2	1891.12
1359.46	127.15	1890.24
1359.51	127.1	1912.85
1359.56	127.05	1920.75
1359.61	127	1952.08
1359.66	126.95	1919.61
1359.71	126.9	1924.44
1359.76	126.85	1941.46
1359.81	126.8	1968.09
1359.86	126.75	1959.21
1359.91	126.7	1932.14
1359.96	126.65	1906.73
1360.01	126.6	1937.16
1360.06	126.55	1925.44
1360.11	126.5	1889.82
1360.16	126.45	1904.79
1360.21	126.4	1917.38
1360.26	126.35	1941.3
1360.31	126.3	1893.32
1360.36	126.25	1908.6
1360.41	126.2	1928.53
1360.46	126.15	1968.24
1360.51	126.1	1956.62
1360.56	126.05	1969.92
1360.61	126	1964.46
1360.66	125.95	1935.56
1360.71	125.9	1940.45
1360.76	125.85	1990.66
1360.81	125.8	1921.93
1360.86	125.75	1926.96
1360.91	125.7	1940.6
1360.96	125.65	1927.55
1361.01	125.6	1961.63
1361.06	125.55	1956.1
1361.11	125.5	1923.48
1361.16	125.45	2014.21
1361.21	125.4	1945.34
1361.26	125.35	1882.42
1361.31	125.3	1935.04
1361.36	125.25	1936.64
1361.41	125.2	1898.54
1361.46	125.15	1957.77
1361.51	125.1	1934.78
1361.56	125.05	1883.63
1361.61	125	1998.83
1361.66	124.95	1976.76
1361.71	124.9	2004.33
1361.76	124.85	1984.2
1361.81	124.8	1974.24
1361.86	124.75	1977.04
1361.91	124.7	1950.02
1361.96	124.65	2058.17
1362.01	124.6	2013.58
1362.06	124.55	1963.84
1362.11	124.5	1954.93
1362.16	124.45	1954.73
1362.21	124.4	1952.8
1362.26	124.35	2016.59
1362.31	124.3	1977.47
1362.36	124.25	1916.88
1362.41	124.2	2000.44
1362.46	124.15	2030.76
1362.51	124.1	1992.2
1362.56	124.05	1983.47
1362.61	124	2060.54
1362.66	123.95	1977.11
1362.71	123.9	2040.48
1362.76	123.85	2000.33
1362.81	123.8	1983.4
1362.86	123.75	1967.04
1362.91	123.7	1946.37
1362.96	123.65	1949.39
1363.01	123.6	1942.67
1363.06	123.55	2030.82
1363.11	123.5	1931.53
1363.16	123.45	2002.95
1363.21	123.4	1991.94
1363.26	123.35	1984.38
1363.31	123.3	2005.47
1363.36	123.25	1983
1363.41	123.2	1991.78
1363.46	123.15	2049.72
1363.51	123.1	1970.11
1363.56	123.05	1982.5
1363.61	123	2015.9
1363.66	122.95	2016.09
1363.71	122.9	2000.25
1363.76	122.85	1992.03
1363.81	122.8	1989.42
1363.86	122.75	1972.67
1363.91	122.7	2071.68
1363.96	122.65	2053.99
1364.01	122.6	2033.32
1364.06	122.55	2013.44
1364.11	122.5	1974.69
1364.16	122.45	1970.81
1364.21	122.4	1988.4
1364.26	122.35	1969.14
1364.31	122.3	1991.95
1364.36	122.25	2030.21
1364.41	122.2	1984.34
1364.46	122.15	2034.18
1364.51	122.1	1971.53
1364.56	122.05	2026.66
1364.61	122	2027.59
1364.66	121.95	2023.6
1364.71	121.9	2035.57
1364.76	121.85	2010.22
1364.81	121.8	2045.64
1364.86	121.75	2027.44
1364.91	121.7	2061.73
1364.96	121.65	2044.33
1365.01	121.6	2054.88
1365.06	121.55	2043.11
1365.11	121.5	1973.78
1365.16	121.45	1994.73
1365.21	121.4	2057.58
1365.26	121.35	2006.17
1365.31	121.3	2004.15
1365.36	121.25	2039.67
1365.41	121.2	2071.42
1365.46	121.15	2128.12
1365.51	121.1	2071.16
1365.56	121.05	2086.01
1365.61	121	2060.47
1365.66	120.95	2075.3
1365.71	120.9	2060.66
1365.76	120.85	2032.34
1365.81	120.8	2036.23
1365.86	120.75	2017.15
1365.91	120.7	2039.92
1365.96	120.65	2067.5
1366.01	120.6	2026.77
1366.06	120.55	2048.26
1366.11	120.5	2115.42
1366.16	120.45	2090.17
1366.21	120.4	2080.52
1366.26	120.35	2034.78
1366.31	120.3	2051.79
1366.36	120.25	2055.19
1366.41	120.2	2068.18
1366.46	120.15	2088.22
1366.51	120.1	2050.57
1366.56	120.05	2011.55
1366.61	120	2076.67
1366.66	119.95	2029.78
1366.71	119.9	2047.97
1366.76	119.85	2055.94
1366.81	119.8	2040.32
1366.86	119.75	2029.72
1366.91	119.7	2022.23
1366.96	119.65	2021.79
1367.01	119.6	2059.63
1367.06	119.55	2049.31
1367.11	119.5	2037.82
1367.16	119.45	2087.84
1367.21	119.4	2023.98
1367.26	119.35	2017.27
1367.31	119.3	2047.54
1367.36	119.25	2088.04
1367.41	119.2	2026.94
1367.46	119.15	2088.83
1367.51	119.1	2086.16
1367.56	119.05	2046.95
1367.61	119	2095.04
1367.66	118.95	2083.19
1367.71	118.9	2038.54
1367.76	118.85	2081.82
1367.81	118.8	2102.21
1367.86	118.75	2079.22
1367.91	118.7	2047.34
1367.96	118.65	2107.11
1368.01	118.6	2067.87
1368.06	118.55	2066.78
1368.11	118.5	2122.85
1368.16	118.45	2090.64
1368.21	118.4	2027.78
1368.26	118.35	2034.02
1368.31	118.3	1973.78
1368.36	118.25	2073.61
1368.41	118.2	2092.43
1368.46	118.15	2102.3
1368.51	118.1	2065.01
1368.56	118.05	2024.83
1368.61	118	2140.95
1368.66	117.95	2134.13
1368.71	117.9	2039.62
1368.76	117.85	2045.47
1368.81	117.8	2070.44
1368.86	117.75	2159.41
1368.91	117.7	2099.68
1368.96	117.65	2146.66
1369.01	117.6	2104.99
1369.06	117.55	2083.07
1369.11	117.5	2149.92
1369.16	117.45	2055.72
1369.21	117.4	2065.36
1369.26	117.35	2136.63
1369.31	117.3	2089.88
1369.36	117.25	2091.71
1369.41	117.2	2042.05
1369.46	117.15	2070.29
1369.51	117.1	2103.45
1369.56	117.05	2102.41
1369.61	117	2039.68
1369.66	116.95	2122.15
1369.71	116.9	2037.06
1369.76	116.85	2114.09
1369.81	116.8	2079.93
1369.86	116.75	2038.89
1369.91	116.7	2093.9
1369.96	116.65	2024.73
1370.01	116.6	2067.11
1370.06	116.55	2067.63
1370.11	116.5	2024.73
1370.16	116.45	2064.86
1370.21	116.4	2146.56
1370.26	116.35	2090.92
1370.31	116.3	2088.51
1370.36	116.25	2155.34
1370.41	116.2	2107.92
1370.46	116.15	2117.71
1370.51	116.1	2136.91
1370.56	116.05	2129.63
1370.61	116	2124.92
1370.66	115.95	2095.22
1370.71	115.9	2160.26
1370.76	115.85	2157.34
1370.81	115.8	2130.09
1370.86	115.75	2130.1
1370.91	115.7	2121.17
1370.96	115.65	2071.09
1371.01	115.6	2109.39
1371.06	115.55	2109.58
1371.11	115.5	2118.65
1371.16	115.45	2079.39
1371.21	115.4	2057.29
1371.26	115.35	2118.17
1371.31	115.3	2085.66
1371.36	115.25	2045
1371.41	115.2	2113.27
1371.46	115.15	2131.03
1371.51	115.1	2084.12
1371.56	115.05	2136.84
1371.61	115	2088.85
1371.66	114.95	2039.59
1371.71	114.9	2065.46
1371.76	114.85	2119.06
1371.81	114.8	2095.24
1371.86	114.75	2126.22
1371.91	114.7	2099.56
1371.96	114.65	2093.92
1372.01	114.6	2169.07
1372.06	114.55	2093.45
1372.11	114.5	2106.16
1372.16	114.45	2136.53
1372.21	114.4	2153.08
1372.26	114.35	2148.03
1372.31	114.3	2131.06
1372.36	114.25	2153.62
1372.41	114.2	2105.2
1372.46	114.15	2145.77
1372.51	114.1	2124.19
1372.56	114.05	2177.06
1372.61	114	2126.56
1372.66	113.95	2191.76
1372.71	113.9	2165.12
1372.76	113.85	2173.71
1372.81	113.8	2185.91
1372.86	113.75	2144.66
1372.91	113.7	2136.55
1372.96	113.65	2105.32
1373.01	113.6	2139.45
1373.06	113.55	2144.85
1373.11	113.5	2138.26
1373.16	113.45	2166.14
1373.21	113.4	2131.84
1373.26	113.35	2159.72
1373.31	113.3	2121.14
1373.36	113.25	2184.73
1373.41	113.2	2145.09
1373.46	113.15	2147.46
1373.51	113.1	2132.28
1373.56	113.05	2157.45
1373.61	113	2149.95
1373.66	112.95	2189.3
1373.71	112.9	2126.09
1373.76	112.85	2196.88
1373.81	112.8	2107.61
1373.86	112.75	2142.82
1373.91	112.7	2168.61
1373.96	112.65	2180.76
1374.01	112.6	2161.29
1374.06	112.55	2170.89
1374.11	112.5	2165.71
1374.16	112.45	2168.54
1374.21	112.4	2152.27
1374.26	112.35	2120.65
1374.31	112.3	2121.7
1374.36	112.25	2142.72
1374.41	112.2	2138.31
1374.46	112.15	2116.48
1374.51	112.1	2146.62
1374.56	112.05	2240.79
1374.61	112	2215.68
1374.66	111.95	2115.34
1374.71	111.9	2135.31
1374.76	111.85	2170.25
1374.81	111.8	2140.01
1374.86	111.75	2154.97
1374.91	111.7	2167.55
1374.96	111.65	2173.84
1375.01	111.6	2197.4
1375.06	111.55	2185.24
1375.11	111.5	2201.11
1375.16	111.45	2142.73
1375.21	111.4	2191.63
1375.26	111.35	2162.13
1375.31	111.3	2234.93
1375.36	111.25	2197.48
1375.41	111.2	2195.79
1375.46	111.15	2142.84
1375.51	111.1	2151.67
1375.56	111.05	2187.2
1375.61	111	2147.97
1375.66	110.95	2233.63
1375.71	110.9	2163.55
1375.76	110.85	2187.65
1375.81	110.8	2170.23
1375.86	110.75	2169.79
1375.91	110.7	2195.37
1375.96	110.65	2243.8
1376.01	110.6	2153.85
1376.06	110.55	2165.02
1376.11	110.5	2182.52
1376.16	110.45	2171.4
1376.21	110.4	2147.07
1376.26	110.35	2183.51
1376.31	110.3	2204.2
1376.36	110.25	2201.56
1376.41	110.2	2171.76
1376.46	110.15	2172.92
1376.51	110.1	2183.91
1376.56	110.05	2161.33
1376.61	110	2132.69
1376.66	109.95	2192.6
1376.71	109.9	2181.31
1376.76	109.85	2137.62
1376.81	109.8	2175.82
1376.86	109.75	2157.85
1376.91	109.7	2216.28
1376.96	109.65	2139.19
1377.01	109.6	2173.99
1377.06	109.55	2244.08
1377.11	109.5	2193.77
1377.16	109.45	2104.04
1377.21	109.4	2114.22
1377.26	109.35	2117.53
1377.31	109.3	2176.5
1377.36	109.25	2248.06
1377.41	109.2	2168.1
1377.46	109.15	2134.13
1377.51	109.1	2118.85
1377.56	109.05	2164.63
1377.61	109	2180.52
1377.66	108.95	2083.15
1377.71	108.9	2116.16
1377.76	108.85	2152.3
1377.81	108.8	2193.95
1377.86	108.75	2129.14
1377.91	108.7	2105.61
1377.96	108.65	2075.42
1378.01	108.6	2171.2
1378.06	108.55	2117.32
1378.11	108.5	2144.6
1378.16	108.45	2097.18
1378.21	108.4	2153.42
1378.26	108.35	2143.74
1378.31	108.3	2182.65
1378.36	108.25	2132.44
1378.41	108.2	2132.2
1378.46	108.15	2149.95
1378.51	108.1	2108.15
1378.56	108.05	2069.98
1378.61	108	2083.25
1378.66	107.95	2174.25
1378.71	107.9	2095.42
1378.76	107.85	2088.55
1378.81	107.8	2075.95
1378.86	107.75	2081.56
1378.91	107.7	2088.52
1378.96	107.65	2199.86
1379.01	107.6	2132.84
1379.06	107.55	2149.75
1379.11	107.5	2072.1
1379.16	107.45	2137.33
1379.21	107.4	2162.99
1379.26	107.35	2108.21
1379.31	107.3	2079.27
1379.36	107.25	2074.65
1379.41	107.2	2036.67
1379.46	107.15	2043.35
1379.51	107.1	2141.26
1379.56	107.05	2142.39
1379.61	107	2056.49
1379.66	106.95	2091.68
1379.71	106.9	2086.28
1379.76	106.85	2087.62
1379.81	106.8	2022.68
1379.86	106.75	2066.37
1379.91	106.7	2101
1379.96	106.65	2110.45
1380.01	106.6	2072.66
1380.06	106.55	2106.7
1380.11	106.5	2128.74
1380.16	106.45	2105.24
1380.21	106.4	2040.85
1380.26	106.35	1998.97
1380.31	106.3	2031.02
1380.36	106.25	2012.9
1380.41	106.2	2093.57
1380.46	106.15	2057.49
1380.51	106.1	2078.4
1380.56	106.05	2063.05
1380.61	106	2083.78
1380.66	105.95	2073.37
1380.71	105.9	2056.48
1380.76	105.85	2027.15
1380.81	105.8	1972.36
1380.86	105.75	2092.08
1380.91	105.7	2028.52
1380.96	105.65	2027.01
1381.01	105.6	2063.92
1381.06	105.55	1984.79
1381.11	105.5	2012.92
1381.16	105.45	2029.72
1381.21	105.4	1981.12
1381.26	105.35	1965.82
1381.31	105.3	2048.5
1381.36	105.25	2115.65
1381.41	105.2	2075.59
1381.46	105.15	2052.44
1381.51	105.1	2084.08
1381.56	105.05	2036.88
1381.61	105	1997.97
1381.66	104.95	2032.94
1381.71	104.9	2028.05
1381.76	104.85	2018.02
1381.81	104.8	1990.57
1381.86	104.75	1955.85
1381.91	104.7	1986.2
1381.96	104.65	2013.89
1382.01	104.6	2018.76
1382.06	104.55	2005.02
1382.11	104.5	1970.2
1382.16	104.45	2039.39
1382.21	104.4	2046.14
1382.26	104.35	2006.21
1382.31	104.3	2006.11
1382.36	104.25	2029.38
1382.41	104.2	2026.9
1382.46	104.15	2045.24
1382.51	104.1	2076.59
1382.56	104.05	2094.68
1382.61	104	2059.68
1382.66	103.95	2079.38
1382.71	103.9	2085.1
1382.76	103.85	2041.92
1382.81	103.8	1987.74
1382.86	103.75	2012.77
1382.91	103.7	1999.13
1382.96	103.65	2015.13
1383.01	103.6	2005.8
1383.06	103.55	2068.75
1383.11	103.5	2092.35
1383.16	103.45	2029.61
1383.21	103.4	2018.03
1383.26	103.35	2016.09
1383.31	103.3	2055.25
1383.36	103.25	1984.48
1383.41	103.2	2036.92
1383.46	103.15	1976.58
1383.51	103.1	1969.85
1383.56	103.05	1973.14
1383.61	103	2004.44
1383.66	102.95	1985.19
1383.71	102.9	2011.67
1383.76	102.85	2032.25
1383.81	102.8	2006.76
1383.86	102.75	2012.49
1383.91	102.7	2038.29
1383.96	102.65	2007.04
1384.01	102.6	2003.16
1384.06	102.55	2029.29
1384.11	102.5	2002.19
1384.16	102.45	1988.26
1384.21	102.4	2029.67
1384.26	102.35	2006.48
1384.31	102.3	1999.1
1384.36	102.25	2004.2
1384.41	102.2	2050.58
1384.46	102.15	2048.94
1384.51	102.1	2065.7
1384.56	102.05	2013.52
1384.61	102	2045.53
1384.66	101.95	2070.75
1384.71	101.9	2061.88
1384.76	101.85	1992.92
1384.81	101.8	2002.55
1384.86	101.75	2031.51
1384.91	101.7	2063.84
1384.96	101.65	1993.61
1385.01	101.6	2023.67
1385.06	101.55	2041.14
1385.11	101.5	1997.94
1385.16	101.45	2028.87
1385.21	101.4	2042.43
1385.26	101.35	1995.36
1385.31	101.3	2039.18
1385.36	101.25	1988.7
1385.41	101.2	2036.69
1385.46	101.15	2031.6
1385.51	101.1	2021.62
1385.56	101.05	2045.61
1385.61	101	2077.52
1385.66	100.95	2003.12
1385.71	100.9	2012.18
1385.76	100.85	2051.06
1385.81	100.8	2072.96
1385.86	100.75	1986.92
1385.91	100.7	2002.38
1385.96	100.65	1949.88
1386.01	100.6	2018.1
1386.06	100.55	2055.8
1386.11	100.5	1986.71
1386.16	100.45	2073.17
1386.21	100.4	2017.63
1386.26	100.35	2079.2
1386.31	100.3	2059.14
1386.36	100.25	2015.33
1386.41	100.2	2074.5
1386.46	100.15	2086.73
1386.51	100.1	2064.03
1386.56	100.05	2028.14
1386.61	100	2065.92
1386.66	99.95	2018.57
1386.71	99.9	2039.74
1386.76	99.85	1978.73
1386.81	99.8	1999.94
1386.86	99.75	2032.04
1386.91	99.7	2040.78
1386.96	99.65	2021.51
1387.01	99.6	2060.57
1387.06	99.55	2030.74
1387.11	99.5	2084.52
1387.16	99.45	2077.27
1387.21	99.4	2054.47
1387.26	99.35	2056.95
1387.31	99.3	1962.67
1387.36	99.25	2022.42
1387.41	99.2	2015.67
1387.46	99.15	1983.26
1387.51	99.1	2014.32
1387.56	99.05	2005.07
1387.61	99	2004.29
1387.66	98.95	2103.53
1387.71	98.9	2000.58
1387.76	98.85	2036.42
1387.81	98.8	2020.5
1387.86	98.75	2031.59
1387.91	98.7	2019.7
1387.96	98.65	2029.89
1388.01	98.6	2055.49
1388.06	98.55	2029.96
1388.11	98.5	2059.05
1388.16	98.45	1985.48
1388.21	98.4	2055.56
1388.26	98.35	2112.32
1388.31	98.3	2062.97
1388.36	98.25	2027.7
1388.41	98.2	2015.88
1388.46	98.15	1979.61
1388.51	98.1	1976.45
1388.56	98.05	1984.8
1388.61	98	2017.67
1388.66	97.95	1988.29
1388.71	97.9	2017.73
1388.76	97.85	1960.84
1388.81	97.8	2013.33
1388.86	97.75	2047.92
1388.91	97.7	2000.11
1388.96	97.65	1974.71
1389.01	97.6	2001.44
1389.06	97.55	1959.45
1389.11	97.5	2008.66
1389.16	97.45	2010.38
1389.21	97.4	2014.84
1389.26	97.35	1936.13
1389.31	97.3	1950.82
1389.36	97.25	1985.54
1389.41	97.2	1975.41
1389.46	97.15	1921.4
1389.51	97.1	1909.02
1389.56	97.05	1928.36
1389.61	97	1969.73
1389.66	96.95	1972.82
1389.71	96.9	1903.2
1389.76	96.85	1902.82
1389.81	96.8	1907.5
1389.86	96.75	1925.44
1389.91	96.7	1866.71
1389.96	96.65	1924.91
1390.01	96.6	1936.66
1390.06	96.55	1965.89
1390.11	96.5	1899.57
1390.16	96.45	1922.4
1390.21	96.4	1888.88
1390.26	96.35	1832.48
1390.31	96.3	1858.4
1390.36	96.25	1907.73
1390.41	96.2	1877.6
1390.46	96.15	1897.08
1390.51	96.1	1881.81
1390.56	96.05	1906.92
1390.61	96	1887.33
1390.66	95.95	1924.74
1390.71	95.9	1899.77
1390.76	95.85	1933.51
1390.81	95.8	1886.99
1390.86	95.75	1882.53
1390.91	95.7	1867.92
1390.96	95.65	1834.15
1391.01	95.6	1856.75
1391.06	95.55	1883.6
1391.11	95.5	1827.44
1391.16	95.45	1906
1391.21	95.4	1902.15
1391.26	95.35	1870.86
1391.31	95.3	1881.78
1391.36	95.25	1814.41
1391.41	95.2	1867.67
1391.46	95.15	1867.36
1391.51	95.1	1883.18
1391.56	95.05	1920.09
1391.61	95	1933.96
1391.66	94.95	1885.56
1391.71	94.9	1871.71
1391.76	94.85	1867.78
1391.81	94.8	1921.63
1391.86	94.75	1930.03
1391.91	94.7	1887.74
1391.96	94.65	1888.82
1392.01	94.6	1921.37
1392.06	94.55	1892.68
1392.11	94.5	1884.04
1392.16	94.45	1933.37
1392.21	94.4	1888.68
1392.26	94.35	1883.5
1392.31	94.3	1905.29
1392.36	94.25	1892.26
1392.41	94.2	1877.73
1392.46	94.15	1827.01
1392.51	94.1	1908.87
1392.56	94.05	1914.49
1392.61	94	1883.87
1392.66	93.95	1885.61
1392.71	93.9	1886.1
1392.76	93.85	1905.88
1392.81	93.8	1872.53
1392.86	93.75	1875.33
1392.91	93.7	1897.67
1392.96	93.65	1919.49
1393.01	93.6	1850.21
1393.06	93.55	1891.37
1393.11	93.5	1930.33
1393.16	93.45	1861.48
1393.21	93.4	1816.55
1393.26	93.35	1868.11
1393.31	93.3	1885.08
1393.36	93.25	1865.78
1393.41	93.2	1877.49
1393.46	93.15	1881.03
1393.51	93.1	1873.37
1393.56	93.05	1870.81
1393.61	93	1836.67
1393.66	92.95	1803.64
1393.71	92.9	1840.3
1393.76	92.85	1804.07
1393.81	92.8	1795.25
1393.86	92.75	1854.1
1393.91	92.7	1790.54
1393.96	92.65	1812.99
1394.01	92.6	1840.61
1394.06	92.55	1807.52
1394.11	92.5	1817.14
1394.16	92.45	1790.57
1394.21	92.4	1805.91
1394.26	92.35	1895.31
1394.31	92.3	1842.04
1394.36	92.25	1823.72
1394.41	92.2	1844.27
1394.46	92.15	1879.75
1394.51	92.1	1843.74
1394.56	92.05	1870.21
1394.61	92	1884.34
1394.66	91.95	1839.38
1394.71	91.9	1874.71
1394.76	91.85	1904.98
1394.81	91.8	1911.38
1394.86	91.75	1879.62
1394.91	91.7	1879.83
1394.96	91.65	1880.71
1395.01	91.6	1911.35
1395.06	91.55	1873.91
1395.11	91.5	1843.81
1395.16	91.45	1871.03
1395.21	91.4	1913.1
1395.26	91.35	1925.55
1395.31	91.3	1972.15
1395.36	91.25	1986.53
1395.41	91.2	1996.89
1395.46	91.15	1977.17
1395.51	91.1	1977.91
1395.56	91.05	2034.56
1395.61	91	2059.18
1395.66	90.95	2049.73
1395.71	90.9	1995.31
1395.76	90.85	2039.11
1395.81	90.8	2080.78
1395.86	90.75	1999.81
1395.91	90.7	2108.63
1395.96	90.65	2087.42
1396.01	90.6	2091.76
1396.06	90.55	2146.55
1396.11	90.5	2183.16
1396.16	90.45	2144.8
1396.21	90.4	2153.3
1396.26	90.35	2165.69
1396.31	90.3	2202.97
1396.36	90.25	2156.13
1396.41	90.2	2140.95
1396.46	90.15	2162.61
1396.51	90.1	2088.56
1396.56	90.05	2107.47
1396.61	90	2150.97
1396.66	89.95	2247.84
1396.71	89.9	2143.52
1396.76	89.85	2161.38
1396.81	89.8	2233.63
1396.86	89.75	2310.66
1396.91	89.7	2265.09
1396.96	89.65	2267.67
1397.01	89.6	2320.1
1397.06	89.55	2387.2
1397.11	89.5	2372.26
1397.16	89.45	2426.46
1397.21	89.4	2413.55
1397.26	89.35	2471.81
1397.31	89.3	2569.08
1397.36	89.25	2594.08
1397.41	89.2	2703.21
1397.46	89.15	2806.09
1397.51	89.1	2834.46
1397.56	89.05	2921.95
1397.61	89	3064.05
1397.66	88.95	3244.96
1397.71	88.9	3339.28
1397.76	88.85	3543.65
1397.81	88.8	3775.74
1397.86	88.75	3916.31
1397.91	88.7	4236.74
1397.96	88.65	4609.92
1398.01	88.6	4954.09
1398.06	88.55	5433.59
1398.11	88.5	6063.09
1398.16	88.45	6651.36
1398.21	88.4	7323.63
1398.26	88.35	8151.29
1398.31	88.3	8994.74
1398.36	88.25	10100.4
1398.41	88.2	11258.5
1398.46	88.15	12574.9
1398.51	88.1	13884.7
1398.56	88.05	15063
1398.61	88	16612
1398.66	87.95	18503.7
1398.71	87.9	19885.8
1398.76	87.85	20894.4
1398.81	87.8	21485.3
1398.86	87.75	21844.1
1398.91	87.7	21747.1
1398.96	87.65	21177.6
1399.01	87.6	19910.4
1399.06	87.55	18595.8
1399.11	87.5	16783.2
1399.16	87.45	14910.1
1399.21	87.4	12846.7
1399.26	87.35	11063.1
1399.31	87.3	9534.43
1399.36	87.25	8309.66
1399.41	87.2	7002.02
1399.46	87.15	6177.16
1399.51	87.1	5433.07
1399.56	87.05	4818.81
1399.61	87	4304.95
1399.66	86.95	3955.23
1399.71	86.9	3630.9
1399.76	86.85	3384.02
1399.81	86.8	3091.08
1399.86	86.75	2912
1399.91	86.7	2794.28
1399.96	86.65	2634.69
1400.01	86.6	2492.28
1400.06	86.55	2488.7
1400.11	86.5	2425.55
1400.16	86.45	2279.5
1400.21	86.4	2264.84
1400.26	86.35	2260.6
1400.31	86.3	2235.27
1400.36	86.25	2187.19
1400.41	86.2	2133.62
1400.46	86.15	2102.68
1400.51	86.1	2078.88
1400.56	86.05	2094.27
1400.61	86	2033.9
1400.66	85.95	2081.26
1400.71	85.9	2144.98
1400.76	85.85	2096.5
1400.81	85.8	2116.69
1400.86	85.75	2197.03
1400.91	85.7	2231.09
1400.96	85.65	2321.65
1401.01	85.6	2412.63
1401.06	85.55	2408.83
1401.11	85.5	2428.24
1401.16	85.45	2539.38
1401.21	85.4	2732.07
1401.26	85.35	2811.88
1401.31	85.3	2941.39
1401.36	85.25	3098.41
1401.41	85.2	3352.25
1401.46	85.15	3601.15
1401.51	85.1	3805.48
1401.56	85.05	4105.36
1401.61	85	4576.49
1401.66	84.95	5076.78
1401.71	84.9	5528.21
1401.76	84.85	6276.7
1401.81	84.8	6808.86
1401.86	84.75	7624.15
1401.91	84.7	8612.39
1401.96	84.65	9744.9
1402.01	84.6	11048
1402.06	84.55	12534.4
1402.11	84.5	13855
1402.16	84.45	15554.5
1402.21	84.4	17455.9
1402.26	84.35	19647.1
1402.31	84.3	21431.2
1402.36	84.25	23161.6
1402.41	84.2	24944.1
1402.46	84.15	26142.1
1402.51	84.1	26963.7
1402.56	84.05	27177.2
1402.61	84	26786.1
1402.66	83.95	25616.3
1402.71	83.9	23932
1402.76	83.85	21597.3
1402.81	83.8	18887.6
1402.86	83.75	16341.6
1402.91	83.7	13912
1402.96	83.65	12002.5
1403.01	83.6	10143.9
1403.06	83.55	8276.64
1403.11	83.5	6968.52
1403.16	83.45	5765.22
1403.21	83.4	4912.12
1403.26	83.35	4147.74
1403.31	83.3	3570.91
1403.36	83.25	3178.81
1403.41	83.2	2796.79
1403.46	83.15	2472.16
1403.51	83.1	2239.89
1403.56	83.05	1997.47
1403.61	83	1881.81
1403.66	82.95	1721.18
1403.71	82.9	1588.43
1403.76	82.85	1436.39
1403.81	82.8	1385.99
1403.86	82.75	1321.5
1403.91	82.7	1211.81
1403.96	82.65	1156.94
1404.01	82.6	1114.12
1404.06	82.55	1081.96
1404.11	82.5	1024.62
1404.16	82.45	990.287
1404.21	82.4	967.3
1404.26	82.35	944.139
1404.31	82.3	862.602
1404.36	82.25	830.206
1404.41	82.2	836.793
1404.46	82.15	812.989
1404.51	82.1	795.963
1404.56	82.05	745.278
1404.61	82	728.127
1404.66	81.95	711.874
1404.71	81.9	690.598
1404.76	81.85	707.091
1404.81	81.8	726.068
1404.86	81.75	689.389
1404.91	81.7	678.656
1404.96	81.65	736.58
1405.01	81.6	637.354
1405.06	81.55	629.697
1405.11	81.5	618.592
1405.16	81.45	594.617
1405.21	81.4	584.458
1405.26	81.35	568.253
1405.31	81.3	595.326
1405.36	81.25	594.8
1405.41	81.2	559.974
1405.46	81.15	557.421
1405.51	81.1	568.529
1405.56	81.05	608.345
1405.61	81	608.501
1405.66	80.95	519.959
1405.71	80.9	547.367
1405.76	80.85	529.289
1405.81	80.8	547.523
1405.86	80.75	546.813
1405.91	80.7	551.437
1405.96	80.65	535.986
1406.01	80.6	545.615
1406.06	80.55	515.953
1406.11	80.5	501.738
1406.16	80.45	509.84
1406.21	80.4	477.62
1406.26	80.35	503.4
1406.31	80.3	516.85
1406.36	80.25	534.206
1406.41	80.2	482.735
1406.46	80.15	498.415
1406.51	80.1	479.198
1406.56	80.05	465.252
1406.61	80	475.429
1406.66	79.95	483.076
1406.71	79.9	493.155
1406.76	79.85	477.087
1406.81	79.8	477.536
1406.86	79.75	473.743
1406.91	79.7	493.133
1406.96	79.65	515.653
1407.01	79.6	481.031
1407.06	79.55	449.581
1407.11	79.5	481.723
1407.16	79.45	448.677
1407.21	79.4	479.691
1407.26	79.35	463.968
1407.31	79.3	458.657
1407.36	79.25	439.421
1407.41	79.2	433.142
1407.46	79.15	442.042
1407.51	79.1	451.641
1407.56	79.05	456.728
1407.61	79	486.03
1407.66	78.95	456.242
1407.71	78.9	443.875
1407.76	78.85	442.5
1407.81	78.8	452.882
1407.86	78.75	467.997
1407.91	78.7	445.499
1407.96	78.65	451.186
1408.01	78.6	446.616
1408.06	78.55	447.666
1408.11	78.5	453.815
1408.16	78.45	451.887
1408.21	78.4	442.844
1408.26	78.35	452.294
1408.31	78.3	428.78
1408.36	78.25	429.12
1408.41	78.2	438.672
1408.46	78.15	447.855
1408.51	78.1	459.111
1408.56	78.05	426.037
1408.61	78	447.47
1408.66	77.95	438.387
1408.71	77.9	433.504
1408.76	77.85	461.649
1408.81	77.8	450.798
1408.86	77.75	424.363
1408.91	77.7	450.235
1408.96	77.65	455.692
1409.01	77.6	455.834
1409.06	77.55	434.242
1409.11	77.5	454.451
1409.16	77.45	436.219
1409.21	77.4	429.082
1409.26	77.35	438.621
1409.31	77.3	421.262
1409.36	77.25	437.858
1409.41	77.2	444.495
1409.46	77.15	458.111
1409.51	77.1	433.63
1409.56	77.05	455.638
1409.61	77	429.908
1409.66	76.95	452.638
1409.71	76.9	426.594
1409.76	76.85	435.033
1409.81	76.8	454.852
1409.86	76.75	444.881
1409.91	76.7	445.852
1409.96	76.65	465.601
1410.01	76.6	466.481
1410.06	76.55	462.726
1410.11	76.5	455.419
1410.16	76.45	468.206
1410.21	76.4	470.396
1410.26	76.35	472.007
1410.31	76.3	465.271
1410.36	76.25	441.665
1410.41	76.2	457.848
1410.46	76.15	480.047
1410.51	76.1	464.991
1410.56	76.05	487.259
1410.61	76	505.677
1410.66	75.95	496.842
1410.71	75.9	459.941
1410.76	75.85	438.799
1410.81	75.8	477.504
1410.86	75.75	491.574
1410.91	75.7	502.942
1410.96	75.65	494.027
1411.01	75.6	490.117
1411.06	75.55	462.51
1411.11	75.5	480.412
1411.16	75.45	497.436
1411.21	75.4	501.573
1411.26	75.35	481.625
1411.31	75.3	481.454
1411.36	75.25	503.545
1411.41	75.2	512.899
1411.46	75.15	498.939
1411.51	75.1	492.491
1411.56	75.05	504.393
1411.61	75	513.652