CasaXP2
Au4f
	Characteristic Energy eV	1486.61	Acquisition Time s	0.3
KE_Au4f	BE_Au4f	CPS_Au4f
1311.61	175	10663.3
1311.71	174.9	10614.3
1311.81	174.8	10618.4
1311.91	174.7	10581.8
1312.01	174.6	10560.9
1312.11	174.5	10493.5
1312.21	174.4	10570.6
1312.31	174.3	10687.2
1312.41	174.2	10617.4
1312.51	174.1	10600
1312.61	174	10587.6
1312.71	173.9	10558
1312.81	173.8	10551.5
1312.91	173.7	10547.3
1313.01	173.6	10645.4
1313.11	173.5	10668.4
1313.21	173.4	10642.6
1313.31	173.3	10614.4
1313.41	173.2	10625.6
1313.51	173.1	10655.1
1313.61	173	10683.8
1313.71	172.9	10668.4
1313.81	172.8	10692.6
1313.91	172.7	10706.8
1314.01	172.6	10729.2
1314.11	172.5	10714.7
1314.21	172.4	10725
1314.31	172.3	10753.9
1314.41	172.2	10662.5
1314.51	172.1	10540.6
1314.61	172	10659.8
1314.71	171.9	10764.7
1314.81	171.8	10729.7
1314.91	171.7	10743.1
1315.01	171.6	10745.1
1315.11	171.5	10739.4
1315.21	171.4	10657.6
1315.31	171.3	10584.7
1315.41	171.2	10627.5
1315.51	171.1	10786.3
1315.61	171	10708.9
1315.71	170.9	10650.8
1315.81	170.8	10711.6
1315.91	170.7	10789.8
1316.01	170.6	10707.7
1316.11	170.5	10711.9
1316.21	170.4	10761.4
1316.31	170.3	10699.9
1316.41	170.2	10685.8
1316.51	170.1	10725.7
1316.61	170	10804.5
1316.71	169.9	10794.8
1316.81	169.8	10845
1316.91	169.7	10791.7
1317.01	169.6	10722.4
1317.11	169.5	10790.2
1317.21	169.4	10787.3
1317.31	169.3	10749.2
1317.41	169.2	10738.5
1317.51	169.1	10769.7
1317.61	169	10856.8
1317.71	168.9	10806.2
1317.81	168.8	10787.9
1317.91	168.7	10763.7
1318.01	168.6	10763.1
1318.11	168.5	10871.9
1318.21	168.4	10701.3
1318.31	168.3	10730.3
1318.41	168.2	10824
1318.51	168.1	10879.8
1318.61	168	10851.5
1318.71	167.9	10944.3
1318.81	167.8	10768.8
1318.91	167.7	10759
1319.01	167.6	10821.8
1319.11	167.5	10781.9
1319.21	167.4	10722.2
1319.31	167.3	10767.7
1319.41	167.2	10768.4
1319.51	167.1	10834
1319.61	167	10808.5
1319.71	166.9	10839.4
1319.81	166.8	10905.6
1319.91	166.7	10774
1320.01	166.6	10762.7
1320.11	166.5	10836.4
1320.21	166.4	10955.4
1320.31	166.3	10955.7
1320.41	166.2	10756.2
1320.51	166.1	10848.2
1320.61	166	10905.1
1320.71	165.9	10866.5
1320.81	165.8	10861.6
1320.91	165.7	10952
1321.01	165.6	10945.8
1321.11	165.5	10932.5
1321.21	165.4	10893.2
1321.31	165.3	10959
1321.41	165.2	10968.5
1321.51	165.1	10901.4
1321.61	165	10833
1321.71	164.9	10934.3
1321.81	164.8	10951
1321.91	164.7	10904.7
1322.01	164.6	10939.6
1322.11	164.5	11004.9
1322.21	164.4	11116.6
1322.31	164.3	10991.1
1322.41	164.2	11048.1
1322.51	164.1	11001.1
1322.61	164	11070.7
1322.71	163.9	10970.7
1322.81	163.8	11002
1322.91	163.7	10934
1323.01	163.6	10940
1323.11	163.5	10980.3
1323.21	163.4	11047.6
1323.31	163.3	11015.6
1323.41	163.2	11008.6
1323.51	163.1	10982.5
1323.61	163	10911.4
1323.71	162.9	10974
1323.81	162.8	11023.4
1323.91	162.7	11098
1324.01	162.6	10946.8
1324.11	162.5	10997.4
1324.21	162.4	11003.8
1324.31	162.3	11099.3
1324.41	162.2	11032.6
1324.51	162.1	11033.5
1324.61	162	11004.8
1324.71	161.9	11061.1
1324.81	161.8	11094.7
1324.91	161.7	11086.1
1325.01	161.6	11024.5
1325.11	161.5	11085.9
1325.21	161.4	11090.1
1325.31	161.3	11101.1
1325.41	161.2	11166.9
1325.51	161.1	11112.6
1325.61	161	11131.2
1325.71	160.9	11109
1325.81	160.8	11145.9
1325.91	160.7	11211.4
1326.01	160.6	11167.3
1326.11	160.5	11118.1
1326.21	160.4	11198.3
1326.31	160.3	11251.1
1326.41	160.2	11029.3
1326.51	160.1	11027.5
1326.61	160	11106.4
1326.71	159.9	11154.1
1326.81	159.8	11257.4
1326.91	159.7	11248.1
1327.01	159.6	11215.9
1327.11	159.5	11211.5
1327.21	159.4	11093.3
1327.31	159.3	11038.1
1327.41	159.2	11184.5
1327.51	159.1	11201.8
1327.61	159	11106.8
1327.71	158.9	11251.3
1327.81	158.8	11241.5
1327.91	158.7	11261.2
1328.01	158.6	11310.8
1328.11	158.5	11189.7
1328.21	158.4	11136.9
1328.31	158.3	11208.7
1328.41	158.2	11314
1328.51	158.1	11237.2
1328.61	158	11277.5
1328.71	157.9	11278.3
1328.81	157.8	11178
1328.91	157.7	11206
1329.01	157.6	11185.7
1329.11	157.5	11267.6
1329.21	157.4	11187
1329.31	157.3	11058.1
1329.41	157.2	11237.9
1329.51	157.1	11338.3
1329.61	157	11262.5
1329.71	156.9	11402.3
1329.81	156.8	11392.9
1329.91	156.7	11290
1330.01	156.6	11375.5
1330.11	156.5	11363.9
1330.21	156.4	11339.1
1330.31	156.3	11319.3
1330.41	156.2	11267.7
1330.51	156.1	11251.1
1330.61	156	11265.6
1330.71	155.9	11316.2
1330.81	155.8	11358.5
1330.91	155.7	11344.2
1331.01	155.6	11311.1
1331.11	155.5	11325.8
1331.21	155.4	11423.3
1331.31	155.3	11432.8
1331.41	155.2	11413.4
1331.51	155.1	11471.9
1331.61	155	11519.8
1331.71	154.9	11440.1
1331.81	154.8	11368
1331.91	154.7	11344.2
1332.01	154.6	11433.9
1332.11	154.5	11478.9
1332.21	154.4	11417.5
1332.31	154.3	11420.6
1332.41	154.2	11461.3
1332.51	154.1	11455.5
1332.61	154	11470.9
1332.71	153.9	11531.6
1332.81	153.8	11516.5
1332.91	153.7	11617.8
1333.01	153.6	11551.5
1333.11	153.5	11415.8
1333.21	153.4	11356.2
1333.31	153.3	11364.1
1333.41	153.2	11461.5
1333.51	153.1	11426.3
1333.61	153	11431.4
1333.71	152.9	11489.5
1333.81	152.8	11497.6
1333.91	152.7	11545.2
1334.01	152.6	11534.3
1334.11	152.5	11502.3
1334.21	152.4	11544.3
1334.31	152.3	11641.5
1334.41	152.2	11595.4
1334.51	152.1	11530.4
1334.61	152	11525.3
1334.71	151.9	11549.4
1334.81	151.8	11466.8
1334.91	151.7	11528.8
1335.01	151.6	11593.2
1335.11	151.5	11570.6
1335.21	151.4	11638
1335.31	151.3	11575.2
1335.41	151.2	11680.9
1335.51	151.1	11697.7
1335.61	151	11583.7
1335.71	150.9	11625.6
1335.81	150.8	11651.7
1335.91	150.7	11645
1336.01	150.6	11732.6
1336.11	150.5	11617.5
1336.21	150.4	11647.8
1336.31	150.3	11599.9
1336.41	150.2	11720.7
1336.51	150.1	11678.7
1336.61	150	11659.5
1336.71	149.9	11647.6
1336.81	149.8	11688.3
1336.91	149.7	11768.6
1337.01	149.6	11736.5
1337.11	149.5	11605.4
1337.21	149.4	11695.3
1337.31	149.3	11716.7
1337.41	149.2	11688.8
1337.51	149.1	11675.6
1337.61	149	11670
1337.71	148.9	11755.3
1337.81	148.8	11739.4
1337.91	148.7	11655.6
1338.01	148.6	11768.1
1338.11	148.5	11693.3
1338.21	148.4	11745.3
1338.31	148.3	11832.6
1338.41	148.2	11801.5
1338.51	148.1	11716.6
1338.61	148	11729.8
1338.71	147.9	11786.5
1338.81	147.8	11816.9
1338.91	147.7	11772.7
1339.01	147.6	11924.3
1339.11	147.5	11875.5
1339.21	147.4	11897.8
1339.31	147.3	11879
1339.41	147.2	11722.9
1339.51	147.1	11700.5
1339.61	147	11762.5
1339.71	146.9	11840.4
1339.81	146.8	11862.4
1339.91	146.7	11733.9
1340.01	146.6	11712.4
1340.11	146.5	11724.2
1340.21	146.4	11924.1
1340.31	146.3	11844.2
1340.41	146.2	11820.5
1340.51	146.1	11852.5
1340.61	146	11834.1
1340.71	145.9	11711.6
1340.81	145.8	11694
1340.91	145.7	11851
1341.01	145.6	11917.1
1341.11	145.5	11871.7
1341.21	145.4	11829.4
1341.31	145.3	11951.5
1341.41	145.2	11968.8
1341.51	145.1	11838.1
1341.61	145	11927.4
1341.71	144.9	11871.1
1341.81	144.8	11711
1341.91	144.7	11792.8
1342.01	144.6	11863.5
1342.11	144.5	11825.4
1342.21	144.4	11807.6
1342.31	144.3	11818.8
1342.41	144.2	11853.9
1342.51	144.1	11910
1342.61	144	11972.5
1342.71	143.9	11775.2
1342.81	143.8	11821.6
1342.91	143.7	11978.1
1343.01	143.6	11770.2
1343.11	143.5	11851.2
1343.21	143.4	12002.5
1343.31	143.3	12007.2
1343.41	143.2	12002.2
1343.51	143.1	12017.4
1343.61	143	12024.2
1343.71	142.9	12036.1
1343.81	142.8	11924.4
1343.91	142.7	11897.5
1344.01	142.6	11956.2
1344.11	142.5	11963.7
1344.21	142.4	11904.7
1344.31	142.3	11974
1344.41	142.2	12045.2
1344.51	142.1	12057.2
1344.61	142	12064.1
1344.71	141.9	11958.9
1344.81	141.8	11903.2
1344.91	141.7	12031.6
1345.01	141.6	12084.3
1345.11	141.5	12065.3
1345.21	141.4	12011.9
1345.31	141.3	12009.9
1345.41	141.2	11902.3
1345.51	141.1	12073.3
1345.61	141	12048
1345.71	140.9	11978.7
1345.81	140.8	12079.2
1345.91	140.7	12054.6
1346.01	140.6	11984.1
1346.11	140.5	11926.1
1346.21	140.4	11997.8
1346.31	140.3	11886.7
1346.41	140.2	12007.6
1346.51	140.1	11897.4
1346.61	140	11914.9
1346.71	139.9	12006.3
1346.81	139.8	12005.5
1346.91	139.7	11907.2
1347.01	139.6	11937.3
1347.11	139.5	12059.1
1347.21	139.4	12140.6
1347.31	139.3	12125
1347.41	139.2	12049.8
1347.51	139.1	12121.9
1347.61	139	12186.6
1347.71	138.9	12098.1
1347.81	138.8	12072.3
1347.91	138.7	12099.3
1348.01	138.6	12186.1
1348.11	138.5	12081
1348.21	138.4	12087.2
1348.31	138.3	12114.7
1348.41	138.2	12094.1
1348.51	138.1	12113.9
1348.61	138	12136.6
1348.71	137.9	12211.4
1348.81	137.8	12247.9
1348.91	137.7	12133.9
1349.01	137.6	12112.7
1349.11	137.5	12203
1349.21	137.4	12104.3
1349.31	137.3	12071.2
1349.41	137.2	12158.4
1349.51	137.1	12275.2
1349.61	137	12260.7
1349.71	136.9	12152.3
1349.81	136.8	12242.6
1349.91	136.7	12197.6
1350.01	136.6	12093.9
1350.11	136.5	12280.4
1350.21	136.4	12264.5
1350.31	136.3	12277.5
1350.41	136.2	12285.3
1350.51	136.1	12290
1350.61	136	12297.4
1350.71	135.9	12201.5
1350.81	135.8	12212.8
1350.91	135.7	12233.8
1351.01	135.6	12282.1
1351.11	135.5	12331.2
1351.21	135.4	12360.8
1351.31	135.3	12259
1351.41	135.2	12270.1
1351.51	135.1	12296.7
1351.61	135	12180.1
1351.71	134.9	12283.9
1351.81	134.8	12337.5
1351.91	134.7	12310.2
1352.01	134.6	12396.3
1352.11	134.5	12427.4
1352.21	134.4	12407.1
1352.31	134.3	12358.3
1352.41	134.2	12444.9
1352.51	134.1	12352.9
1352.61	134	12416.2
1352.71	133.9	12400.1
1352.81	133.8	12377.3
1352.91	133.7	12343
1353.01	133.6	12322.5
1353.11	133.5	12406.3
1353.21	133.4	12453.3
1353.31	133.3	12457.2
1353.41	133.2	12420.3
1353.51	133.1	12481.6
1353.61	133	12413.6
1353.71	132.9	12373.8
1353.81	132.8	12470.8
1353.91	132.7	12373.5
1354.01	132.6	12408.6
1354.11	132.5	12410.8
1354.21	132.4	12419.1
1354.31	132.3	12439.1
1354.41	132.2	12626
1354.51	132.1	12531
1354.61	132	12402
1354.71	131.9	12466.2
1354.81	131.8	12476.2
1354.91	131.7	12632.9
1355.01	131.6	12553.1
1355.11	131.5	12503.2
1355.21	131.4	12547
1355.31	131.3	12442
1355.41	131.2	12441
1355.51	131.1	12475
1355.61	131	12497.3
1355.71	130.9	12541.1
1355.81	130.8	12685.3
1355.91	130.7	12650.7
1356.01	130.6	12685.3
1356.11	130.5	12577.2
1356.21	130.4	12615.1
1356.31	130.3	12662.7
1356.41	130.2	12604.2
1356.51	130.1	12611.1
1356.61	130	12665.6
1356.71	129.9	12661.3
1356.81	129.8	12645.8
1356.91	129.7	12715.5
1357.01	129.6	12644.4
1357.11	129.5	12515.6
1357.21	129.4	12597.1
1357.31	129.3	12620.5
1357.41	129.2	12526.8
1357.51	129.1	12673.4
1357.61	129	12647.5
1357.71	128.9	12578
1357.81	128.8	12740.4
1357.91	128.7	12725.5
1358.01	128.6	12692.1
1358.11	128.5	12615.3
1358.21	128.4	12592.9
1358.31	128.3	12615.6
1358.41	128.2	12717.5
1358.51	128.1	12610.4
1358.61	128	12619
1358.71	127.9	12789.3
1358.81	127.8	12798.1
1358.91	127.7	12859.1
1359.01	127.6	12776.8
1359.11	127.5	12657.6
1359.21	127.4	12661
1359.31	127.3	12620.8
1359.41	127.2	12638.2
1359.51	127.1	12664.6
1359.61	127	12728.9
1359.71	126.9	12776.1
1359.81	126.8	12810.1
1359.91	126.7	12846.5
1360.01	126.6	12932.4
1360.11	126.5	12831.9
1360.21	126.4	12758.6
1360.31	126.3	12969.4
1360.41	126.2	13025.9
1360.51	126.1	12954.3
1360.61	126	12886.9
1360.71	125.9	12893.1
1360.81	125.8	12951.3
1360.91	125.7	12886
1361.01	125.6	12954.3
1361.11	125.5	12951.6
1361.21	125.4	13037.9
1361.31	125.3	13041.1
1361.41	125.2	13052.9
1361.51	125.1	13032.1
1361.61	125	13039.8
1361.71	124.9	13059.5
1361.81	124.8	13067.8
1361.91	124.7	12976.4
1362.01	124.6	13044.9
1362.11	124.5	13080.9
1362.21	124.4	13110.8
1362.31	124.3	13053.7
1362.41	124.2	13067.3
1362.51	124.1	13099.9
1362.61	124	13117.2
1362.71	123.9	13181.8
1362.81	123.8	13147.3
1362.91	123.7	13170.4
1363.01	123.6	13214.2
1363.11	123.5	13248.5
1363.21	123.4	13147.7
1363.31	123.3	13177.9
1363.41	123.2	13188.2
1363.51	123.1	13350.7
1363.61	123	13415.1
1363.71	122.9	13331.1
1363.81	122.8	13246.5
1363.91	122.7	13362.1
1364.01	122.6	13548.1
1364.11	122.5	13541.3
1364.21	122.4	13595.8
1364.31	122.3	13532
1364.41	122.2	13410.8
1364.51	122.1	13519.5
1364.61	122	13604
1364.71	121.9	13469.2
1364.81	121.8	13625.1
1364.91	121.7	13505.1
1365.01	121.6	13644.1
1365.11	121.5	13605.3
1365.21	121.4	13725.8
1365.31	121.3	13673.5
1365.41	121.2	13624.9
1365.51	121.1	13718.7
1365.61	121	13801.6
1365.71	120.9	13784
1365.81	120.8	13795.3
1365.91	120.7	13807.4
1366.01	120.6	13804.5
1366.11	120.5	13826.3
1366.21	120.4	13752.3
1366.31	120.3	13655.7
1366.41	120.2	13798.7
1366.51	120.1	13929.1
1366.61	120	13880.2
1366.71	119.9	13895.1
1366.81	119.8	13872.6
1366.91	119.7	13928.6
1367.01	119.6	13831.4
1367.11	119.5	13894.7
1367.21	119.4	13964.5
1367.31	119.3	13907.1
1367.41	119.2	13970.1
1367.51	119.1	13989.1
1367.61	119	14085
1367.71	118.9	13967.8
1367.81	118.8	14000
1367.91	118.7	14056.7
1368.01	118.6	13997.1
1368.11	118.5	14050.8
1368.21	118.4	13964.5
1368.31	118.3	14007.2
1368.41	118.2	14034.2
1368.51	118.1	14124.9
1368.61	118	14110.8
1368.71	117.9	14150.6
1368.81	117.8	14037.9
1368.91	117.7	14086.7
1369.01	117.6	14153
1369.11	117.5	14169.2
1369.21	117.4	14181.1
1369.31	117.3	14189.5
1369.41	117.2	14215.2
1369.51	117.1	14125.4
1369.61	117	14132.3
1369.71	116.9	14171.1
1369.81	116.8	14104.6
1369.91	116.7	14098.5
1370.01	116.6	14288.8
1370.11	116.5	14328.9
1370.21	116.4	14269.8
1370.31	116.3	14326.4
1370.41	116.2	14326.4
1370.51	116.1	14307.4
1370.61	116	14277.8
1370.71	115.9	14351.5
1370.81	115.8	14321.4
1370.91	115.7	14353.5
1371.01	115.6	14456.5
1371.11	115.5	14425.1
1371.21	115.4	14480
1371.31	115.3	14427.7
1371.41	115.2	14449.5
1371.51	115.1	14453.9
1371.61	115	14398.9
1371.71	114.9	14367.9
1371.81	114.8	14483.6
1371.91	114.7	14382.6
1372.01	114.6	14545.6
1372.11	114.5	14619.9
1372.21	114.4	14704.9
1372.31	114.3	14641.4
1372.41	114.2	14594.9
1372.51	114.1	14560.6
1372.61	114	14654.5
1372.71	113.9	14680.4
1372.81	113.8	14637.6
1372.91	113.7	14756.7
1373.01	113.6	14817.6
1373.11	113.5	14754.2
1373.21	113.4	14857.6
1373.31	113.3	14851.7
1373.41	113.2	14864.8
1373.51	113.1	14787.8
1373.61	113	14773.7
1373.71	112.9	14890
1373.81	112.8	14905.7
1373.91	112.7	14918.1
1374.01	112.6	15013.9
1374.11	112.5	15059.3
1374.21	112.4	15010.9
1374.31	112.3	15024.9
1374.41	112.2	14961.1
1374.51	112.1	14983.4
1374.61	112	15070
1374.71	111.9	15102
1374.81	111.8	15177.7
1374.91	111.7	15208
1375.01	111.6	15220.1
1375.11	111.5	15217.1
1375.21	111.4	15315.4
1375.31	111.3	15261
1375.41	111.2	15379.6
1375.51	111.1	15363.2
1375.61	111	15531.2
1375.71	110.9	15660.2
1375.81	110.8	15570
1375.91	110.7	15552.2
1376.01	110.6	15610.4
1376.11	110.5	15515.5
1376.21	110.4	15272.3
1376.31	110.3	14946.9
1376.41	110.2	14703.2
1376.51	110.1	14676.1
1376.61	110	14648.2
1376.71	109.9	14754.6
1376.81	109.8	14796.3
1376.91	109.7	14762.8
1377.01	109.6	15005
1377.11	109.5	15358.5
1377.21	109.4	15818.6
1377.31	109.3	16454.7
1377.41	109.2	17057.8
1377.51	109.1	17685.1
1377.61	109	18320.6
1377.71	108.9	18794.2
1377.81	108.8	19033.2
1377.91	108.7	18569.9
1378.01	108.6	17787.9
1378.11	108.5	17102.8
1378.21	108.4	16573.6
1378.31	108.3	15799.9
1378.41	108.2	15206.2
1378.51	108.1	14875.6
1378.61	108	14625.3
1378.71	107.9	14336.4
1378.81	107.8	14147.8
1378.91	107.7	14007.5
1379.01	107.6	13962.4
1379.11	107.5	13874.7
1379.21	107.4	13926.6
1379.31	107.3	13862.1
1379.41	107.2	13846.4
1379.51	107.1	13762.8
1379.61	107	13821.9
1379.71	106.9	13591.5
1379.81	106.8	13459.6
1379.91	106.7	13096.1
1380.01	106.6	12854.8
1380.11	106.5	12579.7
1380.21	106.4	12459.5
1380.31	106.3	12278.3
1380.41	106.2	12375.7
1380.51	106.1	12435.9
1380.61	106	12476
1380.71	105.9	12838.5
1380.81	105.8	13309.8
1380.91	105.7	13905.1
1381.01	105.6	14709.5
1381.11	105.5	15641.7
1381.21	105.4	16595.7
1381.31	105.3	17376.5
1381.41	105.2	17802.6
1381.51	105.1	17707
1381.61	105	17151.2
1381.71	104.9	16269
1381.81	104.8	15104.8
1381.91	104.7	14239.9
1382.01	104.6	13632.8
1382.11	104.5	12968.5
1382.21	104.4	12494.5
1382.31	104.3	12060.1
1382.41	104.2	11958.9
1382.51	104.1	11811.4
1382.61	104	11674.9
1382.71	103.9	11433.8
1382.81	103.8	11353.9
1382.91	103.7	11399.5
1383.01	103.6	11405.5
1383.11	103.5	11278.7
1383.21	103.4	11231.9
1383.31	103.3	11327.4
1383.41	103.2	11382.3
1383.51	103.1	11248.2
1383.61	103	11385.8
1383.71	102.9	11350.5
1383.81	102.8	11310.1
1383.91	102.7	11135.1
1384.01	102.6	11184.3
1384.11	102.5	11332.1
1384.21	102.4	11420.2
1384.31	102.3	11343.6
1384.41	102.2	11374.4
1384.51	102.1	11348.6
1384.61	102	11391.9
1384.71	101.9	11359.8
1384.81	101.8	11308.3
1384.91	101.7	11398.5
1385.01	101.6	11465.3
1385.11	101.5	11477.9
1385.21	101.4	11357.8
1385.31	101.3	11467.3
1385.41	101.2	11485.5
1385.51	101.1	11513
1385.61	101	11468.1
1385.71	100.9	11553.1
1385.81	100.8	11626.3
1385.91	100.7	11662.9
1386.01	100.6	11616.3
1386.11	100.5	11708.5
1386.21	100.4	11668.4
1386.31	100.3	11787.3
1386.41	100.2	11818.3
1386.51	100.1	11794.7
1386.61	100	11681.6
1386.71	99.9	11840.2
1386.81	99.8	11878.6
1386.91	99.7	11831.9
1387.01	99.6	11937.9
1387.11	99.5	11901.9
1387.21	99.4	11884
1387.31	99.3	12058.9
1387.41	99.2	12079.6
1387.51	99.1	12065.6
1387.61	99	12029.7
1387.71	98.9	11975.7
1387.81	98.8	11916.5
1387.91	98.7	12030
1388.01	98.6	12073.6
1388.11	98.5	12016.4
1388.21	98.4	12039.1
1388.31	98.3	12023.3
1388.41	98.2	11970.3
1388.51	98.1	12018.3
1388.61	98	12120.5
1388.71	97.9	12041.1
1388.81	97.8	12062.4
1388.91	97.7	12088.5
1389.01	97.6	12165.2
1389.11	97.5	12146.9
1389.21	97.4	12061
1389.31	97.3	12187
1389.41	97.2	12131.1
1389.51	97.1	12023.3
1389.61	97	12056.2
1389.71	96.9	12044.9
1389.81	96.8	11916.1
1389.91	96.7	11826.5
1390.01	96.6	11896.4
1390.11	96.5	11792.7
1390.21	96.4	11793.4
1390.31	96.3	11841.2
1390.41	96.2	11675.9
1390.51	96.1	11716.2
1390.61	96	11720
1390.71	95.9	11730.1
1390.81	95.8	11819.2
1390.91	95.7	11791.7
1391.01	95.6	11890.6
1391.11	95.5	11899.7
1391.21	95.4	11930.1
1391.31	95.3	11913.4
1391.41	95.2	11900.4
1391.51	95.1	11862.3
1391.61	95	11903.1
1391.71	94.9	12144.7
1391.81	94.8	12078.4
1391.91	94.7	12149
1392.01	94.6	12057.6
1392.11	94.5	12196.7
1392.21	94.4	12160.2
1392.31	94.3	12224.6
1392.41	94.2	12297.1
1392.51	94.1	12306.8
1392.61	94	12269.6
1392.71	93.9	12393.9
1392.81	93.8	12319
1392.91	93.7	12216.7
1393.01	93.6	12261.4
1393.11	93.5	12368.6
1393.21	93.4	12233.3
1393.31	93.3	12221.8
1393.41	93.2	12281.1
1393.51	93.1	12192.8
1393.61	93	12043.2
1393.71	92.9	11894.6
1393.81	92.8	11812
1393.91	92.7	11840.8
1394.01	92.6	11930.6
1394.11	92.5	11805
1394.21	92.4	11721.4
1394.31	92.3	11814.8
1394.41	92.2	11734.7
1394.51	92.1	11802.2
1394.61	92	11847.4
1394.71	91.9	11884.9
1394.81	91.8	11821.9
1394.91	91.7	11994.2
1395.01	91.6	12055.1
1395.11	91.5	12138.8
1395.21	91.4	12243
1395.31	91.3	12344.8
1395.41	91.2	12557.9
1395.51	91.1	12557.3
1395.61	91	12636.7
1395.71	90.9	12711.3
1395.81	90.8	12916.7
1395.91	90.7	12963.9
1396.01	90.6	12991.6
1396.11	90.5	13109.5
1396.21	90.4	13176.2
1396.31	90.3	13345.3
1396.41	90.2	13406.1
1396.51	90.1	13339.3
1396.61	90	13384.1
1396.71	89.9	13358.8
1396.81	89.8	13472.7
1396.91	89.7	13502
1397.01	89.6	13498.5
1397.11	89.5	13774.8
1397.21	89.4	14175.6
1397.31	89.3	14610.4
1397.41	89.2	15027.4
1397.51	89.1	15677.4
1397.61	89	16408
1397.71	88.9	17560.7
1397.81	88.8	19138.6
1397.91	88.7	21025.9
1398.01	88.6	23759.7
1398.11	88.5	27553.4
1398.21	88.4	32955.8
1398.31	88.3	40909.5
1398.41	88.2	52211.7
1398.51	88.1	66737.4
1398.61	88	84848.2
1398.71	87.9	104195
1398.81	87.8	122158
1398.91	87.7	133158
1399.01	87.6	134900
1399.11	87.5	127357
1399.21	87.4	112096
1399.31	87.3	92832.4
1399.41	87.2	73479.8
1399.51	87.1	57161.7
1399.61	87	44006.2
1399.71	86.9	34528.1
1399.81	86.8	27518.8
1399.91	86.7	22414.3
1400.01	86.6	19115.8
1400.11	86.5	16942.1
1400.21	86.4	15564.8
1400.31	86.3	14321
1400.41	86.2	13482.9
1400.51	86.1	12985.5
1400.61	86	12630.3
1400.71	85.9	12428.8
1400.81	85.8	12579.4
1400.91	85.7	12794.8
1401.01	85.6	13040.4
1401.11	85.5	13633
1401.21	85.4	14211.1
1401.31	85.3	15230.4
1401.41	85.2	16396.5
1401.51	85.1	18232.6
1401.61	85	20810.3
1401.71	84.9	24285.2
1401.81	84.8	29357.5
1401.91	84.7	36923.4
1402.01	84.6	47973.6
1402.11	84.5	63638.1
1402.21	84.4	83881
1402.31	84.3	108124
1402.41	84.2	133726
1402.51	84.1	155386
1402.61	84	167836
1402.71	83.9	167714
1402.81	83.8	154283
1402.91	83.7	132028
1403.01	83.6	105764
1403.11	83.5	80818.6
1403.21	83.4	60194.5
1403.31	83.3	44349.3
1403.41	83.2	32653.3
1403.51	83.1	24166.8
1403.61	83	18409.3
1403.71	82.9	14506.1
1403.81	82.8	11832.9
1403.91	82.7	10076
1404.01	82.6	8830.33
1404.11	82.5	7931.54
1404.21	82.4	7131.48
1404.31	82.3	6524.93
1404.41	82.2	6137.62
1404.51	82.1	5800.02
1404.61	82	5451.47
1404.71	81.9	5273.68
1404.81	81.8	4976.3
1404.91	81.7	4789.17
1405.01	81.6	4598.45
1405.11	81.5	4440.2
1405.21	81.4	4345.03
1405.31	81.3	4220.43
1405.41	81.2	4093.22
1405.51	81.1	3988.52
1405.61	81	3873.57
1405.71	80.9	3792.53
1405.81	80.8	3699.68
1405.91	80.7	3626.18
1406.01	80.6	3562.51
1406.11	80.5	3492.74
1406.21	80.4	3426.16
1406.31	80.3	3402.62
1406.41	80.2	3357.57
1406.51	80.1	3311.74
1406.61	80	3299.79
1406.71	79.9	3275.01
1406.81	79.8	3209.3
1406.91	79.7	3199.54
1407.01	79.6	3187.74
1407.11	79.5	3148.65
1407.21	79.4	3154.78
1407.31	79.3	3076.04
1407.41	79.2	3061.4
1407.51	79.1	3095.55
1407.61	79	3085.89
1407.71	78.9	3019.98
1407.81	78.8	3074.51
1407.91	78.7	3095.18
1408.01	78.6	3113.39
1408.11	78.5	3066.62
1408.21	78.4	3005.08
1408.31	78.3	3026.02
1408.41	78.2	3000.74
1408.51	78.1	3021.65
1408.61	78	3022.21
1408.71	77.9	2992.28
1408.81	77.8	2931.94
1408.91	77.7	2926.11
1409.01	77.6	2966.79
1409.11	77.5	2994.27
1409.21	77.4	2984.99
1409.31	77.3	2982.22
1409.41	77.2	2977.34
1409.51	77.1	2951.4
1409.61	77	2919.49
1409.71	76.9	2993.6
1409.81	76.8	3014.68
1409.91	76.7	2963.45
1410.01	76.6	2961.2
1410.11	76.5	3011.37
1410.21	76.4	3070.46
1410.31	76.3	3042.2
1410.41	76.2	3042.76
1410.51	76.1	3025.87
1410.61	76	3061.61
1410.71	75.9	3046.11
1410.81	75.8	3035.41
1410.91	75.7	3062.82
1411.01	75.6	3078.96
1411.11	75.5	3145.42
1411.21	75.4	3156.01
1411.31	75.3	3205.82
1411.41	75.2	3209.34
1411.51	75.1	3228.92
1411.61	75	3276.33