C:\Users\Mark\ownCloud\Muelheim Group\Projects\Gas phase background\EX321_CEC356_Au Ag and Cu in O2.vms
Pr:Au4f
	Characteristic Energy eV	1486.61	Acquisition Time s	1
KE_Pr:Au4f	BE_Pr:Au4f	CPS_Pr:Au4f
1311.61	175	941.125
1311.71	174.9	936.803
1311.81	174.8	943.494
1311.91	174.7	946.486
1312.01	174.6	946.615
1312.11	174.5	950.475
1312.21	174.4	930.473
1312.31	174.3	938.153
1312.41	174.2	946.618
1312.51	174.1	945.21
1312.61	174	957.684
1312.71	173.9	946.013
1312.81	173.8	946.586
1312.91	173.7	956.149
1313.01	173.6	943.068
1313.11	173.5	942.82
1313.21	173.4	940.916
1313.31	173.3	958.239
1313.41	173.2	958.421
1313.51	173.1	948.578
1313.61	173	951.549
1313.71	172.9	956.257
1313.81	172.8	957.093
1313.91	172.7	957.8
1314.01	172.6	953.354
1314.11	172.5	951.929
1314.21	172.4	962.464
1314.31	172.3	965.402
1314.41	172.2	963.695
1314.51	172.1	936.328
1314.61	172	941.675
1314.71	171.9	936.602
1314.81	171.8	954.997
1314.91	171.7	948.928
1315.01	171.6	951.117
1315.11	171.5	951.937
1315.21	171.4	961.816
1315.31	171.3	952.748
1315.41	171.2	961.468
1315.51	171.1	953.972
1315.61	171	948.739
1315.71	170.9	954.296
1315.81	170.8	952.647
1315.91	170.7	957.354
1316.01	170.6	946.598
1316.11	170.5	962.067
1316.21	170.4	975.172
1316.31	170.3	958.895
1316.41	170.2	948.749
1316.51	170.1	943.188
1316.61	170	946.9
1316.71	169.9	952.192
1316.81	169.8	950.355
1316.91	169.7	956.656
1317.01	169.6	949.237
1317.11	169.5	933.637
1317.21	169.4	953.599
1317.31	169.3	957.136
1317.41	169.2	946.304
1317.51	169.1	949.991
1317.61	169	958.121
1317.71	168.9	958.48
1317.81	168.8	953.027
1317.91	168.7	966.895
1318.01	168.6	964.331
1318.11	168.5	956.695
1318.21	168.4	949.185
1318.31	168.3	965.969
1318.41	168.2	956.805
1318.51	168.1	962.887
1318.61	168	951.376
1318.71	167.9	962.596
1318.81	167.8	963.329
1318.91	167.7	946.981
1319.01	167.6	959.478
1319.11	167.5	964.121
1319.21	167.4	948.101
1319.31	167.3	961.715
1319.41	167.2	949.058
1319.51	167.1	953.535
1319.61	167	961.081
1319.71	166.9	961.56
1319.81	166.8	947.424
1319.91	166.7	958.147
1320.01	166.6	944.815
1320.11	166.5	965.704
1320.21	166.4	956.475
1320.31	166.3	966.842
1320.41	166.2	985.797
1320.51	166.1	954.864
1320.61	166	961.241
1320.71	165.9	963.859
1320.81	165.8	964.796
1320.91	165.7	961.228
1321.01	165.6	965.697
1321.11	165.5	960.187
1321.21	165.4	959.87
1321.31	165.3	969.893
1321.41	165.2	962.661
1321.51	165.1	960.368
1321.61	165	946.412
1321.71	164.9	963.464
1321.81	164.8	970.503
1321.91	164.7	956.392
1322.01	164.6	963.371
1322.11	164.5	965.283
1322.21	164.4	963.129
1322.31	164.3	962.38
1322.41	164.2	954.147
1322.51	164.1	963.313
1322.61	164	960.909
1322.71	163.9	968.522
1322.81	163.8	971.694
1322.91	163.7	976.816
1323.01	163.6	967.371
1323.11	163.5	974.701
1323.21	163.4	967.079
1323.31	163.3	956.662
1323.41	163.2	972.33
1323.51	163.1	970.876
1323.61	163	972.676
1323.71	162.9	964.934
1323.81	162.8	957.357
1323.91	162.7	958.801
1324.01	162.6	963.108
1324.11	162.5	960.473
1324.21	162.4	955.848
1324.31	162.3	968.001
1324.41	162.2	972.134
1324.51	162.1	973.692
1324.61	162	966.907
1324.71	161.9	960.969
1324.81	161.8	975.869
1324.91	161.7	979.933
1325.01	161.6	963.153
1325.11	161.5	980.168
1325.21	161.4	969.779
1325.31	161.3	974.739
1325.41	161.2	969.022
1325.51	161.1	959.611
1325.61	161	969.861
1325.71	160.9	980.508
1325.81	160.8	971.08
1325.91	160.7	966.145
1326.01	160.6	965.115
1326.11	160.5	969.253
1326.21	160.4	968.55
1326.31	160.3	983.224
1326.41	160.2	988.339
1326.51	160.1	972.942
1326.61	160	970.338
1326.71	159.9	971.466
1326.81	159.8	978.922
1326.91	159.7	974.873
1327.01	159.6	972.487
1327.11	159.5	981.469
1327.21	159.4	983.127
1327.31	159.3	971.943
1327.41	159.2	985.305
1327.51	159.1	966.588
1327.61	159	972.418
1327.71	158.9	985.517
1327.81	158.8	972.066
1327.91	158.7	966.123
1328.01	158.6	977.379
1328.11	158.5	980.631
1328.21	158.4	967.505
1328.31	158.3	973.414
1328.41	158.2	982.226
1328.51	158.1	981.635
1328.61	158	970.131
1328.71	157.9	952.412
1328.81	157.8	978.863
1328.91	157.7	968.365
1329.01	157.6	968.897
1329.11	157.5	982.303
1329.21	157.4	969.721
1329.31	157.3	977.685
1329.41	157.2	975.626
1329.51	157.1	977.87
1329.61	157	986.283
1329.71	156.9	979.48
1329.81	156.8	998.568
1329.91	156.7	985.274
1330.01	156.6	986.056
1330.11	156.5	976.008
1330.21	156.4	966.894
1330.31	156.3	968.892
1330.41	156.2	982.362
1330.51	156.1	986.66
1330.61	156	981.707
1330.71	155.9	987.81
1330.81	155.8	982.344
1330.91	155.7	977.6
1331.01	155.6	977.875
1331.11	155.5	981.653
1331.21	155.4	986.532
1331.31	155.3	986.049
1331.41	155.2	978.382
1331.51	155.1	987.765
1331.61	155	973.721
1331.71	154.9	986.205
1331.81	154.8	989.471
1331.91	154.7	998.057
1332.01	154.6	989.494
1332.11	154.5	991.099
1332.21	154.4	976.303
1332.31	154.3	979.117
1332.41	154.2	983.206
1332.51	154.1	976.502
1332.61	154	986.959
1332.71	153.9	984.08
1332.81	153.8	991.612
1332.91	153.7	990.964
1333.01	153.6	960.9
1333.11	153.5	974.424
1333.21	153.4	992.702
1333.31	153.3	992.038
1333.41	153.2	985.464
1333.51	153.1	991.009
1333.61	153	991.914
1333.71	152.9	980.711
1333.81	152.8	995.184
1333.91	152.7	988.324
1334.01	152.6	967.892
1334.11	152.5	1001.72
1334.21	152.4	990.333
1334.31	152.3	994.788
1334.41	152.2	1000.7
1334.51	152.1	1013.18
1334.61	152	989.963
1334.71	151.9	989.633
1334.81	151.8	981.396
1334.91	151.7	986.188
1335.01	151.6	986.822
1335.11	151.5	1006.15
1335.21	151.4	995.862
1335.31	151.3	1012.6
1335.41	151.2	990.453
1335.51	151.1	994.678
1335.61	151	1007.51
1335.71	150.9	994.081
1335.81	150.8	1008.3
1335.91	150.7	991.865
1336.01	150.6	990.197
1336.11	150.5	984.526
1336.21	150.4	994.355
1336.31	150.3	992.627
1336.41	150.2	1005.07
1336.51	150.1	998.725
1336.61	150	992.6
1336.71	149.9	998.175
1336.81	149.8	1000.59
1336.91	149.7	996.186
1337.01	149.6	994.612
1337.11	149.5	1001.87
1337.21	149.4	997.442
1337.31	149.3	1002.14
1337.41	149.2	1000.38
1337.51	149.1	984.223
1337.61	149	978.244
1337.71	148.9	986.887
1337.81	148.8	991.163
1337.91	148.7	1003.81
1338.01	148.6	982.443
1338.11	148.5	993.528
1338.21	148.4	994.791
1338.31	148.3	990.223
1338.41	148.2	994.954
1338.51	148.1	999.784
1338.61	148	1001.12
1338.71	147.9	1001.29
1338.81	147.8	988.079
1338.91	147.7	998.853
1339.01	147.6	1003.53
1339.11	147.5	1001.84
1339.21	147.4	989.285
1339.31	147.3	983.192
1339.41	147.2	1007.5
1339.51	147.1	990.648
1339.61	147	995.424
1339.71	146.9	988.853
1339.81	146.8	1002.22
1339.91	146.7	1000.35
1340.01	146.6	999.255
1340.11	146.5	998.301
1340.21	146.4	995.081
1340.31	146.3	993.224
1340.41	146.2	1002.24
1340.51	146.1	1004.79
1340.61	146	986.561
1340.71	145.9	990.296
1340.81	145.8	995.842
1340.91	145.7	1004.34
1341.01	145.6	979.616
1341.11	145.5	986.337
1341.21	145.4	993.257
1341.31	145.3	991.314
1341.41	145.2	1002.3
1341.51	145.1	1004.27
1341.61	145	1003.24
1341.71	144.9	1006.28
1341.81	144.8	1001.17
1341.91	144.7	991.779
1342.01	144.6	1006.43
1342.11	144.5	1005.5
1342.21	144.4	995.028
1342.31	144.3	1000.81
1342.41	144.2	1015.43
1342.51	144.1	986.572
1342.61	144	995.125
1342.71	143.9	1000.25
1342.81	143.8	988.764
1342.91	143.7	1000.35
1343.01	143.6	994.139
1343.11	143.5	986.774
1343.21	143.4	999.87
1343.31	143.3	1011.26
1343.41	143.2	995.229
1343.51	143.1	995.973
1343.61	143	983.65
1343.71	142.9	993.478
1343.81	142.8	1002.04
1343.91	142.7	1003.17
1344.01	142.6	1006.07
1344.11	142.5	1010.17
1344.21	142.4	1000.31
1344.31	142.3	1002.47
1344.41	142.2	1005.11
1344.51	142.1	992.517
1344.61	142	1000.89
1344.71	141.9	998.915
1344.81	141.8	992.476
1344.91	141.7	994.578
1345.01	141.6	1008.22
1345.11	141.5	985.113
1345.21	141.4	997.795
1345.31	141.3	995.921
1345.41	141.2	997.3
1345.51	141.1	998.37
1345.61	141	997.486
1345.71	140.9	1002.01
1345.81	140.8	1004.3
1345.91	140.7	1007.54
1346.01	140.6	999.069
1346.11	140.5	1013.2
1346.21	140.4	1006.5
1346.31	140.3	1004.97
1346.41	140.2	1008.86
1346.51	140.1	998.627
1346.61	140	1001.84
1346.71	139.9	999.873
1346.81	139.8	1003.11
1346.91	139.7	1013.36
1347.01	139.6	1013.98
1347.11	139.5	1016.71
1347.21	139.4	1018.79
1347.31	139.3	1000.98
1347.41	139.2	1005.25
1347.51	139.1	1003.84
1347.61	139	998.761
1347.71	138.9	1011.7
1347.81	138.8	1010.25
1347.91	138.7	1012.9
1348.01	138.6	1022
1348.11	138.5	1022.25
1348.21	138.4	1003.4
1348.31	138.3	1002.02
1348.41	138.2	1008.51
1348.51	138.1	1014.22
1348.61	138	993.234
1348.71	137.9	996.346
1348.81	137.8	1003.89
1348.91	137.7	1000.17
1349.01	137.6	1010.67
1349.11	137.5	1014.71
1349.21	137.4	1001.99
1349.31	137.3	1009.28
1349.41	137.2	1000.77
1349.51	137.1	1015.88
1349.61	137	1004.26
1349.71	136.9	1016.43
1349.81	136.8	1007.28
1349.91	136.7	1003.64
1350.01	136.6	1012.21
1350.11	136.5	1017.01
1350.21	136.4	993.416
1350.31	136.3	1013.39
1350.41	136.2	1011.13
1350.51	136.1	1019.53
1350.61	136	1015.63
1350.71	135.9	1011.02
1350.81	135.8	1006.18
1350.91	135.7	1002.56
1351.01	135.6	1012.07
1351.11	135.5	1008.31
1351.21	135.4	1000.49
1351.31	135.3	1001.49
1351.41	135.2	1024.92
1351.51	135.1	1006.71
1351.61	135	1017.64
1351.71	134.9	1000.17
1351.81	134.8	1023.1
1351.91	134.7	1018.18
1352.01	134.6	1005.17
1352.11	134.5	1010.29
1352.21	134.4	1010.58
1352.31	134.3	1005.61
1352.41	134.2	1003.33
1352.51	134.1	1000.31
1352.61	134	1004.71
1352.71	133.9	1006.96
1352.81	133.8	1010.59
1352.91	133.7	1021.5
1353.01	133.6	1019.48
1353.11	133.5	1017.31
1353.21	133.4	1001.61
1353.31	133.3	1009.74
1353.41	133.2	1002.05
1353.51	133.1	1002.91
1353.61	133	1011.12
1353.71	132.9	1025.24
1353.81	132.8	1017.63
1353.91	132.7	1005.45
1354.01	132.6	1013.5
1354.11	132.5	1006.52
1354.21	132.4	997.347
1354.31	132.3	1014.31
1354.41	132.2	1017.49
1354.51	132.1	1009.01
1354.61	132	1017.33
1354.71	131.9	1000.41
1354.81	131.8	1012.68
1354.91	131.7	1019.56
1355.01	131.6	1001.1
1355.11	131.5	1014.8
1355.21	131.4	1002.93
1355.31	131.3	1017.89
1355.41	131.2	1024.41
1355.51	131.1	1006.18
1355.61	131	1017.99
1355.71	130.9	1021.64
1355.81	130.8	1013.63
1355.91	130.7	1016.92
1356.01	130.6	1019.32
1356.11	130.5	1017.96
1356.21	130.4	1017.54
1356.31	130.3	1021.21
1356.41	130.2	1027.4
1356.51	130.1	1017.81
1356.61	130	1020.83
1356.71	129.9	1010.3
1356.81	129.8	1023.55
1356.91	129.7	1034.67
1357.01	129.6	1032.88
1357.11	129.5	1025.39
1357.21	129.4	1018.53
1357.31	129.3	1019.01
1357.41	129.2	1029.32
1357.51	129.1	1018.25
1357.61	129	1008.46
1357.71	128.9	1025.13
1357.81	128.8	1020.76
1357.91	128.7	1012.1
1358.01	128.6	1021.01
1358.11	128.5	1030.3
1358.21	128.4	1009.53
1358.31	128.3	1026.98
1358.41	128.2	1015.46
1358.51	128.1	1015.12
1358.61	128	1033.51
1358.71	127.9	1014.54
1358.81	127.8	997.021
1358.91	127.7	1011.98
1359.01	127.6	1012.57
1359.11	127.5	1014.78
1359.21	127.4	1011.69
1359.31	127.3	1013.78
1359.41	127.2	1018.93
1359.51	127.1	1010.01
1359.61	127	1020.78
1359.71	126.9	1023.29
1359.81	126.8	1005.84
1359.91	126.7	1007.19
1360.01	126.6	1013.86
1360.11	126.5	990.946
1360.21	126.4	996.87
1360.31	126.3	1005.67
1360.41	126.2	997.286
1360.51	126.1	1011.34
1360.61	126	999.85
1360.71	125.9	1016.02
1360.81	125.8	1005.58
1360.91	125.7	1020.85
1361.01	125.6	1013.48
1361.11	125.5	994.045
1361.21	125.4	1009.34
1361.31	125.3	1018.25
1361.41	125.2	1008.68
1361.51	125.1	1007.01
1361.61	125	999.383
1361.71	124.9	1012.05
1361.81	124.8	1012.4
1361.91	124.7	1021.18
1362.01	124.6	1029.44
1362.11	124.5	1008.22
1362.21	124.4	1012.17
1362.31	124.3	1008.01
1362.41	124.2	1008.6
1362.51	124.1	1013.7
1362.61	124	1015.09
1362.71	123.9	1006.68
1362.81	123.8	1015.05
1362.91	123.7	1008.8
1363.01	123.6	1011.42
1363.11	123.5	1013.48
1363.21	123.4	1019.93
1363.31	123.3	1011
1363.41	123.2	1005.51
1363.51	123.1	1003.1
1363.61	123	1000.98
1363.71	122.9	987.961
1363.81	122.8	1008.93
1363.91	122.7	1005.76
1364.01	122.6	1015.25
1364.11	122.5	1017.69
1364.21	122.4	1009.5
1364.31	122.3	1012.27
1364.41	122.2	1017.27
1364.51	122.1	1010.13
1364.61	122	1026.41
1364.71	121.9	1017.78
1364.81	121.8	994.414
1364.91	121.7	1006.74
1365.01	121.6	1016.97
1365.11	121.5	1008.84
1365.21	121.4	1001.39
1365.31	121.3	1007.23
1365.41	121.2	1018.64
1365.51	121.1	1011.89
1365.61	121	998.994
1365.71	120.9	1001.9
1365.81	120.8	1002.08
1365.91	120.7	1011.71
1366.01	120.6	1004.1
1366.11	120.5	1012.65
1366.21	120.4	1014.14
1366.31	120.3	1008.39
1366.41	120.2	1003.39
1366.51	120.1	1009.32
1366.61	120	1002.87
1366.71	119.9	1002.35
1366.81	119.8	1000.81
1366.91	119.7	1006.47
1367.01	119.6	993.228
1367.11	119.5	1006.64
1367.21	119.4	1003.33
1367.31	119.3	1000.47
1367.41	119.2	999.49
1367.51	119.1	1000.45
1367.61	119	1013.89
1367.71	118.9	1012.15
1367.81	118.8	1023.5
1367.91	118.7	1006.35
1368.01	118.6	1007.12
1368.11	118.5	1007.23
1368.21	118.4	1012.48
1368.31	118.3	1017.99
1368.41	118.2	1022.9
1368.51	118.1	1001.73
1368.61	118	1010.38
1368.71	117.9	1013.55
1368.81	117.8	1000.79
1368.91	117.7	997.253
1369.01	117.6	1004.99
1369.11	117.5	1006.83
1369.21	117.4	1005.71
1369.31	117.3	987.184
1369.41	117.2	998.19
1369.51	117.1	1012.13
1369.61	117	1000.6
1369.71	116.9	999.525
1369.81	116.8	991.946
1369.91	116.7	989.821
1370.01	116.6	1008.85
1370.11	116.5	1006.05
1370.21	116.4	1006.36
1370.31	116.3	991.079
1370.41	116.2	1012.47
1370.51	116.1	997.407
1370.61	116	988.555
1370.71	115.9	1010.98
1370.81	115.8	1020.52
1370.91	115.7	1006.51
1371.01	115.6	1011.63
1371.11	115.5	1015.75
1371.21	115.4	995.651
1371.31	115.3	993.103
1371.41	115.2	1010.46
1371.51	115.1	999.47
1371.61	115	1001.56
1371.71	114.9	998.979
1371.81	114.8	999.945
1371.91	114.7	1004.03
1372.01	114.6	1005.45
1372.11	114.5	998.07
1372.21	114.4	1015.06
1372.31	114.3	1005.9
1372.41	114.2	1011.71
1372.51	114.1	1002
1372.61	114	994.862
1372.71	113.9	997.152
1372.81	113.8	1012.48
1372.91	113.7	1002.19
1373.01	113.6	1005.93
1373.11	113.5	1002.66
1373.21	113.4	1000.62
1373.31	113.3	1008.67
1373.41	113.2	1014.6
1373.51	113.1	1010.27
1373.61	113	1014.73
1373.71	112.9	1018.32
1373.81	112.8	1003.19
1373.91	112.7	1009.62
1374.01	112.6	1012.02
1374.11	112.5	1019.43
1374.21	112.4	1021.44
1374.31	112.3	1016.12
1374.41	112.2	1016.14
1374.51	112.1	1016.41
1374.61	112	1017.98
1374.71	111.9	1016.07
1374.81	111.8	1014.63
1374.91	111.7	1025.69
1375.01	111.6	1032.61
1375.11	111.5	1027.47
1375.21	111.4	1019.81
1375.31	111.3	1018.45
1375.41	111.2	1033.08
1375.51	111.1	1039.9
1375.61	111	1032.75
1375.71	110.9	1022.19
1375.81	110.8	1026.31
1375.91	110.7	1026.54
1376.01	110.6	1023.34
1376.11	110.5	1035.94
1376.21	110.4	1034.77
1376.31	110.3	1018.74
1376.41	110.2	1033.89
1376.51	110.1	1026.25
1376.61	110	1028.58
1376.71	109.9	1026.56
1376.81	109.8	1017.48
1376.91	109.7	1002.38
1377.01	109.6	1012.05
1377.11	109.5	1018.68
1377.21	109.4	1032.07
1377.31	109.3	1031.81
1377.41	109.2	1014.39
1377.51	109.1	1028.83
1377.61	109	1023.32
1377.71	108.9	1010.19
1377.81	108.8	1026.9
1377.91	108.7	1031.6
1378.01	108.6	1023.14
1378.11	108.5	1014.34
1378.21	108.4	1008.3
1378.31	108.3	1024.62
1378.41	108.2	1026.29
1378.51	108.1	1023.53
1378.61	108	1035.77
1378.71	107.9	1022.55
1378.81	107.8	1011.17
1378.91	107.7	1018.3
1379.01	107.6	1015.24
1379.11	107.5	1022.25
1379.21	107.4	1026.19
1379.31	107.3	1013.49
1379.41	107.2	1003.27
1379.51	107.1	1014.92
1379.61	107	1021
1379.71	106.9	1020.53
1379.81	106.8	1011.52
1379.91	106.7	993.351
1380.01	106.6	1003.16
1380.11	106.5	999.979
1380.21	106.4	1010.86
1380.31	106.3	1008.76
1380.41	106.2	1001.85
1380.51	106.1	1002.57
1380.61	106	993.627
1380.71	105.9	999.853
1380.81	105.8	994.198
1380.91	105.7	1000.3
1381.01	105.6	984.43
1381.11	105.5	991.009
1381.21	105.4	986.029
1381.31	105.3	998.288
1381.41	105.2	1004.69
1381.51	105.1	1003.3
1381.61	105	1009.89
1381.71	104.9	1016.67
1381.81	104.8	1020.72
1381.91	104.7	999.213
1382.01	104.6	1013.17
1382.11	104.5	1011.33
1382.21	104.4	1004.44
1382.31	104.3	1012.62
1382.41	104.2	1014.01
1382.51	104.1	1000.74
1382.61	104	995.544
1382.71	103.9	994.992
1382.81	103.8	999.293
1382.91	103.7	987.255
1383.01	103.6	985.903
1383.11	103.5	1012.17
1383.21	103.4	999.768
1383.31	103.3	1009.47
1383.41	103.2	1013.49
1383.51	103.1	999.139
1383.61	103	1010.53
1383.71	102.9	989.914
1383.81	102.8	993.531
1383.91	102.7	976.5
1384.01	102.6	966.387
1384.11	102.5	942.405
1384.21	102.4	917.944
1384.31	102.3	905.231
1384.41	102.2	910.75
1384.51	102.1	912.222
1384.61	102	912.878
1384.71	101.9	901.145
1384.81	101.8	907.171
1384.91	101.7	908.822
1385.01	101.6	915.587
1385.11	101.5	928.007
1385.21	101.4	927.029
1385.31	101.3	947.672
1385.41	101.2	946.775
1385.51	101.1	945.902
1385.61	101	947.472
1385.71	100.9	938.656
1385.81	100.8	947.731
1385.91	100.7	924.322
1386.01	100.6	917.164
1386.11	100.5	906.472
1386.21	100.4	899.444
1386.31	100.3	887.395
1386.41	100.2	875.884
1386.51	100.1	861.659
1386.61	100	844.623
1386.71	99.9	851.369
1386.81	99.8	849.375
1386.91	99.7	856.751
1387.01	99.6	864.641
1387.11	99.5	859.478
1387.21	99.4	856.015
1387.31	99.3	858.701
1387.41	99.2	844.094
1387.51	99.1	828.182
1387.61	99	818.67
1387.71	98.9	802.838
1387.81	98.8	786.635
1387.91	98.7	784.275
1388.01	98.6	756.439
1388.11	98.5	752.314
1388.21	98.4	741.477
1388.31	98.3	726.311
1388.41	98.2	724.007
1388.51	98.1	719.177
1388.61	98	720.047
1388.71	97.9	712.331
1388.81	97.8	718.192
1388.91	97.7	721.99
1389.01	97.6	719.954
1389.11	97.5	732.996
1389.21	97.4	730.427
1389.31	97.3	742.58
1389.41	97.2	760.945
1389.51	97.1	763.002
1389.61	97	772.259
1389.71	96.9	784.935
1389.81	96.8	794.514
1389.91	96.7	812.391
1390.01	96.6	825.616
1390.11	96.5	824.751
1390.21	96.4	818.911
1390.31	96.3	823.012
1390.41	96.2	806.674
1390.51	96.1	797.219
1390.61	96	789.275
1390.71	95.9	777.897
1390.81	95.8	749.867
1390.91	95.7	736.515
1391.01	95.6	724.866
1391.11	95.5	700.703
1391.21	95.4	683.218
1391.31	95.3	668.41
1391.41	95.2	647.184
1391.51	95.1	631.211
1391.61	95	621.676
1391.71	94.9	621.727
1391.81	94.8	611.108
1391.91	94.7	611.7
1392.01	94.6	594.834
1392.11	94.5	593.833
1392.21	94.4	601.378
1392.31	94.3	606.606
1392.41	94.2	604.963
1392.51	94.1	592.348
1392.61	94	605.559
1392.71	93.9	592.861
1392.81	93.8	607.889
1392.91	93.7	607.149
1393.01	93.6	612.827
1393.11	93.5	610.169
1393.21	93.4	628.577
1393.31	93.3	659.104
1393.41	93.2	682.522
1393.51	93.1	693.251
1393.61	93	711.83
1393.71	92.9	753.783
1393.81	92.8	771.76
1393.91	92.7	778.441
1394.01	92.6	796.891
1394.11	92.5	823.046
1394.21	92.4	809.628
1394.31	92.3	796.711
1394.41	92.2	779.868
1394.51	92.1	756.505
1394.61	92	751.173
1394.71	91.9	714.712
1394.81	91.8	700.547
1394.91	91.7	673.631
1395.01	91.6	658.369
1395.11	91.5	629.103
1395.21	91.4	615.627
1395.31	91.3	603.298
1395.41	91.2	585.085
1395.51	91.1	579.86
1395.61	91	574.496
1395.71	90.9	568.176
1395.81	90.8	565.078
1395.91	90.7	551.524
1396.01	90.6	565.826
1396.11	90.5	556.722
1396.21	90.4	563.133
1396.31	90.3	563.27
1396.41	90.2	562.813
1396.51	90.1	562.576
1396.61	90	574.136
1396.71	89.9	571.271
1396.81	89.8	562.443
1396.91	89.7	575.44
1397.01	89.6	570.905
1397.11	89.5	578.87
1397.21	89.4	579.674
1397.31	89.3	601.844
1397.41	89.2	620.633
1397.51	89.1	640.264
1397.61	89	675.48
1397.71	88.9	704.041
1397.81	88.8	745.208
1397.91	88.7	826.229
1398.01	88.6	920.972
1398.11	88.5	1043.1
1398.21	88.4	1229.2
1398.31	88.3	1498.53
1398.41	88.2	1884.86
1398.51	88.1	2398.2
1398.61	88	3002.7
1398.71	87.9	3676.39
1398.81	87.8	4280.55
1398.91	87.7	4632.48
1399.01	87.6	4693.13
1399.11	87.5	4386.53
1399.21	87.4	3809.33
1399.31	87.3	3123.58
1399.41	87.2	2456.1
1399.51	87.1	1925.73
1399.61	87	1480.74
1399.71	86.9	1193.36
1399.81	86.8	982.268
1399.91	86.7	822.332
1400.01	86.6	731.012
1400.11	86.5	668.973
1400.21	86.4	609.273
1400.31	86.3	578.142
1400.41	86.2	563.099
1400.51	86.1	545.573
1400.61	86	529.544
1400.71	85.9	526.754
1400.81	85.8	532.697
1400.91	85.7	533.254
1401.01	85.6	542.747
1401.11	85.5	563.268
1401.21	85.4	598.991
1401.31	85.3	625.006
1401.41	85.2	672.428
1401.51	85.1	725.892
1401.61	85	811.856
1401.71	84.9	925.931
1401.81	84.8	1096.82
1401.91	84.7	1377.37
1402.01	84.6	1747.3
1402.11	84.5	2279.27
1402.21	84.4	2974.77
1402.31	84.3	3823.39
1402.41	84.2	4716.1
1402.51	84.1	5440.55
1402.61	84	5855.41
1402.71	83.9	5779.47
1402.81	83.8	5290.59
1402.91	83.7	4501.99
1403.01	83.6	3566.34
1403.11	83.5	2662.3
1403.21	83.4	1999.5
1403.31	83.3	1468.15
1403.41	83.2	1098
1403.51	83.1	838.853
1403.61	83	671.379
1403.71	82.9	563.101
1403.81	82.8	474.922
1403.91	82.7	426.687
1404.01	82.6	387.329
1404.11	82.5	352.919
1404.21	82.4	337.354
1404.31	82.3	322.199
1404.41	82.2	312.955
1404.51	82.1	296.455
1404.61	82	287.786
1404.71	81.9	273.563
1404.81	81.8	276.074
1404.91	81.7	258.915
1405.01	81.6	260.934
1405.11	81.5	250.73
1405.21	81.4	247.308
1405.31	81.3	241.127
1405.41	81.2	244.924
1405.51	81.1	233.548
1405.61	81	228.396
1405.71	80.9	228.657
1405.81	80.8	228.485
1405.91	80.7	224.012
1406.01	80.6	222.922
1406.11	80.5	219.73
1406.21	80.4	215.026
1406.31	80.3	216.669
1406.41	80.2	216.552
1406.51	80.1	221.258
1406.61	80	213.403
1406.71	79.9	212.807
1406.81	79.8	207.391
1406.91	79.7	212.467
1407.01	79.6	204.294
1407.11	79.5	210.225
1407.21	79.4	205.03
1407.31	79.3	211.069
1407.41	79.2	205.295
1407.51	79.1	201.421
1407.61	79	201.47
1407.71	78.9	195.968
1407.81	78.8	204.969
1407.91	78.7	200.284
1408.01	78.6	204.803
1408.11	78.5	200.748
1408.21	78.4	204.442
1408.31	78.3	200.874
1408.41	78.2	208.487
1408.51	78.1	206.401
1408.61	78	202.07
1408.71	77.9	204.812
1408.81	77.8	203.069
1408.91	77.7	195.606
1409.01	77.6	200.914
1409.11	77.5	203.285
1409.21	77.4	203.775
1409.31	77.3	195.729
1409.41	77.2	197.441
1409.51	77.1	206.183
1409.61	77	198.839
1409.71	76.9	206.209
1409.81	76.8	204.316
1409.91	76.7	200.236
1410.01	76.6	207.105
1410.11	76.5	200.963
1410.21	76.4	203.189
1410.31	76.3	199.964
1410.41	76.2	200.994
1410.51	76.1	208.714
1410.61	76	208.134
1410.71	75.9	203.592
1410.81	75.8	203.651
1410.91	75.7	205.442
1411.01	75.6	208.391
1411.11	75.5	208.29
1411.21	75.4	202.993
1411.31	75.3	207.702
1411.41	75.2	201.876
1411.51	75.1	205.88
1411.61	75	210.645