CasaXP2
Au4f
	Characteristic Energy eV	1486.61	Acquisition Time s	0.3
KE_Au4f	BE_Au4f	CPS_Au4f
1311.61	175	11650.7
1311.71	174.9	11651.4
1311.81	174.8	11666.5
1311.91	174.7	11535.4
1312.01	174.6	11574.2
1312.11	174.5	11595.5
1312.21	174.4	11533.6
1312.31	174.3	11528.5
1312.41	174.2	11592.3
1312.51	174.1	11614.3
1312.61	174	11570.1
1312.71	173.9	11509.3
1312.81	173.8	11619.7
1312.91	173.7	11711.8
1313.01	173.6	11707.2
1313.11	173.5	11726.9
1313.21	173.4	11727
1313.31	173.3	11678.8
1313.41	173.2	11720.2
1313.51	173.1	11675.9
1313.61	173	11603.8
1313.71	172.9	11682
1313.81	172.8	11629.2
1313.91	172.7	11636.9
1314.01	172.6	11772.7
1314.11	172.5	11771.3
1314.21	172.4	11750.3
1314.31	172.3	11667.7
1314.41	172.2	11708
1314.51	172.1	11818.8
1314.61	172	11710.5
1314.71	171.9	11678.2
1314.81	171.8	11715.9
1314.91	171.7	11728.7
1315.01	171.6	11692.2
1315.11	171.5	11662.4
1315.21	171.4	11758.4
1315.31	171.3	11756.5
1315.41	171.2	11651.6
1315.51	171.1	11693.4
1315.61	171	11806.9
1315.71	170.9	11793.5
1315.81	170.8	11789.2
1315.91	170.7	11763.9
1316.01	170.6	11773.8
1316.11	170.5	11796.1
1316.21	170.4	11736.4
1316.31	170.3	11782.4
1316.41	170.2	11771.5
1316.51	170.1	11765.9
1316.61	170	11712.8
1316.71	169.9	11651.3
1316.81	169.8	11743.6
1316.91	169.7	11760.1
1317.01	169.6	11737.1
1317.11	169.5	11823.7
1317.21	169.4	11811
1317.31	169.3	11789.9
1317.41	169.2	11881
1317.51	169.1	11809.1
1317.61	169	11819.6
1317.71	168.9	11863.7
1317.81	168.8	11744
1317.91	168.7	11771
1318.01	168.6	11688.2
1318.11	168.5	11770.8
1318.21	168.4	11722.5
1318.31	168.3	11828.8
1318.41	168.2	11779.8
1318.51	168.1	11902.1
1318.61	168	11880.4
1318.71	167.9	11833.2
1318.81	167.8	11897.9
1318.91	167.7	11904.2
1319.01	167.6	11809.3
1319.11	167.5	11790.3
1319.21	167.4	11787.7
1319.31	167.3	11826.8
1319.41	167.2	11846.5
1319.51	167.1	11863.4
1319.61	167	11925.1
1319.71	166.9	11886.5
1319.81	166.8	11843
1319.91	166.7	11835.2
1320.01	166.6	11795.2
1320.11	166.5	11883.5
1320.21	166.4	11912.7
1320.31	166.3	11855.6
1320.41	166.2	11758.2
1320.51	166.1	11901.7
1320.61	166	11850.5
1320.71	165.9	11901.4
1320.81	165.8	11887.3
1320.91	165.7	11905.3
1321.01	165.6	11962.7
1321.11	165.5	11943.8
1321.21	165.4	11970.5
1321.31	165.3	11940.3
1321.41	165.2	11993.7
1321.51	165.1	11947.8
1321.61	165	11883.7
1321.71	164.9	11883.3
1321.81	164.8	11998.8
1321.91	164.7	11989.2
1322.01	164.6	11924.9
1322.11	164.5	11904.2
1322.21	164.4	11990.6
1322.31	164.3	12018
1322.41	164.2	11964.3
1322.51	164.1	12011.8
1322.61	164	11933
1322.71	163.9	11958.7
1322.81	163.8	12037.5
1322.91	163.7	11929.8
1323.01	163.6	11917.7
1323.11	163.5	12015.4
1323.21	163.4	12012.5
1323.31	163.3	12010.2
1323.41	163.2	12012.9
1323.51	163.1	12061.8
1323.61	163	12029.3
1323.71	162.9	12034.6
1323.81	162.8	12112.6
1323.91	162.7	11998.7
1324.01	162.6	12006.6
1324.11	162.5	12013.2
1324.21	162.4	12140
1324.31	162.3	12070.2
1324.41	162.2	12011.1
1324.51	162.1	12039.5
1324.61	162	12053.7
1324.71	161.9	12086.3
1324.81	161.8	12026.6
1324.91	161.7	12053.8
1325.01	161.6	11978.5
1325.11	161.5	11985.6
1325.21	161.4	12095.6
1325.31	161.3	12053.3
1325.41	161.2	12107.6
1325.51	161.1	12182.8
1325.61	161	12149.6
1325.71	160.9	12077.2
1325.81	160.8	12173.4
1325.91	160.7	12243.9
1326.01	160.6	12098.4
1326.11	160.5	12033.7
1326.21	160.4	12129.8
1326.31	160.3	12136
1326.41	160.2	12099
1326.51	160.1	12045.6
1326.61	160	12129.4
1326.71	159.9	12168.1
1326.81	159.8	12153.3
1326.91	159.7	12178.4
1327.01	159.6	12201.2
1327.11	159.5	12152.6
1327.21	159.4	12065.7
1327.31	159.3	12081.6
1327.41	159.2	12121.3
1327.51	159.1	12169.4
1327.61	159	12240.2
1327.71	158.9	12224
1327.81	158.8	12178
1327.91	158.7	12178.7
1328.01	158.6	12321.2
1328.11	158.5	12281.6
1328.21	158.4	12242.4
1328.31	158.3	12162.7
1328.41	158.2	12260.4
1328.51	158.1	12282.8
1328.61	158	12229.1
1328.71	157.9	12323.3
1328.81	157.8	12297
1328.91	157.7	12300.2
1329.01	157.6	12214.2
1329.11	157.5	12292.3
1329.21	157.4	12348.9
1329.31	157.3	12344.7
1329.41	157.2	12425
1329.51	157.1	12362.6
1329.61	157	12337.4
1329.71	156.9	12303.2
1329.81	156.8	12274.1
1329.91	156.7	12235.4
1330.01	156.6	12233.7
1330.11	156.5	12285.7
1330.21	156.4	12314.6
1330.31	156.3	12317
1330.41	156.2	12311.9
1330.51	156.1	12386.5
1330.61	156	12426.6
1330.71	155.9	12466.6
1330.81	155.8	12399.4
1330.91	155.7	12452.1
1331.01	155.6	12413.5
1331.11	155.5	12429.9
1331.21	155.4	12439.4
1331.31	155.3	12473.5
1331.41	155.2	12454.1
1331.51	155.1	12438.9
1331.61	155	12473.4
1331.71	154.9	12402.5
1331.81	154.8	12348.2
1331.91	154.7	12344.2
1332.01	154.6	12444.9
1332.11	154.5	12442.3
1332.21	154.4	12386.1
1332.31	154.3	12346.3
1332.41	154.2	12431.3
1332.51	154.1	12492.9
1332.61	154	12442.3
1332.71	153.9	12433.2
1332.81	153.8	12465
1332.91	153.7	12533.6
1333.01	153.6	12516.2
1333.11	153.5	12551.2
1333.21	153.4	12587.1
1333.31	153.3	12556.8
1333.41	153.2	12535.5
1333.51	153.1	12606.6
1333.61	153	12566.6
1333.71	152.9	12551.1
1333.81	152.8	12570.5
1333.91	152.7	12589.3
1334.01	152.6	12570.6
1334.11	152.5	12602.2
1334.21	152.4	12541.4
1334.31	152.3	12542
1334.41	152.2	12622.7
1334.51	152.1	12638.4
1334.61	152	12697.3
1334.71	151.9	12642.1
1334.81	151.8	12656.8
1334.91	151.7	12620
1335.01	151.6	12616.9
1335.11	151.5	12588.8
1335.21	151.4	12679.5
1335.31	151.3	12610.2
1335.41	151.2	12706.3
1335.51	151.1	12708.5
1335.61	151	12601.8
1335.71	150.9	12560
1335.81	150.8	12642.9
1335.91	150.7	12700.8
1336.01	150.6	12697.2
1336.11	150.5	12642.2
1336.21	150.4	12629.3
1336.31	150.3	12721
1336.41	150.2	12777.6
1336.51	150.1	12837.2
1336.61	150	12817.9
1336.71	149.9	12816.1
1336.81	149.8	12838.1
1336.91	149.7	12768.1
1337.01	149.6	12708.4
1337.11	149.5	12807.5
1337.21	149.4	12711.8
1337.31	149.3	12783
1337.41	149.2	12715.2
1337.51	149.1	12707.6
1337.61	149	12655.3
1337.71	148.9	12659.1
1337.81	148.8	12781.7
1337.91	148.7	12702.8
1338.01	148.6	12782.9
1338.11	148.5	12805
1338.21	148.4	12811.3
1338.31	148.3	12826.8
1338.41	148.2	12711.6
1338.51	148.1	12779.7
1338.61	148	12842
1338.71	147.9	12768.9
1338.81	147.8	12928.8
1338.91	147.7	12859.8
1339.01	147.6	12849.6
1339.11	147.5	12825.7
1339.21	147.4	12766.4
1339.31	147.3	12678.8
1339.41	147.2	12728.1
1339.51	147.1	12762.9
1339.61	147	12841.3
1339.71	146.9	12876.4
1339.81	146.8	12856.4
1339.91	146.7	12764.8
1340.01	146.6	12735.1
1340.11	146.5	12812
1340.21	146.4	12830.1
1340.31	146.3	12830.2
1340.41	146.2	12841.9
1340.51	146.1	12872.2
1340.61	146	12859.6
1340.71	145.9	12787.8
1340.81	145.8	12835
1340.91	145.7	12876.9
1341.01	145.6	12961.1
1341.11	145.5	12927.9
1341.21	145.4	12781.7
1341.31	145.3	12854.1
1341.41	145.2	12788
1341.51	145.1	12873.8
1341.61	145	12881.1
1341.71	144.9	12931.3
1341.81	144.8	12831
1341.91	144.7	12858.1
1342.01	144.6	12907.8
1342.11	144.5	12954.1
1342.21	144.4	12859.7
1342.31	144.3	12787.6
1342.41	144.2	12861.8
1342.51	144.1	12864
1342.61	144	12904.4
1342.71	143.9	12928.2
1342.81	143.8	12892.6
1342.91	143.7	12925.8
1343.01	143.6	12848.4
1343.11	143.5	12865.3
1343.21	143.4	12864
1343.31	143.3	12947.2
1343.41	143.2	12930.7
1343.51	143.1	12956.9
1343.61	143	12878.9
1343.71	142.9	12831.2
1343.81	142.8	12895
1343.91	142.7	12894.3
1344.01	142.6	12952.8
1344.11	142.5	13030.9
1344.21	142.4	13001.9
1344.31	142.3	13015.5
1344.41	142.2	12988.8
1344.51	142.1	12958.6
1344.61	142	13024.4
1344.71	141.9	13057
1344.81	141.8	13042.7
1344.91	141.7	13001.3
1345.01	141.6	13027.8
1345.11	141.5	13081.6
1345.21	141.4	13161.9
1345.31	141.3	13097
1345.41	141.2	13022.2
1345.51	141.1	13030.3
1345.61	141	12971.6
1345.71	140.9	12981.4
1345.81	140.8	13098.2
1345.91	140.7	12999.9
1346.01	140.6	13026.6
1346.11	140.5	13047.3
1346.21	140.4	13106.1
1346.31	140.3	13046.3
1346.41	140.2	13053.9
1346.51	140.1	12901.2
1346.61	140	12990.6
1346.71	139.9	13080.8
1346.81	139.8	13118.8
1346.91	139.7	13066.7
1347.01	139.6	13159.8
1347.11	139.5	13135.5
1347.21	139.4	13112.7
1347.31	139.3	13167.8
1347.41	139.2	13088.8
1347.51	139.1	13064.2
1347.61	139	13051.4
1347.71	138.9	13040.8
1347.81	138.8	13046.5
1347.91	138.7	13043.8
1348.01	138.6	13090.7
1348.11	138.5	13171.2
1348.21	138.4	13166.9
1348.31	138.3	13188.1
1348.41	138.2	13133.4
1348.51	138.1	13118.7
1348.61	138	13235.4
1348.71	137.9	13291.3
1348.81	137.8	13293.3
1348.91	137.7	13247.9
1349.01	137.6	13262.5
1349.11	137.5	13286.9
1349.21	137.4	13204.6
1349.31	137.3	13245
1349.41	137.2	13297.5
1349.51	137.1	13422.7
1349.61	137	13248.3
1349.71	136.9	13257.9
1349.81	136.8	13193
1349.91	136.7	13179.9
1350.01	136.6	13131.2
1350.11	136.5	13188.4
1350.21	136.4	13283.7
1350.31	136.3	13288.8
1350.41	136.2	13237.8
1350.51	136.1	13269.2
1350.61	136	13230.7
1350.71	135.9	13307.3
1350.81	135.8	13260.5
1350.91	135.7	13324
1351.01	135.6	13401.6
1351.11	135.5	13407.4
1351.21	135.4	13401.7
1351.31	135.3	13297.2
1351.41	135.2	13307.9
1351.51	135.1	13340.2
1351.61	135	13316.9
1351.71	134.9	13361.9
1351.81	134.8	13428.1
1351.91	134.7	13392.5
1352.01	134.6	13378.6
1352.11	134.5	13421.8
1352.21	134.4	13446.3
1352.31	134.3	13508.5
1352.41	134.2	13584.5
1352.51	134.1	13454.5
1352.61	134	13481
1352.71	133.9	13362.9
1352.81	133.8	13379.3
1352.91	133.7	13365.3
1353.01	133.6	13464.7
1353.11	133.5	13319.8
1353.21	133.4	13458.1
1353.31	133.3	13342.3
1353.41	133.2	13369.5
1353.51	133.1	13545.3
1353.61	133	13504
1353.71	132.9	13507.6
1353.81	132.8	13605.5
1353.91	132.7	13595.9
1354.01	132.6	13593.1
1354.11	132.5	13552.8
1354.21	132.4	13553.2
1354.31	132.3	13520.9
1354.41	132.2	13582.2
1354.51	132.1	13558
1354.61	132	13579.6
1354.71	131.9	13547.3
1354.81	131.8	13584.6
1354.91	131.7	13730.8
1355.01	131.6	13661.3
1355.11	131.5	13676.1
1355.21	131.4	13595.9
1355.31	131.3	13627
1355.41	131.2	13690.7
1355.51	131.1	13659.3
1355.61	131	13558.9
1355.71	130.9	13663.2
1355.81	130.8	13756.6
1355.91	130.7	13648.9
1356.01	130.6	13563.3
1356.11	130.5	13615.1
1356.21	130.4	13598.8
1356.31	130.3	13533.9
1356.41	130.2	13615.2
1356.51	130.1	13699.7
1356.61	130	13794.5
1356.71	129.9	13801.2
1356.81	129.8	13685.6
1356.91	129.7	13735.7
1357.01	129.6	13815.4
1357.11	129.5	13720.2
1357.21	129.4	13765.1
1357.31	129.3	13806.7
1357.41	129.2	13775.7
1357.51	129.1	13879.1
1357.61	129	13895.9
1357.71	128.9	13835.2
1357.81	128.8	13836.4
1357.91	128.7	13825.2
1358.01	128.6	13728.1
1358.11	128.5	13782.8
1358.21	128.4	13838.8
1358.31	128.3	13857.4
1358.41	128.2	13928.2
1358.51	128.1	13879.8
1358.61	128	13836
1358.71	127.9	13879.8
1358.81	127.8	13850.1
1358.91	127.7	13897.1
1359.01	127.6	14004.3
1359.11	127.5	14028
1359.21	127.4	14033.9
1359.31	127.3	13997
1359.41	127.2	13951.5
1359.51	127.1	13958.6
1359.61	127	14012.5
1359.71	126.9	13981.2
1359.81	126.8	13920.3
1359.91	126.7	14019.1
1360.01	126.6	14085.3
1360.11	126.5	14037.2
1360.21	126.4	13974.8
1360.31	126.3	14040.9
1360.41	126.2	14157.3
1360.51	126.1	14135.9
1360.61	126	14087.6
1360.71	125.9	14163.2
1360.81	125.8	14181.9
1360.91	125.7	14198.6
1361.01	125.6	14128.9
1361.11	125.5	14145.7
1361.21	125.4	14159.3
1361.31	125.3	14101.3
1361.41	125.2	14254.5
1361.51	125.1	14200.5
1361.61	125	14248.2
1361.71	124.9	14298.2
1361.81	124.8	14320
1361.91	124.7	14328.8
1362.01	124.6	14299.1
1362.11	124.5	14348
1362.21	124.4	14343.5
1362.31	124.3	14392.7
1362.41	124.2	14345
1362.51	124.1	14399.6
1362.61	124	14399
1362.71	123.9	14342.8
1362.81	123.8	14292.1
1362.91	123.7	14397.2
1363.01	123.6	14403.1
1363.11	123.5	14487.3
1363.21	123.4	14474.6
1363.31	123.3	14492.8
1363.41	123.2	14641.9
1363.51	123.1	14603.1
1363.61	123	14571.9
1363.71	122.9	14464.1
1363.81	122.8	14428
1363.91	122.7	14670
1364.01	122.6	14809.1
1364.11	122.5	14780.4
1364.21	122.4	14722.6
1364.31	122.3	14726.8
1364.41	122.2	14853.7
1364.51	122.1	14766.7
1364.61	122	14829.3
1364.71	121.9	14895.5
1364.81	121.8	14795.2
1364.91	121.7	14817.7
1365.01	121.6	14859.1
1365.11	121.5	14889.9
1365.21	121.4	14913.6
1365.31	121.3	14929
1365.41	121.2	14848.5
1365.51	121.1	14878.7
1365.61	121	14863.6
1365.71	120.9	14940.8
1365.81	120.8	14969.3
1365.91	120.7	15033.7
1366.01	120.6	15075.4
1366.11	120.5	15034.4
1366.21	120.4	15077.3
1366.31	120.3	15010.4
1366.41	120.2	15050.7
1366.51	120.1	15157.2
1366.61	120	15039.7
1366.71	119.9	15102
1366.81	119.8	15107.8
1366.91	119.7	14975.1
1367.01	119.6	14963.1
1367.11	119.5	15119.6
1367.21	119.4	15105.1
1367.31	119.3	15160.7
1367.41	119.2	15201.2
1367.51	119.1	15168.7
1367.61	119	15094.9
1367.71	118.9	15053.5
1367.81	118.8	15110.5
1367.91	118.7	15173.4
1368.01	118.6	15164.1
1368.11	118.5	15136.2
1368.21	118.4	15158.5
1368.31	118.3	15162.2
1368.41	118.2	15226.8
1368.51	118.1	15242
1368.61	118	15191.7
1368.71	117.9	15238.3
1368.81	117.8	15195.1
1368.91	117.7	15353.9
1369.01	117.6	15260.6
1369.11	117.5	15168.3
1369.21	117.4	15159.9
1369.31	117.3	15196
1369.41	117.2	15333.6
1369.51	117.1	15341.5
1369.61	117	15301.4
1369.71	116.9	15328.8
1369.81	116.8	15315.8
1369.91	116.7	15224.7
1370.01	116.6	15286.2
1370.11	116.5	15430.8
1370.21	116.4	15370.4
1370.31	116.3	15307.6
1370.41	116.2	15296
1370.51	116.1	15363.8
1370.61	116	15411.3
1370.71	115.9	15307.7
1370.81	115.8	15363.8
1370.91	115.7	15283.6
1371.01	115.6	15471.4
1371.11	115.5	15427.1
1371.21	115.4	15372.3
1371.31	115.3	15341.3
1371.41	115.2	15457.3
1371.51	115.1	15469.2
1371.61	115	15356.1
1371.71	114.9	15421.8
1371.81	114.8	15630.4
1371.91	114.7	15582.6
1372.01	114.6	15591.3
1372.11	114.5	15585.9
1372.21	114.4	15488.5
1372.31	114.3	15578.2
1372.41	114.2	15539.4
1372.51	114.1	15627
1372.61	114	15576.8
1372.71	113.9	15550.5
1372.81	113.8	15520.5
1372.91	113.7	15654.3
1373.01	113.6	15575.9
1373.11	113.5	15735
1373.21	113.4	15812.1
1373.31	113.3	15834.5
1373.41	113.2	15871.9
1373.51	113.1	15748.1
1373.61	113	15783.4
1373.71	112.9	15795
1373.81	112.8	15801.8
1373.91	112.7	15810.6
1374.01	112.6	15712.5
1374.11	112.5	15731.3
1374.21	112.4	15813.9
1374.31	112.3	15940.6
1374.41	112.2	15837.4
1374.51	112.1	15843.7
1374.61	112	15981.1
1374.71	111.9	16026.3
1374.81	111.8	16036.4
1374.91	111.7	16002.3
1375.01	111.6	15929.9
1375.11	111.5	15942.1
1375.21	111.4	15985.6
1375.31	111.3	15959.2
1375.41	111.2	16008.6
1375.51	111.1	16086.2
1375.61	111	16075.6
1375.71	110.9	16041.2
1375.81	110.8	16024.8
1375.91	110.7	16031.1
1376.01	110.6	16100.4
1376.11	110.5	16065.4
1376.21	110.4	16015.3
1376.31	110.3	15960.6
1376.41	110.2	15884.8
1376.51	110.1	15989.1
1376.61	110	15910.1
1376.71	109.9	16051.2
1376.81	109.8	16002.3
1376.91	109.7	15900.2
1377.01	109.6	15834
1377.11	109.5	15943.1
1377.21	109.4	15910
1377.31	109.3	15916.6
1377.41	109.2	15904.9
1377.51	109.1	16030.3
1377.61	109	16057.5
1377.71	108.9	15942
1377.81	108.8	16064
1377.91	108.7	15843.8
1378.01	108.6	15728.4
1378.11	108.5	15721
1378.21	108.4	15736.5
1378.31	108.3	15583.4
1378.41	108.2	15493.3
1378.51	108.1	15395.5
1378.61	108	15458.1
1378.71	107.9	15418.3
1378.81	107.8	15326.1
1378.91	107.7	15191.3
1379.01	107.6	15214.1
1379.11	107.5	15240.6
1379.21	107.4	15185.8
1379.31	107.3	15079.4
1379.41	107.2	15077.4
1379.51	107.1	15139.1
1379.61	107	15191
1379.71	106.9	15099.9
1379.81	106.8	15011.1
1379.91	106.7	14892.6
1380.01	106.6	14849
1380.11	106.5	14775.7
1380.21	106.4	14727.6
1380.31	106.3	14631.2
1380.41	106.2	14653.9
1380.51	106.1	14681.9
1380.61	106	14602
1380.71	105.9	14479.1
1380.81	105.8	14536
1380.91	105.7	14646.9
1381.01	105.6	14696
1381.11	105.5	14758.1
1381.21	105.4	14834.1
1381.31	105.3	14819.6
1381.41	105.2	14782.5
1381.51	105.1	14790.7
1381.61	105	14746.5
1381.71	104.9	14652.8
1381.81	104.8	14607.8
1381.91	104.7	14502.2
1382.01	104.6	14554.2
1382.11	104.5	14463.6
1382.21	104.4	14462.2
1382.31	104.3	14415.6
1382.41	104.2	14309.2
1382.51	104.1	14246.5
1382.61	104	14426.8
1382.71	103.9	14454.2
1382.81	103.8	14377.5
1382.91	103.7	14474.1
1383.01	103.6	14541.4
1383.11	103.5	14388.5
1383.21	103.4	14430.8
1383.31	103.3	14462.4
1383.41	103.2	14462.2
1383.51	103.1	14395.5
1383.61	103	14491
1383.71	102.9	14576.9
1383.81	102.8	14593.2
1383.91	102.7	14671.3
1384.01	102.6	14618.1
1384.11	102.5	14495.7
1384.21	102.4	14533.7
1384.31	102.3	14584.6
1384.41	102.2	14567.2
1384.51	102.1	14556.3
1384.61	102	14535.2
1384.71	101.9	14597.1
1384.81	101.8	14638.8
1384.91	101.7	14730.4
1385.01	101.6	14752.7
1385.11	101.5	14762.7
1385.21	101.4	14618.9
1385.31	101.3	14676.1
1385.41	101.2	14756.5
1385.51	101.1	14800.7
1385.61	101	14842
1385.71	100.9	14797.5
1385.81	100.8	14948.3
1385.91	100.7	14968
1386.01	100.6	15033.3
1386.11	100.5	15010.9
1386.21	100.4	14924.1
1386.31	100.3	14875
1386.41	100.2	14984.6
1386.51	100.1	15075.9
1386.61	100	15120.5
1386.71	99.9	15114.1
1386.81	99.8	15151.6
1386.91	99.7	15246.3
1387.01	99.6	15204.6
1387.11	99.5	15131.9
1387.21	99.4	15247.8
1387.31	99.3	15400.8
1387.41	99.2	15306.2
1387.51	99.1	15347.7
1387.61	99	15292.1
1387.71	98.9	15330.9
1387.81	98.8	15447.1
1387.91	98.7	15411.2
1388.01	98.6	15465.6
1388.11	98.5	15447.4
1388.21	98.4	15347.8
1388.31	98.3	15490.1
1388.41	98.2	15588.9
1388.51	98.1	15491.9
1388.61	98	15470.1
1388.71	97.9	15306
1388.81	97.8	15300.6
1388.91	97.7	15381.4
1389.01	97.6	15413.3
1389.11	97.5	15406.4
1389.21	97.4	15239.5
1389.31	97.3	15372.1
1389.41	97.2	15574
1389.51	97.1	15373.6
1389.61	97	15375
1389.71	96.9	15276.8
1389.81	96.8	15202.9
1389.91	96.7	15076.8
1390.01	96.6	14988.3
1390.11	96.5	14940.4
1390.21	96.4	14966.6
1390.31	96.3	14950.1
1390.41	96.2	14930.3
1390.51	96.1	14913.7
1390.61	96	14904.9
1390.71	95.9	14920.6
1390.81	95.8	15090.9
1390.91	95.7	15068.2
1391.01	95.6	15057.2
1391.11	95.5	15154.3
1391.21	95.4	15154.1
1391.31	95.3	15108.8
1391.41	95.2	15179.6
1391.51	95.1	15272.3
1391.61	95	15301.9
1391.71	94.9	15383.6
1391.81	94.8	15471.7
1391.91	94.7	15551.2
1392.01	94.6	15477.7
1392.11	94.5	15559
1392.21	94.4	15659.2
1392.31	94.3	15588.4
1392.41	94.2	15661.4
1392.51	94.1	15713.8
1392.61	94	15766.8
1392.71	93.9	15729.2
1392.81	93.8	15669
1392.91	93.7	15721.5
1393.01	93.6	15734.3
1393.11	93.5	15694.3
1393.21	93.4	15544.5
1393.31	93.3	15569.5
1393.41	93.2	15547.2
1393.51	93.1	15532.9
1393.61	93	15398.4
1393.71	92.9	15264.1
1393.81	92.8	15124.3
1393.91	92.7	15065.1
1394.01	92.6	14970.9
1394.11	92.5	14878
1394.21	92.4	14891.6
1394.31	92.3	15004.4
1394.41	92.2	14995.4
1394.51	92.1	14954
1394.61	92	14932
1394.71	91.9	15074.5
1394.81	91.8	15086.3
1394.91	91.7	15263
1395.01	91.6	15347.9
1395.11	91.5	15454.4
1395.21	91.4	15618.6
1395.31	91.3	15738.1
1395.41	91.2	15851.8
1395.51	91.1	16030.2
1395.61	91	16272.1
1395.71	90.9	16383
1395.81	90.8	16635.7
1395.91	90.7	16629.3
1396.01	90.6	16629.7
1396.11	90.5	16797.9
1396.21	90.4	17036.9
1396.31	90.3	17020.2
1396.41	90.2	17012.6
1396.51	90.1	16930.8
1396.61	90	17039.9
1396.71	89.9	17096.3
1396.81	89.8	17179
1396.91	89.7	17220.5
1397.01	89.6	17432.7
1397.11	89.5	17744.2
1397.21	89.4	18130.6
1397.31	89.3	18642
1397.41	89.2	19366.7
1397.51	89.1	20325.6
1397.61	89	21496.9
1397.71	88.9	22914.6
1397.81	88.8	24681.6
1397.91	88.7	27210.9
1398.01	88.6	30823.5
1398.11	88.5	35757.4
1398.21	88.4	42887.2
1398.31	88.3	53310.4
1398.41	88.2	68191.5
1398.51	88.1	87731.4
1398.61	88	111382
1398.71	87.9	136935
1398.81	87.8	160071
1398.91	87.7	174809
1399.01	87.6	177053
1399.11	87.5	167407
1399.21	87.4	146867
1399.31	87.3	121228
1399.41	87.2	95804.5
1399.51	87.1	74062.7
1399.61	87	56882.5
1399.71	86.9	44238.3
1399.81	86.8	35246.2
1399.91	86.7	29034.8
1400.01	86.6	24570.5
1400.11	86.5	21689.7
1400.21	86.4	19891.8
1400.31	86.3	18379.2
1400.41	86.2	17395.1
1400.51	86.1	16573.2
1400.61	86	16266.6
1400.71	85.9	16054.1
1400.81	85.8	15926.4
1400.91	85.7	16239.5
1401.01	85.6	16567.9
1401.11	85.5	17327.6
1401.21	85.4	18246.3
1401.31	85.3	19468.8
1401.41	85.2	21120.4
1401.51	85.1	23464.3
1401.61	85	26738.8
1401.71	84.9	31435.1
1401.81	84.8	38105.8
1401.91	84.7	48165.2
1402.01	84.6	62763.9
1402.11	84.5	83108.1
1402.21	84.4	110064
1402.31	84.3	142266
1402.41	84.2	175781
1402.51	84.1	204439
1402.61	84	220486
1402.71	83.9	219574
1402.81	83.8	202126
1402.91	83.7	173003
1403.01	83.6	138369
1403.11	83.5	105381
1403.21	83.4	77778.5
1403.31	83.3	56861
1403.41	83.2	41684.8
1403.51	83.1	30718.9
1403.61	83	23266.5
1403.71	82.9	18360.9
1403.81	82.8	15005.2
1403.91	82.7	12641.4
1404.01	82.6	10946.3
1404.11	82.5	9824.17
1404.21	82.4	8867.86
1404.31	82.3	8229.23
1404.41	82.2	7621.49
1404.51	82.1	7158.65
1404.61	82	6601.11
1404.71	81.9	6281.31
1404.81	81.8	6013.89
1404.91	81.7	5817.22
1405.01	81.6	5524.27
1405.11	81.5	5312.15
1405.21	81.4	5143.69
1405.31	81.3	4992.49
1405.41	81.2	4858.89
1405.51	81.1	4764.53
1405.61	81	4627.47
1405.71	80.9	4548.72
1405.81	80.8	4422.93
1405.91	80.7	4300.46
1406.01	80.6	4207.81
1406.11	80.5	4060.32
1406.21	80.4	4013.47
1406.31	80.3	4018.2
1406.41	80.2	3956.5
1406.51	80.1	3847.25
1406.61	80	3851.72
1406.71	79.9	3784.77
1406.81	79.8	3678.36
1406.91	79.7	3678.29
1407.01	79.6	3713.79
1407.11	79.5	3635.49
1407.21	79.4	3571.7
1407.31	79.3	3539.91
1407.41	79.2	3542.59
1407.51	79.1	3546.92
1407.61	79	3538.72
1407.71	78.9	3519.83
1407.81	78.8	3567.17
1407.91	78.7	3494.5
1408.01	78.6	3467.09
1408.11	78.5	3484.66
1408.21	78.4	3469.02
1408.31	78.3	3488.77
1408.41	78.2	3482.56
1408.51	78.1	3442.01
1408.61	78	3447.14
1408.71	77.9	3405.32
1408.81	77.8	3409.14
1408.91	77.7	3488.85
1409.01	77.6	3444.38
1409.11	77.5	3437.91
1409.21	77.4	3376.67
1409.31	77.3	3421.02
1409.41	77.2	3401.24
1409.51	77.1	3369.32
1409.61	77	3390.44
1409.71	76.9	3429.08
1409.81	76.8	3483.08
1409.91	76.7	3486.38
1410.01	76.6	3516.64
1410.11	76.5	3456.62
1410.21	76.4	3506.23
1410.31	76.3	3502.26
1410.41	76.2	3590.6
1410.51	76.1	3578.04
1410.61	76	3579.32
1410.71	75.9	3576.64
1410.81	75.8	3601.7
1410.91	75.7	3655.92
1411.01	75.6	3711.51
1411.11	75.5	3790.41
1411.21	75.4	3838.95
1411.31	75.3	3837.88
1411.41	75.2	3782.46
1411.51	75.1	3829.49
1411.61	75	3876.59