VAMAS Surface Chemical Analysis Standard Data Transfer Format 1988 May 4
Not Specified
Not Specified
Not Specified
Not Specified
9
Casa Info Follows CasaXPS Version 2.3.20rev1.2G
0
Created by SpecsLab Prodigy, Version 4.63.4-r87993 
SourceAnalyserAngle: 56.500000 d
CasaRowLabel:Au in vacuum
CasaRowLabel:Au in vacuum, short shirley
CasaRowLabel:Au in vacuum, long shirley
CasaRowLabel:Au in vacuum, short shirley, background subtr.
CasaRowLabel:Au in vacuum, long shirley, background subtr.
NORM
REGULAR
1
1
Exp Variable
d
0
0
0
0
5
Au4f
Au in vacuum
2020
3
8
7
22
34
0
14
Casa Info Follows
0
0
0
0
EX340_CEC356_effect of lens modes.sle
Group = Au in vacuum
First of group = 0
Analyzer lens = LargeArea:1.5kV
Analyzer slit = 4:7x20c\C:mesh
Scan mode = FixedAnalyzerTransmission
Kinetic energy start = 1311.61
Sum of 20 spectra in column containing 20 scans
C:\Users\pielsticker\Lukas\MPI-CEC\Projects\Gas phase background\inelasticscattering\data\N2\Au, Ag, Cu in N2.vms
XPS
1
Al
1486.61
0
0
0
54.5
180
FAT
20
1
4.156
0
0
0
0
0
Au4f

-1
kinetic energy
eV
1311.61
0.1
2
counts
d
Transmission
d
pulse counting
2
1
0
0
0
0
2
ESCAPE DEPTH TYPE
d
0
MFP Exponent
d
0
2002
259.839
17460
2.30555
2.3921
19490.5
2.3921
19696.1
2.39201
19545.9
2.39191
19546.8
2.39182
19671.3
2.39173
19640.1
2.39164
19592
2.39155
19658.5
2.39146
19837.5
2.39137
19785.1
2.39127
19689
2.39118
19770.4
2.39109
19912.4
2.391
19813.6
2.39091
19924.8
2.39082
20051.1
2.39073
20043.3
2.39063
19892
2.39054
19967.8
2.39045
19894.5
2.39036
19866.2
2.39027
20155.4
2.39018
19961.8
2.39009
19820.4
2.39
19964.9
2.3899
19871.8
2.38981
19868.8
2.38972
19930.1
2.38963
19882.3
2.38954
20041.4
2.38945
19821.9
2.38936
19908.4
2.38927
20153.2
2.38917
20024.9
2.38908
19995.5
2.38899
19913.7
2.3889
19897.8
2.38881
19880.1
2.38872
19771.3
2.38863
19960.6
2.38854
19997.1
2.38845
19974.1
2.38835
19827.4
2.38826
19826.9
2.38817
19913.6
2.38808
20047.6
2.38799
20200.6
2.3879
19995.5
2.38781
20009.4
2.38772
20303
2.38763
20043.7
2.38754
20195.2
2.38744
19972.5
2.38735
19989.3
2.38726
20011.9
2.38717
19946.7
2.38708
19920.4
2.38699
20100
2.3869
20103
2.38681
20087.9
2.38672
20031.5
2.38663
20070
2.38654
20036.6
2.38645
20019.6
2.38635
20051.7
2.38626
20029.6
2.38617
19944.4
2.38608
19678
2.38599
19948.2
2.3859
20143.6
2.38581
20194.3
2.38572
20184.5
2.38563
20013.6
2.38554
20293
2.38545
20286.6
2.38536
20047.9
2.38527
20011.8
2.38517
20258.1
2.38508
20167.3
2.38499
20431.7
2.3849
20208.9
2.38481
20137.6
2.38472
20093.4
2.38463
20239.9
2.38454
20256.8
2.38445
20161.2
2.38436
19877.8
2.38427
20019.7
2.38418
20340.1
2.38409
20221.8
2.384
20090.5
2.38391
20167.8
2.38382
20287.4
2.38372
20165.6
2.38363
20075
2.38354
20043.8
2.38345
20250.4
2.38336
20105.4
2.38327
20181.9
2.38318
20240.9
2.38309
20290.3
2.383
20019.8
2.38291
20010
2.38282
20383.7
2.38273
20306.2
2.38264
20299.6
2.38255
20218.8
2.38246
20391.9
2.38237
20415.2
2.38228
20329.1
2.38219
20531.8
2.3821
20324.6
2.38201
20206.2
2.38192
20369.6
2.38183
20528.4
2.38174
20386.6
2.38165
20468.4
2.38156
20666.1
2.38146
20524.2
2.38137
20683.1
2.38128
20527.3
2.38119
20645.3
2.3811
20457.2
2.38101
20559.4
2.38092
20636.2
2.38083
20700.5
2.38074
20627.1
2.38065
20715.6
2.38056
20792
2.38047
20656.4
2.38038
20621.1
2.38029
20771.3
2.3802
20748.3
2.38011
20496.1
2.38002
20606.7
2.37993
20697.1
2.37984
20856
2.37975
20551.9
2.37966
20731.8
2.37957
20949.8
2.37948
20788.6
2.37939
20729.8
2.3793
20515.7
2.37921
20492.7
2.37912
20609.8
2.37903
20449.1
2.37894
20368.1
2.37885
20587.8
2.37876
20638.2
2.37867
20475.4
2.37858
20573.9
2.37849
20593.3
2.3784
20563.2
2.37831
20482.5
2.37822
20556.8
2.37813
20620.7
2.37804
20593.5
2.37795
20760.2
2.37786
20765.8
2.37777
20526.6
2.37768
20451.7
2.37759
20505.6
2.3775
20591
2.37741
20728.2
2.37732
20687.3
2.37723
20529.3
2.37714
20604.1
2.37705
20765.5
2.37696
20784.9
2.37687
20953
2.37679
20874.5
2.3767
20642.3
2.37661
20596.4
2.37652
20630.8
2.37643
20778
2.37634
20895.3
2.37625
20883.7
2.37616
20799.1
2.37607
20852.4
2.37598
20898.2
2.37589
20670.3
2.3758
20871.6
2.37571
20850.2
2.37562
20848.4
2.37553
20878.8
2.37544
20774.7
2.37535
20778.6
2.37526
20741.6
2.37517
20943.2
2.37508
21036.1
2.37499
21068.6
2.3749
20991.4
2.37481
21048.8
2.37472
20857.3
2.37463
20932.3
2.37454
20930.3
2.37446
21132.5
2.37437
21160.9
2.37428
21009.8
2.37419
21027.4
2.3741
20866.4
2.37401
21035.2
2.37392
21051.9
2.37383
20869.1
2.37374
20993.4
2.37365
21122.9
2.37356
21290.8
2.37347
20931.7
2.37338
21030.9
2.37329
21269.4
2.3732
21085.2
2.37311
21149.2
2.37303
21183.1
2.37294
20969
2.37285
21143.2
2.37276
21189.7
2.37267
20974.6
2.37258
21200.6
2.37249
21387.1
2.3724
21231.8
2.37231
21278.9
2.37222
21283.1
2.37213
21040.6
2.37204
21195.5
2.37195
21202.5
2.37187
21287.3
2.37178
21397.7
2.37169
21271.3
2.3716
21163.8
2.37151
21216.5
2.37142
21288.6
2.37133
21174.2
2.37124
21281.5
2.37115
21235.4
2.37106
21615.1
2.37097
21606.9
2.37088
21434.2
2.3708
21460.2
2.37071
21370.5
2.37062
21386.2
2.37053
21251.1
2.37044
21275.2
2.37035
21452.8
2.37026
21341.8
2.37017
21247.7
2.37008
21183.9
2.36999
21309.6
2.36991
21455.1
2.36982
21562.9
2.36973
21602.2
2.36964
21343
2.36955
21270.1
2.36946
21324.6
2.36937
21623
2.36928
21532.2
2.36919
21599.5
2.36911
21735.1
2.36902
21579.1
2.36893
21537.5
2.36884
21578.3
2.36875
21574.1
2.36866
21582.9
2.36857
21489.8
2.36848
21698.5
2.36839
21611.4
2.36831
21526.8
2.36822
21745.4
2.36813
21588.6
2.36804
21419.7
2.36795
21517.9
2.36786
21582
2.36777
21569.5
2.36768
21633
2.3676
21578.4
2.36751
21752.3
2.36742
21719.9
2.36733
22062.3
2.36724
21689.8
2.36715
21752.5
2.36706
21839.1
2.36698
21807.5
2.36689
22055.3
2.3668
21899.9
2.36671
21770.2
2.36662
21893.4
2.36653
21817.9
2.36644
21750.9
2.36636
21883.1
2.36627
21682.5
2.36618
21797.6
2.36609
21645.6
2.366
21760.4
2.36591
21831.1
2.36582
21768.2
2.36574
21893.9
2.36565
21795.1
2.36556
21686.6
2.36547
21746.9
2.36538
22007.4
2.36529
21793.3
2.3652
21719.5
2.36512
21979.2
2.36503
21810.3
2.36494
22020.3
2.36485
22038.4
2.36476
22003.5
2.36467
21846.8
2.36459
21858.9
2.3645
21611.4
2.36441
21724.9
2.36432
21817.5
2.36423
21793.7
2.36414
21751.1
2.36406
21735.8
2.36397
21853.7
2.36388
21861
2.36379
21885.5
2.3637
21736.4
2.36361
21795.6
2.36353
21913.9
2.36344
21823.1
2.36335
21790.4
2.36326
21817.9
2.36317
22029.9
2.36309
22004.7
2.363
21947.5
2.36291
22046.7
2.36282
22004.1
2.36273
21895.9
2.36264
21857.5
2.36256
22153.1
2.36247
22142.8
2.36238
22024.5
2.36229
21835.9
2.3622
22085.5
2.36212
22066.4
2.36203
22096.1
2.36194
21836.3
2.36185
21944
2.36176
21850.2
2.36168
21980.8
2.36159
22124.4
2.3615
22274.7
2.36141
22262.4
2.36132
22121.5
2.36124
22139.1
2.36115
22081
2.36106
22047.1
2.36097
22002.6
2.36088
22162.2
2.3608
22301.3
2.36071
22251.8
2.36062
22319.1
2.36053
22185.5
2.36044
22109.5
2.36036
22144
2.36027
22334
2.36018
22323.1
2.36009
22171.5
2.36
22235.2
2.35992
22302.1
2.35983
22123.6
2.35974
22151.8
2.35965
22157.2
2.35957
22256.2
2.35948
22419.3
2.35939
22231.3
2.3593
22103.5
2.35921
22110.5
2.35913
22043.6
2.35904
22142
2.35895
22162.8
2.35886
22264.8
2.35878
22140.6
2.35869
22077.2
2.3586
22059.9
2.35851
22401.6
2.35843
22246.1
2.35834
22193.1
2.35825
22513.9
2.35816
22619.6
2.35807
22390.7
2.35799
22323
2.3579
22293.7
2.35781
22200.9
2.35772
22251
2.35764
22202
2.35755
22521.9
2.35746
22461.3
2.35737
22535.1
2.35729
22358.9
2.3572
22126.2
2.35711
22564.5
2.35702
22453.2
2.35694
22463.6
2.35685
22556.4
2.35676
22228.8
2.35667
22457.6
2.35659
22499.1
2.3565
22460.1
2.35641
22719.3
2.35632
22400
2.35624
22347
2.35615
22556
2.35606
22505
2.35597
22785.4
2.35589
22613.5
2.3558
22445.2
2.35571
22676.5
2.35562
22674.2
2.35554
22722.2
2.35545
22774.8
2.35536
22600.5
2.35528
22603.5
2.35519
22744.2
2.3551
22738.7
2.35501
22772.8
2.35493
22650.8
2.35484
22637.5
2.35475
22531.1
2.35466
23005.1
2.35458
22942
2.35449
22720.7
2.3544
22704.1
2.35432
22782
2.35423
22678.8
2.35414
22991.3
2.35405
22850.1
2.35397
22869.8
2.35388
22934.1
2.35379
22942.2
2.35371
22786.9
2.35362
22766.3
2.35353
22760.1
2.35344
22915.4
2.35336
22827.6
2.35327
22917.4
2.35318
22954.3
2.3531
22974.6
2.35301
22973
2.35292
22917.5
2.35283
22971.2
2.35275
23173.7
2.35266
23018.3
2.35257
22746.7
2.35249
22789.7
2.3524
23043.4
2.35231
23113.6
2.35223
22963.7
2.35214
23113.3
2.35205
23104
2.35196
23057.1
2.35188
23149.7
2.35179
23199.2
2.3517
23009
2.35162
23156.2
2.35153
23115.9
2.35144
23121.5
2.35136
23148.9
2.35127
23109
2.35118
23264.4
2.3511
23120.3
2.35101
23226.8
2.35092
23493.8
2.35083
23276.8
2.35075
23278.5
2.35066
23066.9
2.35057
23206.6
2.35049
23251.2
2.3504
23204.2
2.35031
23348.4
2.35023
23375
2.35014
23443.3
2.35005
23482.8
2.34997
23197.6
2.34988
23462.1
2.34979
23653.3
2.34971
23541.2
2.34962
23449.6
2.34953
23413.2
2.34945
23375.7
2.34936
23594.9
2.34927
23622.1
2.34919
23722.3
2.3491
23658.5
2.34901
23749.6
2.34893
23635.5
2.34884
23608.9
2.34875
23780.6
2.34867
23595.9
2.34858
23615.2
2.34849
23618.1
2.34841
23817.8
2.34832
23967.4
2.34823
23826.8
2.34815
23660.9
2.34806
23957.5
2.34797
23833.9
2.34789
23960.1
2.3478
23888.8
2.34772
23924.5
2.34763
23891.7
2.34754
23912.4
2.34746
24048.8
2.34737
24017.1
2.34728
24119.5
2.3472
24262
2.34711
24285.5
2.34702
24006.2
2.34694
24091.7
2.34685
24115.8
2.34676
24105.4
2.34668
24275.1
2.34659
24360
2.34651
24273
2.34642
24446.6
2.34633
24356.8
2.34625
24506.2
2.34616
24472.8
2.34607
24640.1
2.34599
24504.4
2.3459
24534.7
2.34581
24672.8
2.34573
24657.5
2.34564
24539.2
2.34556
24670.5
2.34547
24485.2
2.34538
24710.7
2.3453
24743.2
2.34521
24765.6
2.34512
24434.6
2.34504
24500.7
2.34495
24737.6
2.34487
24911.3
2.34478
24859.7
2.34469
24796.5
2.34461
24707.3
2.34452
24883.7
2.34444
25158.4
2.34435
25062.3
2.34426
25049.2
2.34418
24921.5
2.34409
24973.9
2.34401
25069.2
2.34392
25279
2.34383
25134
2.34375
25166.2
2.34366
25141.8
2.34357
25338.1
2.34349
25164.7
2.3434
25381.9
2.34332
25198.3
2.34323
25435.9
2.34314
25285.2
2.34306
25203.5
2.34297
25376.1
2.34289
25289.9
2.3428
25344
2.34272
25363.2
2.34263
25435.6
2.34254
25544.9
2.34246
25756.4
2.34237
25656.7
2.34229
25476.3
2.3422
25727.1
2.34211
25617.8
2.34203
25489.7
2.34194
25717.2
2.34186
25581.4
2.34177
25466.5
2.34168
25639.5
2.3416
25583.5
2.34151
25350.3
2.34143
25386.3
2.34134
25336.8
2.34126
25755
2.34117
25430.3
2.34108
25581.1
2.341
25596.9
2.34091
25413.1
2.34083
25361.3
2.34074
25566.6
2.34066
25467.7
2.34057
25538.2
2.34048
25519.4
2.3404
25762.2
2.34031
25855.8
2.34023
25565
2.34014
25675.6
2.34006
25814.3
2.33997
25729.5
2.33988
25861.3
2.3398
25635
2.33971
25548.9
2.33963
25754.3
2.33954
25959
2.33946
25822.4
2.33937
25913.5
2.33929
26141.6
2.3392
25921.4
2.33911
26139.5
2.33903
25977.8
2.33894
25871.1
2.33886
26238
2.33877
26295.2
2.33869
26254
2.3386
25957
2.33852
26221.8
2.33843
26180.6
2.33834
26318.2
2.33826
26288.6
2.33817
26229.7
2.33809
26413
2.338
26266
2.33792
26527.4
2.33783
26183.9
2.33775
26450.6
2.33766
26545.5
2.33758
26287.1
2.33749
26555.2
2.33741
26529.5
2.33732
26457.6
2.33723
26436
2.33715
26709.2
2.33706
26594.4
2.33698
26737.2
2.33689
26905.7
2.33681
26774.8
2.33672
26751.1
2.33664
26889.7
2.33655
26837.2
2.33647
26720.6
2.33638
26803.9
2.3363
26856
2.33621
26876.4
2.33613
26776.5
2.33604
26890.2
2.33596
27099.9
2.33587
26920.5
2.33579
26961.6
2.3357
26848.6
2.33562
27100
2.33553
26967.5
2.33545
26965.2
2.33536
26973
2.33527
26973.5
2.33519
26761.2
2.3351
26701.1
2.33502
26710.8
2.33493
26625.8
2.33485
26593.9
2.33476
26722.7
2.33468
26623.7
2.33459
26690.2
2.33451
26614.1
2.33442
26592.4
2.33434
26594.6
2.33425
26431.3
2.33417
26441.4
2.33408
26237.8
2.334
26443.3
2.33391
26598.9
2.33383
26156.8
2.33374
26514
2.33366
26311
2.33357
26351.6
2.33349
26521.3
2.3334
26336.3
2.33332
26277
2.33323
26086.6
2.33315
25973.8
2.33306
25994.6
2.33298
25768.3
2.3329
25703.5
2.33281
25686.3
2.33273
25732.8
2.33264
25800.7
2.33256
25662.8
2.33247
25711.7
2.33239
25494.9
2.3323
25567.6
2.33222
25581.2
2.33213
25353.2
2.33205
25367.2
2.33196
24984.3
2.33188
25053.3
2.33179
24939.8
2.33171
25037.3
2.33162
25045.7
2.33154
25007.1
2.33145
25054.2
2.33137
25045.4
2.33128
24640.3
2.3312
24791.6
2.33112
24712.9
2.33103
24753.7
2.33095
24751.6
2.33086
24710.2
2.33078
24603.7
2.33069
24546.5
2.33061
24647.7
2.33052
24786.6
2.33044
24725.8
2.33035
24730
2.33027
24689.8
2.33018
24696
2.3301
24582.1
2.33002
24574.7
2.32993
24845.7
2.32985
24641
2.32976
24850.3
2.32968
24872
2.32959
24683.2
2.32951
24739.9
2.32942
24803.9
2.32934
24702.4
2.32926
24878.5
2.32917
24760.8
2.32909
24470.1
2.329
24592.4
2.32892
24934.5
2.32883
24861
2.32875
24533
2.32866
24515.6
2.32858
24728.2
2.3285
24699.5
2.32841
24862.8
2.32833
24800.1
2.32824
24675.1
2.32816
24671.2
2.32807
24874.4
2.32799
24954.9
2.3279
24936.5
2.32782
25012.1
2.32774
24800.4
2.32765
24480.7
2.32757
24588.5
2.32748
24934.1
2.3274
24870.6
2.32731
24891.7
2.32723
24805.2
2.32715
24864.8
2.32706
24953.1
2.32698
24874.5
2.32689
24992.8
2.32681
25188
2.32673
24688.2
2.32664
25044
2.32656
25190.9
2.32647
25302
2.32639
25355.6
2.3263
24994.5
2.32622
25201.4
2.32614
25298.6
2.32605
25111.8
2.32597
25120.2
2.32588
25121.6
2.3258
25251.1
2.32572
25213.3
2.32563
25215.3
2.32555
25044
2.32546
25163.7
2.32538
25188.9
2.3253
25258.5
2.32521
25295.9
2.32513
25182.4
2.32504
25399.3
2.32496
25134.5
2.32488
25224.6
2.32479
24994.7
2.32471
25092.7
2.32462
25102.6
2.32454
24876.2
2.32446
24882.3
2.32437
24612.2
2.32429
24883.1
2.3242
24781.9
2.32412
24562.7
2.32404
24445
2.32395
24272.7
2.32387
24298
2.32378
24253.9
2.3237
24151.4
2.32362
24136.7
2.32353
24125.3
2.32345
23849.7
2.32337
23649.2
2.32328
23644.5
2.3232
23560.4
2.32311
23530.5
2.32303
23539.1
2.32295
23560.9
2.32286
23555.9
2.32278
23617.8
2.3227
23718.8
2.32261
23977.7
2.32253
23837.2
2.32244
23865.2
2.32236
23768.9
2.32228
23981.8
2.32219
23972.7
2.32211
24008.1
2.32203
24001.5
2.32194
24320.4
2.32186
24375.2
2.32177
24239.7
2.32169
24557.2
2.32161
24271.8
2.32152
24377.7
2.32144
24224.5
2.32136
24379.5
2.32127
24028.5
2.32119
24147.1
2.32111
24168.2
2.32102
24057.4
2.32094
24144.8
2.32086
24043.9
2.32077
23819.7
2.32069
23893
2.3206
23647.7
2.32052
23666.9
2.32044
23554.3
2.32035
23335
2.32027
23099.7
2.32019
23088.4
2.3201
23179.7
2.32002
23069.4
2.31994
23198.3
2.31985
23182
2.31977
23407.5
2.31969
23433.6
2.3196
23656.8
2.31952
23698.5
2.31944
23832.9
2.31935
24158.4
2.31927
24196.5
2.31919
24476.6
2.3191
24920.6
2.31902
25283.5
2.31894
25227.5
2.31885
25349.8
2.31877
25856.7
2.31869
26056.5
2.3186
26230.2
2.31852
26480.2
2.31844
26657
2.31835
26910.9
2.31827
27019.7
2.31819
27113.7
2.3181
26920.4
2.31802
27110.7
2.31794
27385.4
2.31785
27606.2
2.31777
27914.4
2.31769
28414.1
2.3176
29386.5
2.31752
30358.5
2.31744
31857.3
2.31735
33989.6
2.31727
36373.5
2.31719
39865
2.3171
44203.5
2.31702
49900.2
2.31694
57516.7
2.31686
67378.6
2.31677
80542.6
2.31669
97517.6
2.31661
119965
2.31652
147050
2.31644
179710
2.31636
216247
2.31627
251653
2.31619
276570
2.31611
281758
2.31602
261219
2.31594
221820
2.31586
173540
2.31578
129935
2.31569
96041.9
2.31561
72332.7
2.31553
56244.6
2.31544
46178.1
2.31536
39437.9
2.31528
35138.8
2.31519
32010.9
2.31511
30117.5
2.31503
28426.3
2.31495
27128.5
2.31486
26410.7
2.31478
25824
2.3147
26088.3
2.31461
26088.7
2.31453
26923.1
2.31445
27907.2
2.31437
29492.4
2.31428
31766.7
2.3142
34741.1
2.31412
38762.9
2.31403
44526.8
2.31395
52110.3
2.31387
62035.4
2.31379
75265.2
2.3137
93219.5
2.31362
115792
2.31354
145643
2.31345
183651
2.31337
227441
2.31329
275542
2.31321
319381
2.31312
348983
2.31304
348164
2.31296
314238
2.31288
256494
2.31279
193109
2.31271
136929
2.31263
96058.2
2.31255
67713.6
2.31246
49029
2.31238
36944.3
2.3123
29297.3
2.31221
23873.8
2.31213
20339.1
2.31205
17674.5
2.31197
15914.4
2.31188
14460.2
2.3118
13206.1
2.31172
12362.2
2.31164
11473.6
2.31155
10739.7
2.31147
10399.4
2.31139
9792.32
2.31131
9437.47
2.31122
9016.35
2.31114
8710.15
2.31106
8339.87
2.31098
8062.29
2.31089
7945.59
2.31081
7576.2
2.31073
7378.66
2.31065
7287.91
2.31056
7103.73
2.31048
6830.18
2.3104
6750.55
2.31032
6693.94
2.31023
6495.26
2.31015
6423.26
2.31007
6360.64
2.30999
6304.91
2.3099
6264.83
2.30982
6153.13
2.30974
6056.15
2.30966
6024.83
2.30958
6016.35
2.30949
5819.24
2.30941
5823.56
2.30933
5833.5
2.30925
5742.56
2.30916
5757.47
2.30908
5679.74
2.309
5613.19
2.30892
5576.24
2.30883
5505.17
2.30875
5534.52
2.30867
5560.12
2.30859
5593.33
2.30851
5540
2.30842
5536.17
2.30834
5555.45
2.30826
5526.27
2.30818
5646.01
2.30809
5684.82
2.30801
5554.28
2.30793
5554.31
2.30785
5542.63
2.30777
5567.95
2.30768
5583.89
2.3076
5505.89
2.30752
5605.72
2.30744
5590.92
2.30736
5570.06
2.30727
5615.21
2.30719
5613.78
2.30711
5653.41
2.30703
5747.48
2.30695
5757.99
2.30686
5767.33
2.30678
5815.28
2.3067
5825.21
2.30662
5899.33
2.30654
5888.76
2.30645
5941.22
2.30637
5950.99
2.30629
5993.19
2.30621
6069.2
2.30613
6037.73
2.30604
6162.01
2.30596
6092.89
2.30588
6199.63
2.3058
6360.81
2.30572
6331.35
2.30563
6205.62
2.30555
Au4f
Au in vacuum, short shirley
2020
3
8
7
22
34
0
17
Casa Info Follows
1
BackgroundSubtract
0
1
CASA region (*Au 4f*) (*Shirley*) 1393.9881 1408.9582 16.77802 2 0 0 833.83732 -450 0 0 (*Au 4f*) 196.967 0 17.12
0
EX340_CEC356_effect of lens modes.sle
Group = Au in vacuum
First of group = 0
Analyzer lens = LargeArea:1.5kV
Analyzer slit = 4:7x20c\C:mesh
Scan mode = FixedAnalyzerTransmission
Kinetic energy start = 1311.61
Sum of 20 spectra in column containing 20 scans
C:\Users\pielsticker\Lukas\MPI-CEC\Projects\Gas phase background\inelasticscattering\data\N2\Au, Ag, Cu in N2.vms
C:\Users\pielsticker\Lukas\MPI-CEC\Projects\Gas phase background\inelasticscattering\data\Au_test.vms
XPS
1
Al
1486.61
0
0
0
54.5
180
FAT
20
1
4.156
0
0
0
0
0
Au4f

-1
kinetic energy
eV
1311.61
0.1
2
counts
d
Transmission
d
pulse counting
2
1
0
0
0
0
2
ESCAPE DEPTH TYPE
d
0
MFP Exponent
d
0
2002
259.839
17460
2.30555
2.3921
19490.5
2.3921
19696.1
2.39201
19545.9
2.39191
19546.8
2.39182
19671.3
2.39173
19640.1
2.39164
19592
2.39155
19658.5
2.39146
19837.5
2.39137
19785.1
2.39127
19689
2.39118
19770.4
2.39109
19912.4
2.391
19813.6
2.39091
19924.8
2.39082
20051.1
2.39073
20043.3
2.39063
19892
2.39054
19967.8
2.39045
19894.5
2.39036
19866.2
2.39027
20155.4
2.39018
19961.8
2.39009
19820.4
2.39
19964.9
2.3899
19871.8
2.38981
19868.8
2.38972
19930.1
2.38963
19882.3
2.38954
20041.4
2.38945
19821.9
2.38936
19908.4
2.38927
20153.2
2.38917
20024.9
2.38908
19995.5
2.38899
19913.7
2.3889
19897.8
2.38881
19880.1
2.38872
19771.3
2.38863
19960.6
2.38854
19997.1
2.38845
19974.1
2.38835
19827.4
2.38826
19826.9
2.38817
19913.6
2.38808
20047.6
2.38799
20200.6
2.3879
19995.5
2.38781
20009.4
2.38772
20303
2.38763
20043.7
2.38754
20195.2
2.38744
19972.5
2.38735
19989.3
2.38726
20011.9
2.38717
19946.7
2.38708
19920.4
2.38699
20100
2.3869
20103
2.38681
20087.9
2.38672
20031.5
2.38663
20070
2.38654
20036.6
2.38645
20019.6
2.38635
20051.7
2.38626
20029.6
2.38617
19944.4
2.38608
19678
2.38599
19948.2
2.3859
20143.6
2.38581
20194.3
2.38572
20184.5
2.38563
20013.6
2.38554
20293
2.38545
20286.6
2.38536
20047.9
2.38527
20011.8
2.38517
20258.1
2.38508
20167.3
2.38499
20431.7
2.3849
20208.9
2.38481
20137.6
2.38472
20093.4
2.38463
20239.9
2.38454
20256.8
2.38445
20161.2
2.38436
19877.8
2.38427
20019.7
2.38418
20340.1
2.38409
20221.8
2.384
20090.5
2.38391
20167.8
2.38382
20287.4
2.38372
20165.6
2.38363
20075
2.38354
20043.8
2.38345
20250.4
2.38336
20105.4
2.38327
20181.9
2.38318
20240.9
2.38309
20290.3
2.383
20019.8
2.38291
20010
2.38282
20383.7
2.38273
20306.2
2.38264
20299.6
2.38255
20218.8
2.38246
20391.9
2.38237
20415.2
2.38228
20329.1
2.38219
20531.8
2.3821
20324.6
2.38201
20206.2
2.38192
20369.6
2.38183
20528.4
2.38174
20386.6
2.38165
20468.4
2.38156
20666.1
2.38146
20524.2
2.38137
20683.1
2.38128
20527.3
2.38119
20645.3
2.3811
20457.2
2.38101
20559.4
2.38092
20636.2
2.38083
20700.5
2.38074
20627.1
2.38065
20715.6
2.38056
20792
2.38047
20656.4
2.38038
20621.1
2.38029
20771.3
2.3802
20748.3
2.38011
20496.1
2.38002
20606.7
2.37993
20697.1
2.37984
20856
2.37975
20551.9
2.37966
20731.8
2.37957
20949.8
2.37948
20788.6
2.37939
20729.8
2.3793
20515.7
2.37921
20492.7
2.37912
20609.8
2.37903
20449.1
2.37894
20368.1
2.37885
20587.8
2.37876
20638.2
2.37867
20475.4
2.37858
20573.9
2.37849
20593.3
2.3784
20563.2
2.37831
20482.5
2.37822
20556.8
2.37813
20620.7
2.37804
20593.5
2.37795
20760.2
2.37786
20765.8
2.37777
20526.6
2.37768
20451.7
2.37759
20505.6
2.3775
20591
2.37741
20728.2
2.37732
20687.3
2.37723
20529.3
2.37714
20604.1
2.37705
20765.5
2.37696
20784.9
2.37687
20953
2.37679
20874.5
2.3767
20642.3
2.37661
20596.4
2.37652
20630.8
2.37643
20778
2.37634
20895.3
2.37625
20883.7
2.37616
20799.1
2.37607
20852.4
2.37598
20898.2
2.37589
20670.3
2.3758
20871.6
2.37571
20850.2
2.37562
20848.4
2.37553
20878.8
2.37544
20774.7
2.37535
20778.6
2.37526
20741.6
2.37517
20943.2
2.37508
21036.1
2.37499
21068.6
2.3749
20991.4
2.37481
21048.8
2.37472
20857.3
2.37463
20932.3
2.37454
20930.3
2.37446
21132.5
2.37437
21160.9
2.37428
21009.8
2.37419
21027.4
2.3741
20866.4
2.37401
21035.2
2.37392
21051.9
2.37383
20869.1
2.37374
20993.4
2.37365
21122.9
2.37356
21290.8
2.37347
20931.7
2.37338
21030.9
2.37329
21269.4
2.3732
21085.2
2.37311
21149.2
2.37303
21183.1
2.37294
20969
2.37285
21143.2
2.37276
21189.7
2.37267
20974.6
2.37258
21200.6
2.37249
21387.1
2.3724
21231.8
2.37231
21278.9
2.37222
21283.1
2.37213
21040.6
2.37204
21195.5
2.37195
21202.5
2.37187
21287.3
2.37178
21397.7
2.37169
21271.3
2.3716
21163.8
2.37151
21216.5
2.37142
21288.6
2.37133
21174.2
2.37124
21281.5
2.37115
21235.4
2.37106
21615.1
2.37097
21606.9
2.37088
21434.2
2.3708
21460.2
2.37071
21370.5
2.37062
21386.2
2.37053
21251.1
2.37044
21275.2
2.37035
21452.8
2.37026
21341.8
2.37017
21247.7
2.37008
21183.9
2.36999
21309.6
2.36991
21455.1
2.36982
21562.9
2.36973
21602.2
2.36964
21343
2.36955
21270.1
2.36946
21324.6
2.36937
21623
2.36928
21532.2
2.36919
21599.5
2.36911
21735.1
2.36902
21579.1
2.36893
21537.5
2.36884
21578.3
2.36875
21574.1
2.36866
21582.9
2.36857
21489.8
2.36848
21698.5
2.36839
21611.4
2.36831
21526.8
2.36822
21745.4
2.36813
21588.6
2.36804
21419.7
2.36795
21517.9
2.36786
21582
2.36777
21569.5
2.36768
21633
2.3676
21578.4
2.36751
21752.3
2.36742
21719.9
2.36733
22062.3
2.36724
21689.8
2.36715
21752.5
2.36706
21839.1
2.36698
21807.5
2.36689
22055.3
2.3668
21899.9
2.36671
21770.2
2.36662
21893.4
2.36653
21817.9
2.36644
21750.9
2.36636
21883.1
2.36627
21682.5
2.36618
21797.6
2.36609
21645.6
2.366
21760.4
2.36591
21831.1
2.36582
21768.2
2.36574
21893.9
2.36565
21795.1
2.36556
21686.6
2.36547
21746.9
2.36538
22007.4
2.36529
21793.3
2.3652
21719.5
2.36512
21979.2
2.36503
21810.3
2.36494
22020.3
2.36485
22038.4
2.36476
22003.5
2.36467
21846.8
2.36459
21858.9
2.3645
21611.4
2.36441
21724.9
2.36432
21817.5
2.36423
21793.7
2.36414
21751.1
2.36406
21735.8
2.36397
21853.7
2.36388
21861
2.36379
21885.5
2.3637
21736.4
2.36361
21795.6
2.36353
21913.9
2.36344
21823.1
2.36335
21790.4
2.36326
21817.9
2.36317
22029.9
2.36309
22004.7
2.363
21947.5
2.36291
22046.7
2.36282
22004.1
2.36273
21895.9
2.36264
21857.5
2.36256
22153.1
2.36247
22142.8
2.36238
22024.5
2.36229
21835.9
2.3622
22085.5
2.36212
22066.4
2.36203
22096.1
2.36194
21836.3
2.36185
21944
2.36176
21850.2
2.36168
21980.8
2.36159
22124.4
2.3615
22274.7
2.36141
22262.4
2.36132
22121.5
2.36124
22139.1
2.36115
22081
2.36106
22047.1
2.36097
22002.6
2.36088
22162.2
2.3608
22301.3
2.36071
22251.8
2.36062
22319.1
2.36053
22185.5
2.36044
22109.5
2.36036
22144
2.36027
22334
2.36018
22323.1
2.36009
22171.5
2.36
22235.2
2.35992
22302.1
2.35983
22123.6
2.35974
22151.8
2.35965
22157.2
2.35957
22256.2
2.35948
22419.3
2.35939
22231.3
2.3593
22103.5
2.35921
22110.5
2.35913
22043.6
2.35904
22142
2.35895
22162.8
2.35886
22264.8
2.35878
22140.6
2.35869
22077.2
2.3586
22059.9
2.35851
22401.6
2.35843
22246.1
2.35834
22193.1
2.35825
22513.9
2.35816
22619.6
2.35807
22390.7
2.35799
22323
2.3579
22293.7
2.35781
22200.9
2.35772
22251
2.35764
22202
2.35755
22521.9
2.35746
22461.3
2.35737
22535.1
2.35729
22358.9
2.3572
22126.2
2.35711
22564.5
2.35702
22453.2
2.35694
22463.6
2.35685
22556.4
2.35676
22228.8
2.35667
22457.6
2.35659
22499.1
2.3565
22460.1
2.35641
22719.3
2.35632
22400
2.35624
22347
2.35615
22556
2.35606
22505
2.35597
22785.4
2.35589
22613.5
2.3558
22445.2
2.35571
22676.5
2.35562
22674.2
2.35554
22722.2
2.35545
22774.8
2.35536
22600.5
2.35528
22603.5
2.35519
22744.2
2.3551
22738.7
2.35501
22772.8
2.35493
22650.8
2.35484
22637.5
2.35475
22531.1
2.35466
23005.1
2.35458
22942
2.35449
22720.7
2.3544
22704.1
2.35432
22782
2.35423
22678.8
2.35414
22991.3
2.35405
22850.1
2.35397
22869.8
2.35388
22934.1
2.35379
22942.2
2.35371
22786.9
2.35362
22766.3
2.35353
22760.1
2.35344
22915.4
2.35336
22827.6
2.35327
22917.4
2.35318
22954.3
2.3531
22974.6
2.35301
22973
2.35292
22917.5
2.35283
22971.2
2.35275
23173.7
2.35266
23018.3
2.35257
22746.7
2.35249
22789.7
2.3524
23043.4
2.35231
23113.6
2.35223
22963.7
2.35214
23113.3
2.35205
23104
2.35196
23057.1
2.35188
23149.7
2.35179
23199.2
2.3517
23009
2.35162
23156.2
2.35153
23115.9
2.35144
23121.5
2.35136
23148.9
2.35127
23109
2.35118
23264.4
2.3511
23120.3
2.35101
23226.8
2.35092
23493.8
2.35083
23276.8
2.35075
23278.5
2.35066
23066.9
2.35057
23206.6
2.35049
23251.2
2.3504
23204.2
2.35031
23348.4
2.35023
23375
2.35014
23443.3
2.35005
23482.8
2.34997
23197.6
2.34988
23462.1
2.34979
23653.3
2.34971
23541.2
2.34962
23449.6
2.34953
23413.2
2.34945
23375.7
2.34936
23594.9
2.34927
23622.1
2.34919
23722.3
2.3491
23658.5
2.34901
23749.6
2.34893
23635.5
2.34884
23608.9
2.34875
23780.6
2.34867
23595.9
2.34858
23615.2
2.34849
23618.1
2.34841
23817.8
2.34832
23967.4
2.34823
23826.8
2.34815
23660.9
2.34806
23957.5
2.34797
23833.9
2.34789
23960.1
2.3478
23888.8
2.34772
23924.5
2.34763
23891.7
2.34754
23912.4
2.34746
24048.8
2.34737
24017.1
2.34728
24119.5
2.3472
24262
2.34711
24285.5
2.34702
24006.2
2.34694
24091.7
2.34685
24115.8
2.34676
24105.4
2.34668
24275.1
2.34659
24360
2.34651
24273
2.34642
24446.6
2.34633
24356.8
2.34625
24506.2
2.34616
24472.8
2.34607
24640.1
2.34599
24504.4
2.3459
24534.7
2.34581
24672.8
2.34573
24657.5
2.34564
24539.2
2.34556
24670.5
2.34547
24485.2
2.34538
24710.7
2.3453
24743.2
2.34521
24765.6
2.34512
24434.6
2.34504
24500.7
2.34495
24737.6
2.34487
24911.3
2.34478
24859.7
2.34469
24796.5
2.34461
24707.3
2.34452
24883.7
2.34444
25158.4
2.34435
25062.3
2.34426
25049.2
2.34418
24921.5
2.34409
24973.9
2.34401
25069.2
2.34392
25279
2.34383
25134
2.34375
25166.2
2.34366
25141.8
2.34357
25338.1
2.34349
25164.7
2.3434
25381.9
2.34332
25198.3
2.34323
25435.9
2.34314
25285.2
2.34306
25203.5
2.34297
25376.1
2.34289
25289.9
2.3428
25344
2.34272
25363.2
2.34263
25435.6
2.34254
25544.9
2.34246
25756.4
2.34237
25656.7
2.34229
25476.3
2.3422
25727.1
2.34211
25617.8
2.34203
25489.7
2.34194
25717.2
2.34186
25581.4
2.34177
25466.5
2.34168
25639.5
2.3416
25583.5
2.34151
25350.3
2.34143
25386.3
2.34134
25336.8
2.34126
25755
2.34117
25430.3
2.34108
25581.1
2.341
25596.9
2.34091
25413.1
2.34083
25361.3
2.34074
25566.6
2.34066
25467.7
2.34057
25538.2
2.34048
25519.4
2.3404
25762.2
2.34031
25855.8
2.34023
25565
2.34014
25675.6
2.34006
25814.3
2.33997
25729.5
2.33988
25861.3
2.3398
25635
2.33971
25548.9
2.33963
25754.3
2.33954
25959
2.33946
25822.4
2.33937
25913.5
2.33929
26141.6
2.3392
25921.4
2.33911
26139.5
2.33903
25977.8
2.33894
25871.1
2.33886
26238
2.33877
26295.2
2.33869
26254
2.3386
25957
2.33852
26221.8
2.33843
26180.6
2.33834
26318.2
2.33826
26288.6
2.33817
26229.7
2.33809
26413
2.338
26266
2.33792
26527.4
2.33783
26183.9
2.33775
26450.6
2.33766
26545.5
2.33758
26287.1
2.33749
26555.2
2.33741
26529.5
2.33732
26457.6
2.33723
26436
2.33715
26709.2
2.33706
26594.4
2.33698
26737.2
2.33689
26905.7
2.33681
26774.8
2.33672
26751.1
2.33664
26889.7
2.33655
26837.2
2.33647
26720.6
2.33638
26803.9
2.3363
26856
2.33621
26876.4
2.33613
26776.5
2.33604
26890.2
2.33596
27099.9
2.33587
26920.5
2.33579
26961.6
2.3357
26848.6
2.33562
27100
2.33553
26967.5
2.33545
26965.2
2.33536
26973
2.33527
26973.5
2.33519
26761.2
2.3351
26701.1
2.33502
26710.8
2.33493
26625.8
2.33485
26593.9
2.33476
26722.7
2.33468
26623.7
2.33459
26690.2
2.33451
26614.1
2.33442
26592.4
2.33434
26594.6
2.33425
26431.3
2.33417
26441.4
2.33408
26237.8
2.334
26443.3
2.33391
26598.9
2.33383
26156.8
2.33374
26514
2.33366
26311
2.33357
26351.6
2.33349
26521.3
2.3334
26336.3
2.33332
26277
2.33323
26086.6
2.33315
25973.8
2.33306
25994.6
2.33298
25768.3
2.3329
25703.5
2.33281
25686.3
2.33273
25732.8
2.33264
25800.7
2.33256
25662.8
2.33247
25711.7
2.33239
25494.9
2.3323
25567.6
2.33222
25581.2
2.33213
25353.2
2.33205
25367.2
2.33196
24984.3
2.33188
25053.3
2.33179
24939.8
2.33171
25037.3
2.33162
25045.7
2.33154
25007.1
2.33145
25054.2
2.33137
25045.4
2.33128
24640.3
2.3312
24791.6
2.33112
24712.9
2.33103
24753.7
2.33095
24751.6
2.33086
24710.2
2.33078
24603.7
2.33069
24546.5
2.33061
24647.7
2.33052
24786.6
2.33044
24725.8
2.33035
24730
2.33027
24689.8
2.33018
24696
2.3301
24582.1
2.33002
24574.7
2.32993
24845.7
2.32985
24641
2.32976
24850.3
2.32968
24872
2.32959
24683.2
2.32951
24739.9
2.32942
24803.9
2.32934
24702.4
2.32926
24878.5
2.32917
24760.8
2.32909
24470.1
2.329
24592.4
2.32892
24934.5
2.32883
24861
2.32875
24533
2.32866
24515.6
2.32858
24728.2
2.3285
24699.5
2.32841
24862.8
2.32833
24800.1
2.32824
24675.1
2.32816
24671.2
2.32807
24874.4
2.32799
24954.9
2.3279
24936.5
2.32782
25012.1
2.32774
24800.4
2.32765
24480.7
2.32757
24588.5
2.32748
24934.1
2.3274
24870.6
2.32731
24891.7
2.32723
24805.2
2.32715
24864.8
2.32706
24953.1
2.32698
24874.5
2.32689
24992.8
2.32681
25188
2.32673
24688.2
2.32664
25044
2.32656
25190.9
2.32647
25302
2.32639
25355.6
2.3263
24994.5
2.32622
25201.4
2.32614
25298.6
2.32605
25111.8
2.32597
25120.2
2.32588
25121.6
2.3258
25251.1
2.32572
25213.3
2.32563
25215.3
2.32555
25044
2.32546
25163.7
2.32538
25188.9
2.3253
25258.5
2.32521
25295.9
2.32513
25182.4
2.32504
25399.3
2.32496
25134.5
2.32488
25224.6
2.32479
24994.7
2.32471
25092.7
2.32462
25102.6
2.32454
24876.2
2.32446
24882.3
2.32437
24612.2
2.32429
24883.1
2.3242
24781.9
2.32412
24562.7
2.32404
24445
2.32395
24272.7
2.32387
24298
2.32378
24253.9
2.3237
24151.4
2.32362
24136.7
2.32353
24125.3
2.32345
23849.7
2.32337
23649.2
2.32328
23644.5
2.3232
23560.4
2.32311
23530.5
2.32303
23539.1
2.32295
23560.9
2.32286
23555.9
2.32278
23617.8
2.3227
23718.8
2.32261
23977.7
2.32253
23837.2
2.32244
23865.2
2.32236
23768.9
2.32228
23981.8
2.32219
23972.7
2.32211
24008.1
2.32203
24001.5
2.32194
24320.4
2.32186
24375.2
2.32177
24239.7
2.32169
24557.2
2.32161
24271.8
2.32152
24377.7
2.32144
24224.5
2.32136
24379.5
2.32127
24028.5
2.32119
24147.1
2.32111
24168.2
2.32102
24057.4
2.32094
24144.8
2.32086
24043.9
2.32077
23819.7
2.32069
23893
2.3206
23647.7
2.32052
23666.9
2.32044
23554.3
2.32035
23335
2.32027
23099.7
2.32019
23088.4
2.3201
23179.7
2.32002
23069.4
2.31994
23198.3
2.31985
23182
2.31977
23407.5
2.31969
23433.6
2.3196
23656.8
2.31952
23698.5
2.31944
23832.9
2.31935
24158.4
2.31927
24196.5
2.31919
24476.6
2.3191
24920.6
2.31902
25283.5
2.31894
25227.5
2.31885
25349.8
2.31877
25856.7
2.31869
26056.5
2.3186
26230.2
2.31852
26480.2
2.31844
26657
2.31835
26910.9
2.31827
27019.7
2.31819
27113.7
2.3181
26920.4
2.31802
27110.7
2.31794
27385.4
2.31785
27606.2
2.31777
27914.4
2.31769
28414.1
2.3176
29386.5
2.31752
30358.5
2.31744
31857.3
2.31735
33989.6
2.31727
36373.5
2.31719
39865
2.3171
44203.5
2.31702
49900.2
2.31694
57516.7
2.31686
67378.6
2.31677
80542.6
2.31669
97517.6
2.31661
119965
2.31652
147050
2.31644
179710
2.31636
216247
2.31627
251653
2.31619
276570
2.31611
281758
2.31602
261219
2.31594
221820
2.31586
173540
2.31578
129935
2.31569
96041.9
2.31561
72332.7
2.31553
56244.6
2.31544
46178.1
2.31536
39437.9
2.31528
35138.8
2.31519
32010.9
2.31511
30117.5
2.31503
28426.3
2.31495
27128.5
2.31486
26410.7
2.31478
25824
2.3147
26088.3
2.31461
26088.7
2.31453
26923.1
2.31445
27907.2
2.31437
29492.4
2.31428
31766.7
2.3142
34741.1
2.31412
38762.9
2.31403
44526.8
2.31395
52110.3
2.31387
62035.4
2.31379
75265.2
2.3137
93219.5
2.31362
115792
2.31354
145643
2.31345
183651
2.31337
227441
2.31329
275542
2.31321
319381
2.31312
348983
2.31304
348164
2.31296
314238
2.31288
256494
2.31279
193109
2.31271
136929
2.31263
96058.2
2.31255
67713.6
2.31246
49029
2.31238
36944.3
2.3123
29297.3
2.31221
23873.8
2.31213
20339.1
2.31205
17674.5
2.31197
15914.4
2.31188
14460.2
2.3118
13206.1
2.31172
12362.2
2.31164
11473.6
2.31155
10739.7
2.31147
10399.4
2.31139
9792.32
2.31131
9437.47
2.31122
9016.35
2.31114
8710.15
2.31106
8339.87
2.31098
8062.29
2.31089
7945.59
2.31081
7576.2
2.31073
7378.66
2.31065
7287.91
2.31056
7103.73
2.31048
6830.18
2.3104
6750.55
2.31032
6693.94
2.31023
6495.26
2.31015
6423.26
2.31007
6360.64
2.30999
6304.91
2.3099
6264.83
2.30982
6153.13
2.30974
6056.15
2.30966
6024.83
2.30958
6016.35
2.30949
5819.24
2.30941
5823.56
2.30933
5833.5
2.30925
5742.56
2.30916
5757.47
2.30908
5679.74
2.309
5613.19
2.30892
5576.24
2.30883
5505.17
2.30875
5534.52
2.30867
5560.12
2.30859
5593.33
2.30851
5540
2.30842
5536.17
2.30834
5555.45
2.30826
5526.27
2.30818
5646.01
2.30809
5684.82
2.30801
5554.28
2.30793
5554.31
2.30785
5542.63
2.30777
5567.95
2.30768
5583.89
2.3076
5505.89
2.30752
5605.72
2.30744
5590.92
2.30736
5570.06
2.30727
5615.21
2.30719
5613.78
2.30711
5653.41
2.30703
5747.48
2.30695
5757.99
2.30686
5767.33
2.30678
5815.28
2.3067
5825.21
2.30662
5899.33
2.30654
5888.76
2.30645
5941.22
2.30637
5950.99
2.30629
5993.19
2.30621
6069.2
2.30613
6037.73
2.30604
6162.01
2.30596
6092.89
2.30588
6199.63
2.3058
6360.81
2.30572
6331.35
2.30563
6205.62
2.30555
Au4f
Au in vacuum, long shirley
2020
3
8
7
22
34
0
17
Casa Info Follows
1
BackgroundSubtract
0
1
CASA region (*Au 4f*) (*Shirley*) 1356.6057 1408.9582 16.77802 2 0 0 833.83732 -450 0 0 (*Au 4f*) 196.967 0 17.12
0
EX340_CEC356_effect of lens modes.sle
Group = Au in vacuum
First of group = 0
Analyzer lens = LargeArea:1.5kV
Analyzer slit = 4:7x20c\C:mesh
Scan mode = FixedAnalyzerTransmission
Kinetic energy start = 1311.61
Sum of 20 spectra in column containing 20 scans
C:\Users\pielsticker\Lukas\MPI-CEC\Projects\Gas phase background\inelasticscattering\data\N2\Au, Ag, Cu in N2.vms
C:\Users\pielsticker\Lukas\MPI-CEC\Projects\Gas phase background\inelasticscattering\data\Au_test.vms
XPS
1
Al
1486.61
0
0
0
54.5
180
FAT
20
1
4.156
0
0
0
0
0
Au4f

-1
kinetic energy
eV
1311.61
0.1
2
counts
d
Transmission
d
pulse counting
2
1
0
0
0
0
2
ESCAPE DEPTH TYPE
d
0
MFP Exponent
d
0
2002
259.839
17460
2.30555
2.3921
19490.5
2.3921
19696.1
2.39201
19545.9
2.39191
19546.8
2.39182
19671.3
2.39173
19640.1
2.39164
19592
2.39155
19658.5
2.39146
19837.5
2.39137
19785.1
2.39127
19689
2.39118
19770.4
2.39109
19912.4
2.391
19813.6
2.39091
19924.8
2.39082
20051.1
2.39073
20043.3
2.39063
19892
2.39054
19967.8
2.39045
19894.5
2.39036
19866.2
2.39027
20155.4
2.39018
19961.8
2.39009
19820.4
2.39
19964.9
2.3899
19871.8
2.38981
19868.8
2.38972
19930.1
2.38963
19882.3
2.38954
20041.4
2.38945
19821.9
2.38936
19908.4
2.38927
20153.2
2.38917
20024.9
2.38908
19995.5
2.38899
19913.7
2.3889
19897.8
2.38881
19880.1
2.38872
19771.3
2.38863
19960.6
2.38854
19997.1
2.38845
19974.1
2.38835
19827.4
2.38826
19826.9
2.38817
19913.6
2.38808
20047.6
2.38799
20200.6
2.3879
19995.5
2.38781
20009.4
2.38772
20303
2.38763
20043.7
2.38754
20195.2
2.38744
19972.5
2.38735
19989.3
2.38726
20011.9
2.38717
19946.7
2.38708
19920.4
2.38699
20100
2.3869
20103
2.38681
20087.9
2.38672
20031.5
2.38663
20070
2.38654
20036.6
2.38645
20019.6
2.38635
20051.7
2.38626
20029.6
2.38617
19944.4
2.38608
19678
2.38599
19948.2
2.3859
20143.6
2.38581
20194.3
2.38572
20184.5
2.38563
20013.6
2.38554
20293
2.38545
20286.6
2.38536
20047.9
2.38527
20011.8
2.38517
20258.1
2.38508
20167.3
2.38499
20431.7
2.3849
20208.9
2.38481
20137.6
2.38472
20093.4
2.38463
20239.9
2.38454
20256.8
2.38445
20161.2
2.38436
19877.8
2.38427
20019.7
2.38418
20340.1
2.38409
20221.8
2.384
20090.5
2.38391
20167.8
2.38382
20287.4
2.38372
20165.6
2.38363
20075
2.38354
20043.8
2.38345
20250.4
2.38336
20105.4
2.38327
20181.9
2.38318
20240.9
2.38309
20290.3
2.383
20019.8
2.38291
20010
2.38282
20383.7
2.38273
20306.2
2.38264
20299.6
2.38255
20218.8
2.38246
20391.9
2.38237
20415.2
2.38228
20329.1
2.38219
20531.8
2.3821
20324.6
2.38201
20206.2
2.38192
20369.6
2.38183
20528.4
2.38174
20386.6
2.38165
20468.4
2.38156
20666.1
2.38146
20524.2
2.38137
20683.1
2.38128
20527.3
2.38119
20645.3
2.3811
20457.2
2.38101
20559.4
2.38092
20636.2
2.38083
20700.5
2.38074
20627.1
2.38065
20715.6
2.38056
20792
2.38047
20656.4
2.38038
20621.1
2.38029
20771.3
2.3802
20748.3
2.38011
20496.1
2.38002
20606.7
2.37993
20697.1
2.37984
20856
2.37975
20551.9
2.37966
20731.8
2.37957
20949.8
2.37948
20788.6
2.37939
20729.8
2.3793
20515.7
2.37921
20492.7
2.37912
20609.8
2.37903
20449.1
2.37894
20368.1
2.37885
20587.8
2.37876
20638.2
2.37867
20475.4
2.37858
20573.9
2.37849
20593.3
2.3784
20563.2
2.37831
20482.5
2.37822
20556.8
2.37813
20620.7
2.37804
20593.5
2.37795
20760.2
2.37786
20765.8
2.37777
20526.6
2.37768
20451.7
2.37759
20505.6
2.3775
20591
2.37741
20728.2
2.37732
20687.3
2.37723
20529.3
2.37714
20604.1
2.37705
20765.5
2.37696
20784.9
2.37687
20953
2.37679
20874.5
2.3767
20642.3
2.37661
20596.4
2.37652
20630.8
2.37643
20778
2.37634
20895.3
2.37625
20883.7
2.37616
20799.1
2.37607
20852.4
2.37598
20898.2
2.37589
20670.3
2.3758
20871.6
2.37571
20850.2
2.37562
20848.4
2.37553
20878.8
2.37544
20774.7
2.37535
20778.6
2.37526
20741.6
2.37517
20943.2
2.37508
21036.1
2.37499
21068.6
2.3749
20991.4
2.37481
21048.8
2.37472
20857.3
2.37463
20932.3
2.37454
20930.3
2.37446
21132.5
2.37437
21160.9
2.37428
21009.8
2.37419
21027.4
2.3741
20866.4
2.37401
21035.2
2.37392
21051.9
2.37383
20869.1
2.37374
20993.4
2.37365
21122.9
2.37356
21290.8
2.37347
20931.7
2.37338
21030.9
2.37329
21269.4
2.3732
21085.2
2.37311
21149.2
2.37303
21183.1
2.37294
20969
2.37285
21143.2
2.37276
21189.7
2.37267
20974.6
2.37258
21200.6
2.37249
21387.1
2.3724
21231.8
2.37231
21278.9
2.37222
21283.1
2.37213
21040.6
2.37204
21195.5
2.37195
21202.5
2.37187
21287.3
2.37178
21397.7
2.37169
21271.3
2.3716
21163.8
2.37151
21216.5
2.37142
21288.6
2.37133
21174.2
2.37124
21281.5
2.37115
21235.4
2.37106
21615.1
2.37097
21606.9
2.37088
21434.2
2.3708
21460.2
2.37071
21370.5
2.37062
21386.2
2.37053
21251.1
2.37044
21275.2
2.37035
21452.8
2.37026
21341.8
2.37017
21247.7
2.37008
21183.9
2.36999
21309.6
2.36991
21455.1
2.36982
21562.9
2.36973
21602.2
2.36964
21343
2.36955
21270.1
2.36946
21324.6
2.36937
21623
2.36928
21532.2
2.36919
21599.5
2.36911
21735.1
2.36902
21579.1
2.36893
21537.5
2.36884
21578.3
2.36875
21574.1
2.36866
21582.9
2.36857
21489.8
2.36848
21698.5
2.36839
21611.4
2.36831
21526.8
2.36822
21745.4
2.36813
21588.6
2.36804
21419.7
2.36795
21517.9
2.36786
21582
2.36777
21569.5
2.36768
21633
2.3676
21578.4
2.36751
21752.3
2.36742
21719.9
2.36733
22062.3
2.36724
21689.8
2.36715
21752.5
2.36706
21839.1
2.36698
21807.5
2.36689
22055.3
2.3668
21899.9
2.36671
21770.2
2.36662
21893.4
2.36653
21817.9
2.36644
21750.9
2.36636
21883.1
2.36627
21682.5
2.36618
21797.6
2.36609
21645.6
2.366
21760.4
2.36591
21831.1
2.36582
21768.2
2.36574
21893.9
2.36565
21795.1
2.36556
21686.6
2.36547
21746.9
2.36538
22007.4
2.36529
21793.3
2.3652
21719.5
2.36512
21979.2
2.36503
21810.3
2.36494
22020.3
2.36485
22038.4
2.36476
22003.5
2.36467
21846.8
2.36459
21858.9
2.3645
21611.4
2.36441
21724.9
2.36432
21817.5
2.36423
21793.7
2.36414
21751.1
2.36406
21735.8
2.36397
21853.7
2.36388
21861
2.36379
21885.5
2.3637
21736.4
2.36361
21795.6
2.36353
21913.9
2.36344
21823.1
2.36335
21790.4
2.36326
21817.9
2.36317
22029.9
2.36309
22004.7
2.363
21947.5
2.36291
22046.7
2.36282
22004.1
2.36273
21895.9
2.36264
21857.5
2.36256
22153.1
2.36247
22142.8
2.36238
22024.5
2.36229
21835.9
2.3622
22085.5
2.36212
22066.4
2.36203
22096.1
2.36194
21836.3
2.36185
21944
2.36176
21850.2
2.36168
21980.8
2.36159
22124.4
2.3615
22274.7
2.36141
22262.4
2.36132
22121.5
2.36124
22139.1
2.36115
22081
2.36106
22047.1
2.36097
22002.6
2.36088
22162.2
2.3608
22301.3
2.36071
22251.8
2.36062
22319.1
2.36053
22185.5
2.36044
22109.5
2.36036
22144
2.36027
22334
2.36018
22323.1
2.36009
22171.5
2.36
22235.2
2.35992
22302.1
2.35983
22123.6
2.35974
22151.8
2.35965
22157.2
2.35957
22256.2
2.35948
22419.3
2.35939
22231.3
2.3593
22103.5
2.35921
22110.5
2.35913
22043.6
2.35904
22142
2.35895
22162.8
2.35886
22264.8
2.35878
22140.6
2.35869
22077.2
2.3586
22059.9
2.35851
22401.6
2.35843
22246.1
2.35834
22193.1
2.35825
22513.9
2.35816
22619.6
2.35807
22390.7
2.35799
22323
2.3579
22293.7
2.35781
22200.9
2.35772
22251
2.35764
22202
2.35755
22521.9
2.35746
22461.3
2.35737
22535.1
2.35729
22358.9
2.3572
22126.2
2.35711
22564.5
2.35702
22453.2
2.35694
22463.6
2.35685
22556.4
2.35676
22228.8
2.35667
22457.6
2.35659
22499.1
2.3565
22460.1
2.35641
22719.3
2.35632
22400
2.35624
22347
2.35615
22556
2.35606
22505
2.35597
22785.4
2.35589
22613.5
2.3558
22445.2
2.35571
22676.5
2.35562
22674.2
2.35554
22722.2
2.35545
22774.8
2.35536
22600.5
2.35528
22603.5
2.35519
22744.2
2.3551
22738.7
2.35501
22772.8
2.35493
22650.8
2.35484
22637.5
2.35475
22531.1
2.35466
23005.1
2.35458
22942
2.35449
22720.7
2.3544
22704.1
2.35432
22782
2.35423
22678.8
2.35414
22991.3
2.35405
22850.1
2.35397
22869.8
2.35388
22934.1
2.35379
22942.2
2.35371
22786.9
2.35362
22766.3
2.35353
22760.1
2.35344
22915.4
2.35336
22827.6
2.35327
22917.4
2.35318
22954.3
2.3531
22974.6
2.35301
22973
2.35292
22917.5
2.35283
22971.2
2.35275
23173.7
2.35266
23018.3
2.35257
22746.7
2.35249
22789.7
2.3524
23043.4
2.35231
23113.6
2.35223
22963.7
2.35214
23113.3
2.35205
23104
2.35196
23057.1
2.35188
23149.7
2.35179
23199.2
2.3517
23009
2.35162
23156.2
2.35153
23115.9
2.35144
23121.5
2.35136
23148.9
2.35127
23109
2.35118
23264.4
2.3511
23120.3
2.35101
23226.8
2.35092
23493.8
2.35083
23276.8
2.35075
23278.5
2.35066
23066.9
2.35057
23206.6
2.35049
23251.2
2.3504
23204.2
2.35031
23348.4
2.35023
23375
2.35014
23443.3
2.35005
23482.8
2.34997
23197.6
2.34988
23462.1
2.34979
23653.3
2.34971
23541.2
2.34962
23449.6
2.34953
23413.2
2.34945
23375.7
2.34936
23594.9
2.34927
23622.1
2.34919
23722.3
2.3491
23658.5
2.34901
23749.6
2.34893
23635.5
2.34884
23608.9
2.34875
23780.6
2.34867
23595.9
2.34858
23615.2
2.34849
23618.1
2.34841
23817.8
2.34832
23967.4
2.34823
23826.8
2.34815
23660.9
2.34806
23957.5
2.34797
23833.9
2.34789
23960.1
2.3478
23888.8
2.34772
23924.5
2.34763
23891.7
2.34754
23912.4
2.34746
24048.8
2.34737
24017.1
2.34728
24119.5
2.3472
24262
2.34711
24285.5
2.34702
24006.2
2.34694
24091.7
2.34685
24115.8
2.34676
24105.4
2.34668
24275.1
2.34659
24360
2.34651
24273
2.34642
24446.6
2.34633
24356.8
2.34625
24506.2
2.34616
24472.8
2.34607
24640.1
2.34599
24504.4
2.3459
24534.7
2.34581
24672.8
2.34573
24657.5
2.34564
24539.2
2.34556
24670.5
2.34547
24485.2
2.34538
24710.7
2.3453
24743.2
2.34521
24765.6
2.34512
24434.6
2.34504
24500.7
2.34495
24737.6
2.34487
24911.3
2.34478
24859.7
2.34469
24796.5
2.34461
24707.3
2.34452
24883.7
2.34444
25158.4
2.34435
25062.3
2.34426
25049.2
2.34418
24921.5
2.34409
24973.9
2.34401
25069.2
2.34392
25279
2.34383
25134
2.34375
25166.2
2.34366
25141.8
2.34357
25338.1
2.34349
25164.7
2.3434
25381.9
2.34332
25198.3
2.34323
25435.9
2.34314
25285.2
2.34306
25203.5
2.34297
25376.1
2.34289
25289.9
2.3428
25344
2.34272
25363.2
2.34263
25435.6
2.34254
25544.9
2.34246
25756.4
2.34237
25656.7
2.34229
25476.3
2.3422
25727.1
2.34211
25617.8
2.34203
25489.7
2.34194
25717.2
2.34186
25581.4
2.34177
25466.5
2.34168
25639.5
2.3416
25583.5
2.34151
25350.3
2.34143
25386.3
2.34134
25336.8
2.34126
25755
2.34117
25430.3
2.34108
25581.1
2.341
25596.9
2.34091
25413.1
2.34083
25361.3
2.34074
25566.6
2.34066
25467.7
2.34057
25538.2
2.34048
25519.4
2.3404
25762.2
2.34031
25855.8
2.34023
25565
2.34014
25675.6
2.34006
25814.3
2.33997
25729.5
2.33988
25861.3
2.3398
25635
2.33971
25548.9
2.33963
25754.3
2.33954
25959
2.33946
25822.4
2.33937
25913.5
2.33929
26141.6
2.3392
25921.4
2.33911
26139.5
2.33903
25977.8
2.33894
25871.1
2.33886
26238
2.33877
26295.2
2.33869
26254
2.3386
25957
2.33852
26221.8
2.33843
26180.6
2.33834
26318.2
2.33826
26288.6
2.33817
26229.7
2.33809
26413
2.338
26266
2.33792
26527.4
2.33783
26183.9
2.33775
26450.6
2.33766
26545.5
2.33758
26287.1
2.33749
26555.2
2.33741
26529.5
2.33732
26457.6
2.33723
26436
2.33715
26709.2
2.33706
26594.4
2.33698
26737.2
2.33689
26905.7
2.33681
26774.8
2.33672
26751.1
2.33664
26889.7
2.33655
26837.2
2.33647
26720.6
2.33638
26803.9
2.3363
26856
2.33621
26876.4
2.33613
26776.5
2.33604
26890.2
2.33596
27099.9
2.33587
26920.5
2.33579
26961.6
2.3357
26848.6
2.33562
27100
2.33553
26967.5
2.33545
26965.2
2.33536
26973
2.33527
26973.5
2.33519
26761.2
2.3351
26701.1
2.33502
26710.8
2.33493
26625.8
2.33485
26593.9
2.33476
26722.7
2.33468
26623.7
2.33459
26690.2
2.33451
26614.1
2.33442
26592.4
2.33434
26594.6
2.33425
26431.3
2.33417
26441.4
2.33408
26237.8
2.334
26443.3
2.33391
26598.9
2.33383
26156.8
2.33374
26514
2.33366
26311
2.33357
26351.6
2.33349
26521.3
2.3334
26336.3
2.33332
26277
2.33323
26086.6
2.33315
25973.8
2.33306
25994.6
2.33298
25768.3
2.3329
25703.5
2.33281
25686.3
2.33273
25732.8
2.33264
25800.7
2.33256
25662.8
2.33247
25711.7
2.33239
25494.9
2.3323
25567.6
2.33222
25581.2
2.33213
25353.2
2.33205
25367.2
2.33196
24984.3
2.33188
25053.3
2.33179
24939.8
2.33171
25037.3
2.33162
25045.7
2.33154
25007.1
2.33145
25054.2
2.33137
25045.4
2.33128
24640.3
2.3312
24791.6
2.33112
24712.9
2.33103
24753.7
2.33095
24751.6
2.33086
24710.2
2.33078
24603.7
2.33069
24546.5
2.33061
24647.7
2.33052
24786.6
2.33044
24725.8
2.33035
24730
2.33027
24689.8
2.33018
24696
2.3301
24582.1
2.33002
24574.7
2.32993
24845.7
2.32985
24641
2.32976
24850.3
2.32968
24872
2.32959
24683.2
2.32951
24739.9
2.32942
24803.9
2.32934
24702.4
2.32926
24878.5
2.32917
24760.8
2.32909
24470.1
2.329
24592.4
2.32892
24934.5
2.32883
24861
2.32875
24533
2.32866
24515.6
2.32858
24728.2
2.3285
24699.5
2.32841
24862.8
2.32833
24800.1
2.32824
24675.1
2.32816
24671.2
2.32807
24874.4
2.32799
24954.9
2.3279
24936.5
2.32782
25012.1
2.32774
24800.4
2.32765
24480.7
2.32757
24588.5
2.32748
24934.1
2.3274
24870.6
2.32731
24891.7
2.32723
24805.2
2.32715
24864.8
2.32706
24953.1
2.32698
24874.5
2.32689
24992.8
2.32681
25188
2.32673
24688.2
2.32664
25044
2.32656
25190.9
2.32647
25302
2.32639
25355.6
2.3263
24994.5
2.32622
25201.4
2.32614
25298.6
2.32605
25111.8
2.32597
25120.2
2.32588
25121.6
2.3258
25251.1
2.32572
25213.3
2.32563
25215.3
2.32555
25044
2.32546
25163.7
2.32538
25188.9
2.3253
25258.5
2.32521
25295.9
2.32513
25182.4
2.32504
25399.3
2.32496
25134.5
2.32488
25224.6
2.32479
24994.7
2.32471
25092.7
2.32462
25102.6
2.32454
24876.2
2.32446
24882.3
2.32437
24612.2
2.32429
24883.1
2.3242
24781.9
2.32412
24562.7
2.32404
24445
2.32395
24272.7
2.32387
24298
2.32378
24253.9
2.3237
24151.4
2.32362
24136.7
2.32353
24125.3
2.32345
23849.7
2.32337
23649.2
2.32328
23644.5
2.3232
23560.4
2.32311
23530.5
2.32303
23539.1
2.32295
23560.9
2.32286
23555.9
2.32278
23617.8
2.3227
23718.8
2.32261
23977.7
2.32253
23837.2
2.32244
23865.2
2.32236
23768.9
2.32228
23981.8
2.32219
23972.7
2.32211
24008.1
2.32203
24001.5
2.32194
24320.4
2.32186
24375.2
2.32177
24239.7
2.32169
24557.2
2.32161
24271.8
2.32152
24377.7
2.32144
24224.5
2.32136
24379.5
2.32127
24028.5
2.32119
24147.1
2.32111
24168.2
2.32102
24057.4
2.32094
24144.8
2.32086
24043.9
2.32077
23819.7
2.32069
23893
2.3206
23647.7
2.32052
23666.9
2.32044
23554.3
2.32035
23335
2.32027
23099.7
2.32019
23088.4
2.3201
23179.7
2.32002
23069.4
2.31994
23198.3
2.31985
23182
2.31977
23407.5
2.31969
23433.6
2.3196
23656.8
2.31952
23698.5
2.31944
23832.9
2.31935
24158.4
2.31927
24196.5
2.31919
24476.6
2.3191
24920.6
2.31902
25283.5
2.31894
25227.5
2.31885
25349.8
2.31877
25856.7
2.31869
26056.5
2.3186
26230.2
2.31852
26480.2
2.31844
26657
2.31835
26910.9
2.31827
27019.7
2.31819
27113.7
2.3181
26920.4
2.31802
27110.7
2.31794
27385.4
2.31785
27606.2
2.31777
27914.4
2.31769
28414.1
2.3176
29386.5
2.31752
30358.5
2.31744
31857.3
2.31735
33989.6
2.31727
36373.5
2.31719
39865
2.3171
44203.5
2.31702
49900.2
2.31694
57516.7
2.31686
67378.6
2.31677
80542.6
2.31669
97517.6
2.31661
119965
2.31652
147050
2.31644
179710
2.31636
216247
2.31627
251653
2.31619
276570
2.31611
281758
2.31602
261219
2.31594
221820
2.31586
173540
2.31578
129935
2.31569
96041.9
2.31561
72332.7
2.31553
56244.6
2.31544
46178.1
2.31536
39437.9
2.31528
35138.8
2.31519
32010.9
2.31511
30117.5
2.31503
28426.3
2.31495
27128.5
2.31486
26410.7
2.31478
25824
2.3147
26088.3
2.31461
26088.7
2.31453
26923.1
2.31445
27907.2
2.31437
29492.4
2.31428
31766.7
2.3142
34741.1
2.31412
38762.9
2.31403
44526.8
2.31395
52110.3
2.31387
62035.4
2.31379
75265.2
2.3137
93219.5
2.31362
115792
2.31354
145643
2.31345
183651
2.31337
227441
2.31329
275542
2.31321
319381
2.31312
348983
2.31304
348164
2.31296
314238
2.31288
256494
2.31279
193109
2.31271
136929
2.31263
96058.2
2.31255
67713.6
2.31246
49029
2.31238
36944.3
2.3123
29297.3
2.31221
23873.8
2.31213
20339.1
2.31205
17674.5
2.31197
15914.4
2.31188
14460.2
2.3118
13206.1
2.31172
12362.2
2.31164
11473.6
2.31155
10739.7
2.31147
10399.4
2.31139
9792.32
2.31131
9437.47
2.31122
9016.35
2.31114
8710.15
2.31106
8339.87
2.31098
8062.29
2.31089
7945.59
2.31081
7576.2
2.31073
7378.66
2.31065
7287.91
2.31056
7103.73
2.31048
6830.18
2.3104
6750.55
2.31032
6693.94
2.31023
6495.26
2.31015
6423.26
2.31007
6360.64
2.30999
6304.91
2.3099
6264.83
2.30982
6153.13
2.30974
6056.15
2.30966
6024.83
2.30958
6016.35
2.30949
5819.24
2.30941
5823.56
2.30933
5833.5
2.30925
5742.56
2.30916
5757.47
2.30908
5679.74
2.309
5613.19
2.30892
5576.24
2.30883
5505.17
2.30875
5534.52
2.30867
5560.12
2.30859
5593.33
2.30851
5540
2.30842
5536.17
2.30834
5555.45
2.30826
5526.27
2.30818
5646.01
2.30809
5684.82
2.30801
5554.28
2.30793
5554.31
2.30785
5542.63
2.30777
5567.95
2.30768
5583.89
2.3076
5505.89
2.30752
5605.72
2.30744
5590.92
2.30736
5570.06
2.30727
5615.21
2.30719
5613.78
2.30711
5653.41
2.30703
5747.48
2.30695
5757.99
2.30686
5767.33
2.30678
5815.28
2.3067
5825.21
2.30662
5899.33
2.30654
5888.76
2.30645
5941.22
2.30637
5950.99
2.30629
5993.19
2.30621
6069.2
2.30613
6037.73
2.30604
6162.01
2.30596
6092.89
2.30588
6199.63
2.3058
6360.81
2.30572
6331.35
2.30563
6205.62
2.30555
Au4f
Au in vacuum, short shirley, background subtr.
2020
3
8
7
22
34
0
15
Casa Info Follows
0
0
0
0
EX340_CEC356_effect of lens modes.sle
Group = Au in vacuum
First of group = 0
Analyzer lens = LargeArea:1.5kV
Analyzer slit = 4:7x20c\C:mesh
Scan mode = FixedAnalyzerTransmission
Kinetic energy start = 1311.61
Sum of 20 spectra in column containing 20 scans
C:\Users\pielsticker\Lukas\MPI-CEC\Projects\Gas phase background\inelasticscattering\data\N2\Au, Ag, Cu in N2.vms
C:\Users\pielsticker\Lukas\MPI-CEC\Projects\Gas phase background\inelasticscattering\data\Au_test.vms
XPS
1e+037
Al
1486.61
0
0
0
54.5
180
FAT
20
1
4.156
0
0
0
0
0
Au4f

-1
kinetic energy
eV
1311.61
0.1
2
counts
d
Transmission
d
pulse counting
2
1
0
0
0
0
2
ESCAPE DEPTH TYPE
d
0
MFP Exponent
d
0
2002
259.839
17460
2.30555
2.3921
0
2.3921
0
2.39201
0
2.39191
0
2.39182
0
2.39173
0
2.39164
0
2.39155
0
2.39146
0
2.39137
0
2.39127
0
2.39118
0
2.39109
0
2.391
0
2.39091
0
2.39082
0
2.39073
0
2.39063
0
2.39054
0
2.39045
0
2.39036
0
2.39027
0
2.39018
0
2.39009
0
2.39
0
2.3899
0
2.38981
0
2.38972
0
2.38963
0
2.38954
0
2.38945
0
2.38936
0
2.38927
0
2.38917
0
2.38908
0
2.38899
0
2.3889
0
2.38881
0
2.38872
0
2.38863
0
2.38854
0
2.38845
0
2.38835
0
2.38826
0
2.38817
0
2.38808
0
2.38799
0
2.3879
0
2.38781
0
2.38772
0
2.38763
0
2.38754
0
2.38744
0
2.38735
0
2.38726
0
2.38717
0
2.38708
0
2.38699
0
2.3869
0
2.38681
0
2.38672
0
2.38663
0
2.38654
0
2.38645
0
2.38635
0
2.38626
0
2.38617
0
2.38608
0
2.38599
0
2.3859
0
2.38581
0
2.38572
0
2.38563
0
2.38554
0
2.38545
0
2.38536
0
2.38527
0
2.38517
0
2.38508
0
2.38499
0
2.3849
0
2.38481
0
2.38472
0
2.38463
0
2.38454
0
2.38445
0
2.38436
0
2.38427
0
2.38418
0
2.38409
0
2.384
0
2.38391
0
2.38382
0
2.38372
0
2.38363
0
2.38354
0
2.38345
0
2.38336
0
2.38327
0
2.38318
0
2.38309
0
2.383
0
2.38291
0
2.38282
0
2.38273
0
2.38264
0
2.38255
0
2.38246
0
2.38237
0
2.38228
0
2.38219
0
2.3821
0
2.38201
0
2.38192
0
2.38183
0
2.38174
0
2.38165
0
2.38156
0
2.38146
0
2.38137
0
2.38128
0
2.38119
0
2.3811
0
2.38101
0
2.38092
0
2.38083
0
2.38074
0
2.38065
0
2.38056
0
2.38047
0
2.38038
0
2.38029
0
2.3802
0
2.38011
0
2.38002
0
2.37993
0
2.37984
0
2.37975
0
2.37966
0
2.37957
0
2.37948
0
2.37939
0
2.3793
0
2.37921
0
2.37912
0
2.37903
0
2.37894
0
2.37885
0
2.37876
0
2.37867
0
2.37858
0
2.37849
0
2.3784
0
2.37831
0
2.37822
0
2.37813
0
2.37804
0
2.37795
0
2.37786
0
2.37777
0
2.37768
0
2.37759
0
2.3775
0
2.37741
0
2.37732
0
2.37723
0
2.37714
0
2.37705
0
2.37696
0
2.37687
0
2.37679
0
2.3767
0
2.37661
0
2.37652
0
2.37643
0
2.37634
0
2.37625
0
2.37616
0
2.37607
0
2.37598
0
2.37589
0
2.3758
0
2.37571
0
2.37562
0
2.37553
0
2.37544
0
2.37535
0
2.37526
0
2.37517
0
2.37508
0
2.37499
0
2.3749
0
2.37481
0
2.37472
0
2.37463
0
2.37454
0
2.37446
0
2.37437
0
2.37428
0
2.37419
0
2.3741
0
2.37401
0
2.37392
0
2.37383
0
2.37374
0
2.37365
0
2.37356
0
2.37347
0
2.37338
0
2.37329
0
2.3732
0
2.37311
0
2.37303
0
2.37294
0
2.37285
0
2.37276
0
2.37267
0
2.37258
0
2.37249
0
2.3724
0
2.37231
0
2.37222
0
2.37213
0
2.37204
0
2.37195
0
2.37187
0
2.37178
0
2.37169
0
2.3716
0
2.37151
0
2.37142
0
2.37133
0
2.37124
0
2.37115
0
2.37106
0
2.37097
0
2.37088
0
2.3708
0
2.37071
0
2.37062
0
2.37053
0
2.37044
0
2.37035
0
2.37026
0
2.37017
0
2.37008
0
2.36999
0
2.36991
0
2.36982
0
2.36973
0
2.36964
0
2.36955
0
2.36946
0
2.36937
0
2.36928
0
2.36919
0
2.36911
0
2.36902
0
2.36893
0
2.36884
0
2.36875
0
2.36866
0
2.36857
0
2.36848
0
2.36839
0
2.36831
0
2.36822
0
2.36813
0
2.36804
0
2.36795
0
2.36786
0
2.36777
0
2.36768
0
2.3676
0
2.36751
0
2.36742
0
2.36733
0
2.36724
0
2.36715
0
2.36706
0
2.36698
0
2.36689
0
2.3668
0
2.36671
0
2.36662
0
2.36653
0
2.36644
0
2.36636
0
2.36627
0
2.36618
0
2.36609
0
2.366
0
2.36591
0
2.36582
0
2.36574
0
2.36565
0
2.36556
0
2.36547
0
2.36538
0
2.36529
0
2.3652
0
2.36512
0
2.36503
0
2.36494
0
2.36485
0
2.36476
0
2.36467
0
2.36459
0
2.3645
0
2.36441
0
2.36432
0
2.36423
0
2.36414
0
2.36406
0
2.36397
0
2.36388
0
2.36379
0
2.3637
0
2.36361
0
2.36353
0
2.36344
0
2.36335
0
2.36326
0
2.36317
0
2.36309
0
2.363
0
2.36291
0
2.36282
0
2.36273
0
2.36264
0
2.36256
0
2.36247
0
2.36238
0
2.36229
0
2.3622
0
2.36212
0
2.36203
0
2.36194
0
2.36185
0
2.36176
0
2.36168
0
2.36159
0
2.3615
0
2.36141
0
2.36132
0
2.36124
0
2.36115
0
2.36106
0
2.36097
0
2.36088
0
2.3608
0
2.36071
0
2.36062
0
2.36053
0
2.36044
0
2.36036
0
2.36027
0
2.36018
0
2.36009
0
2.36
0
2.35992
0
2.35983
0
2.35974
0
2.35965
0
2.35957
0
2.35948
0
2.35939
0
2.3593
0
2.35921
0
2.35913
0
2.35904
0
2.35895
0
2.35886
0
2.35878
0
2.35869
0
2.3586
0
2.35851
0
2.35843
0
2.35834
0
2.35825
0
2.35816
0
2.35807
0
2.35799
0
2.3579
0
2.35781
0
2.35772
0
2.35764
0
2.35755
0
2.35746
0
2.35737
0
2.35729
0
2.3572
0
2.35711
0
2.35702
0
2.35694
0
2.35685
0
2.35676
0
2.35667
0
2.35659
0
2.3565
0
2.35641
0
2.35632
0
2.35624
0
2.35615
0
2.35606
0
2.35597
0
2.35589
0
2.3558
0
2.35571
0
2.35562
0
2.35554
0
2.35545
0
2.35536
0
2.35528
0
2.35519
0
2.3551
0
2.35501
0
2.35493
0
2.35484
0
2.35475
0
2.35466
0
2.35458
0
2.35449
0
2.3544
0
2.35432
0
2.35423
0
2.35414
0
2.35405
0
2.35397
0
2.35388
0
2.35379
0
2.35371
0
2.35362
0
2.35353
0
2.35344
0
2.35336
0
2.35327
0
2.35318
0
2.3531
0
2.35301
0
2.35292
0
2.35283
0
2.35275
0
2.35266
0
2.35257
0
2.35249
0
2.3524
0
2.35231
0
2.35223
0
2.35214
0
2.35205
0
2.35196
0
2.35188
0
2.35179
0
2.3517
0
2.35162
0
2.35153
0
2.35144
0
2.35136
0
2.35127
0
2.35118
0
2.3511
0
2.35101
0
2.35092
0
2.35083
0
2.35075
0
2.35066
0
2.35057
0
2.35049
0
2.3504
0
2.35031
0
2.35023
0
2.35014
0
2.35005
0
2.34997
0
2.34988
0
2.34979
0
2.34971
0
2.34962
0
2.34953
0
2.34945
0
2.34936
0
2.34927
0
2.34919
0
2.3491
0
2.34901
0
2.34893
0
2.34884
0
2.34875
0
2.34867
0
2.34858
0
2.34849
0
2.34841
0
2.34832
0
2.34823
0
2.34815
0
2.34806
0
2.34797
0
2.34789
0
2.3478
0
2.34772
0
2.34763
0
2.34754
0
2.34746
0
2.34737
0
2.34728
0
2.3472
0
2.34711
0
2.34702
0
2.34694
0
2.34685
0
2.34676
0
2.34668
0
2.34659
0
2.34651
0
2.34642
0
2.34633
0
2.34625
0
2.34616
0
2.34607
0
2.34599
0
2.3459
0
2.34581
0
2.34573
0
2.34564
0
2.34556
0
2.34547
0
2.34538
0
2.3453
0
2.34521
0
2.34512
0
2.34504
0
2.34495
0
2.34487
0
2.34478
0
2.34469
0
2.34461
0
2.34452
0
2.34444
0
2.34435
0
2.34426
0
2.34418
0
2.34409
0
2.34401
0
2.34392
0
2.34383
0
2.34375
0
2.34366
0
2.34357
0
2.34349
0
2.3434
0
2.34332
0
2.34323
0
2.34314
0
2.34306
0
2.34297
0
2.34289
0
2.3428
0
2.34272
0
2.34263
0
2.34254
0
2.34246
0
2.34237
0
2.34229
0
2.3422
0
2.34211
0
2.34203
0
2.34194
0
2.34186
0
2.34177
0
2.34168
0
2.3416
0
2.34151
0
2.34143
0
2.34134
0
2.34126
0
2.34117
0
2.34108
0
2.341
0
2.34091
0
2.34083
0
2.34074
0
2.34066
0
2.34057
0
2.34048
0
2.3404
0
2.34031
0
2.34023
0
2.34014
0
2.34006
0
2.33997
0
2.33988
0
2.3398
0
2.33971
0
2.33963
0
2.33954
0
2.33946
0
2.33937
0
2.33929
0
2.3392
0
2.33911
0
2.33903
0
2.33894
0
2.33886
0
2.33877
0
2.33869
0
2.3386
0
2.33852
0
2.33843
0
2.33834
0
2.33826
0
2.33817
0
2.33809
0
2.338
0
2.33792
0
2.33783
0
2.33775
0
2.33766
0
2.33758
0
2.33749
0
2.33741
0
2.33732
0
2.33723
0
2.33715
0
2.33706
0
2.33698
0
2.33689
0
2.33681
0
2.33672
0
2.33664
0
2.33655
0
2.33647
0
2.33638
0
2.3363
0
2.33621
0
2.33613
0
2.33604
0
2.33596
0
2.33587
0
2.33579
0
2.3357
0
2.33562
0
2.33553
0
2.33545
0
2.33536
0
2.33527
0
2.33519
0
2.3351
0
2.33502
0
2.33493
0
2.33485
0
2.33476
0
2.33468
0
2.33459
0
2.33451
0
2.33442
0
2.33434
0
2.33425
0
2.33417
0
2.33408
0
2.334
0
2.33391
0
2.33383
0
2.33374
0
2.33366
0
2.33357
0
2.33349
0
2.3334
0
2.33332
0
2.33323
0
2.33315
0
2.33306
0
2.33298
0
2.3329
0
2.33281
0
2.33273
0
2.33264
0
2.33256
0
2.33247
0
2.33239
0
2.3323
0
2.33222
0
2.33213
0
2.33205
0
2.33196
0
2.33188
0
2.33179
0
2.33171
0
2.33162
0
2.33154
0
2.33145
0
2.33137
0
2.33128
0
2.3312
0
2.33112
0
2.33103
0
2.33095
0
2.33086
0
2.33078
0
2.33069
0
2.33061
0
2.33052
0
2.33044
0
2.33035
0
2.33027
0
2.33018
0
2.3301
0
2.33002
0
2.32993
0
2.32985
0
2.32976
0
2.32968
0
2.32959
0
2.32951
0
2.32942
0
2.32934
0
2.32926
0
2.32917
0
2.32909
0
2.329
0
2.32892
0
2.32883
0
2.32875
0
2.32866
0
2.32858
0
2.3285
0
2.32841
0
2.32833
0
2.32824
0
2.32816
0
2.32807
0
2.32799
0
2.3279
0
2.32782
0
2.32774
0
2.32765
0
2.32757
0
2.32748
0
2.3274
0
2.32731
0
2.32723
0
2.32715
0
2.32706
0
2.32698
0
2.32689
0
2.32681
0
2.32673
0
2.32664
0
2.32656
0
2.32647
0
2.32639
0
2.3263
0
2.32622
0
2.32614
0
2.32605
0
2.32597
0
2.32588
0
2.3258
0
2.32572
0
2.32563
0
2.32555
0
2.32546
0
2.32538
0
2.3253
0
2.32521
0
2.32513
0
2.32504
0
2.32496
0
2.32488
0
2.32479
0
2.32471
0
2.32462
0
2.32454
0
2.32446
0
2.32437
0
2.32429
0
2.3242
0
2.32412
0
2.32404
0
2.32395
0
2.32387
0
2.32378
0
2.3237
0
2.32362
0
2.32353
0
2.32345
0
2.32337
0
2.32328
0
2.3232
0
2.32311
0
2.32303
0
2.32295
0
2.32286
0
2.32278
0
2.3227
0
2.32261
0
2.32253
0
2.32244
0
2.32236
0
2.32228
0
2.32219
0
2.32211
0
2.32203
0
2.32194
0
2.32186
0
2.32177
0
2.32169
0
2.32161
0
2.32152
0
2.32144
0
2.32136
0
2.32127
0
2.32119
0
2.32111
0
2.32102
0
2.32094
0
2.32086
0
2.32077
0
2.32069
0
2.3206
0
2.32052
0
2.32044
0
2.32035
0
2.32027
0
2.32019
-34.1045
2.3201
57.3561
2.32002
-52.796
2.31994
76.3177
2.31985
60.1863
2.31977
286.489
2.31969
313.466
2.3196
538.174
2.31952
581.502
2.31944
717.913
2.31935
1046.34
2.31927
1087.49
2.31919
1371.43
2.3191
1820.53
2.31902
2189.56
2.31894
2139.55
2.31885
2268.2
2.31877
2782.9
2.31869
2991.07
2.3186
3173.66
2.31852
3433.28
2.31844
3620.22
2.31835
3885
2.31827
4005.01
2.31819
4110.52
2.3181
3928.23
2.31802
4130.09
2.31794
4417.16
2.31785
4650.99
2.31777
4973.12
2.31769
5488.18
2.3176
6478.73
2.31752
7471.65
2.31744
8995.65
2.31735
11159.2
2.31727
13581.1
2.31719
17120.6
2.3171
21519.3
2.31702
27292.5
2.31694
35007
2.31686
44994.9
2.31677
58322.3
2.31669
75508.7
2.31661
98231.2
2.31652
125668
2.31644
158773
2.31636
195858
2.31627
231914
2.31619
257552
2.31611
263478
2.31602
243621
2.31594
204796
2.31586
156955
2.31578
113669
2.31569
79999.6
2.31561
56448.5
2.31553
40473.8
2.31544
30492.7
2.31536
23819.2
2.31528
19574.9
2.31519
16493.2
2.31511
14640.8
2.31503
12986
2.31495
11721
2.31486
11034.1
2.31478
10476.7
2.3147
10771.2
2.31461
10801.8
2.31453
11668.9
2.31445
12688.6
2.31437
14313.8
2.31428
16634.7
2.3142
19664.2
2.31412
23752.5
2.31403
29599.3
2.31395
37287.2
2.31387
47344.9
2.31379
60744.9
2.3137
78920.2
2.31362
101778
2.31354
131998
2.31345
170484
2.31337
214876
2.31329
263715
2.31321
308418
2.31312
338969
2.31304
339100
2.31296
306031
2.31288
248984
2.31279
186120
2.31271
130305
2.31263
89685.7
2.31255
61513.4
2.31246
42949.1
2.31238
30951.1
2.3123
23369.5
2.31221
17996.4
2.31213
14502.3
2.31205
11871
2.31197
10139.3
2.31188
8709.46
2.3118
7476.29
2.31172
6651.02
2.31164
5778.6
2.31155
5058.87
2.31147
4731.82
2.31139
4136.33
2.31131
3792.1
2.31122
3380.45
2.31114
3082.88
2.31106
2720.22
2.31098
2449.5
2.31089
2339.35
2.31081
1975.49
2.31073
1782.94
2.31065
1696.95
2.31056
1517.01
2.31048
1246.96
2.3104
1170.61
2.31032
1117.12
2.31023
921.023
2.31015
851.408
2.31007
791.003
2.30999
737.338
2.3099
699.216
2.30982
589.166
2.30974
493.568
2.30966
463.547
2.30958
456.345
2.30949
259.963
2.30941
265.025
2.30933
275.737
2.30925
185.316
2.30916
200.788
2.30908
123.404
2.309
57.0136
2.30892
20.1199
2.30883
-50.8078
2.30875
-21.3979
2.30867
4.21394
2.30859
37.529
2.30851
-15.7568
2.30842
-19.5321
2.30834
-0.251427
2.30826
-29.3492
2.30818
90.6446
2.30809
129.818
2.30801
-0.7198
2.30793
-0.687873
2.30785
-12.3333
2.30777
0
2.30768
0
2.3076
0
2.30752
0
2.30744
0
2.30736
0
2.30727
0
2.30719
0
2.30711
0
2.30703
0
2.30695
0
2.30686
0
2.30678
0
2.3067
0
2.30662
0
2.30654
0
2.30645
0
2.30637
0
2.30629
0
2.30621
0
2.30613
0
2.30604
0
2.30596
0
2.30588
0
2.3058
0
2.30572
0
2.30563
0
2.30555
Au4f
Au in vacuum, long shirley, background subtr.
2020
3
8
7
22
34
0
15
Casa Info Follows
0
0
0
0
EX340_CEC356_effect of lens modes.sle
Group = Au in vacuum
First of group = 0
Analyzer lens = LargeArea:1.5kV
Analyzer slit = 4:7x20c\C:mesh
Scan mode = FixedAnalyzerTransmission
Kinetic energy start = 1311.61
Sum of 20 spectra in column containing 20 scans
C:\Users\pielsticker\Lukas\MPI-CEC\Projects\Gas phase background\inelasticscattering\data\N2\Au, Ag, Cu in N2.vms
C:\Users\pielsticker\Lukas\MPI-CEC\Projects\Gas phase background\inelasticscattering\data\Au_test.vms
XPS
1e+037
Al
1486.61
0
0
0
54.5
180
FAT
20
1
4.156
0
0
0
0
0
Au4f

-1
kinetic energy
eV
1311.61
0.1
2
counts
d
Transmission
d
pulse counting
2
1
0
0
0
0
2
ESCAPE DEPTH TYPE
d
0
MFP Exponent
d
0
2002
259.839
17460
2.30555
2.3921
0
2.3921
0
2.39201
0
2.39191
0
2.39182
0
2.39173
0
2.39164
0
2.39155
0
2.39146
0
2.39137
0
2.39127
0
2.39118
0
2.39109
0
2.391
0
2.39091
0
2.39082
0
2.39073
0
2.39063
0
2.39054
0
2.39045
0
2.39036
0
2.39027
0
2.39018
0
2.39009
0
2.39
0
2.3899
0
2.38981
0
2.38972
0
2.38963
0
2.38954
0
2.38945
0
2.38936
0
2.38927
0
2.38917
0
2.38908
0
2.38899
0
2.3889
0
2.38881
0
2.38872
0
2.38863
0
2.38854
0
2.38845
0
2.38835
0
2.38826
0
2.38817
0
2.38808
0
2.38799
0
2.3879
0
2.38781
0
2.38772
0
2.38763
0
2.38754
0
2.38744
0
2.38735
0
2.38726
0
2.38717
0
2.38708
0
2.38699
0
2.3869
0
2.38681
0
2.38672
0
2.38663
0
2.38654
0
2.38645
0
2.38635
0
2.38626
0
2.38617
0
2.38608
0
2.38599
0
2.3859
0
2.38581
0
2.38572
0
2.38563
0
2.38554
0
2.38545
0
2.38536
0
2.38527
0
2.38517
0
2.38508
0
2.38499
0
2.3849
0
2.38481
0
2.38472
0
2.38463
0
2.38454
0
2.38445
0
2.38436
0
2.38427
0
2.38418
0
2.38409
0
2.384
0
2.38391
0
2.38382
0
2.38372
0
2.38363
0
2.38354
0
2.38345
0
2.38336
0
2.38327
0
2.38318
0
2.38309
0
2.383
0
2.38291
0
2.38282
0
2.38273
0
2.38264
0
2.38255
0
2.38246
0
2.38237
0
2.38228
0
2.38219
0
2.3821
0
2.38201
0
2.38192
0
2.38183
0
2.38174
0
2.38165
0
2.38156
0
2.38146
0
2.38137
0
2.38128
0
2.38119
0
2.3811
0
2.38101
0
2.38092
0
2.38083
0
2.38074
0
2.38065
0
2.38056
0
2.38047
0
2.38038
0
2.38029
0
2.3802
0
2.38011
0
2.38002
0
2.37993
0
2.37984
0
2.37975
0
2.37966
0
2.37957
0
2.37948
0
2.37939
0
2.3793
0
2.37921
0
2.37912
0
2.37903
0
2.37894
0
2.37885
0
2.37876
0
2.37867
0
2.37858
0
2.37849
0
2.3784
0
2.37831
0
2.37822
0
2.37813
0
2.37804
0
2.37795
0
2.37786
0
2.37777
0
2.37768
0
2.37759
0
2.3775
0
2.37741
0
2.37732
0
2.37723
0
2.37714
0
2.37705
0
2.37696
0
2.37687
0
2.37679
0
2.3767
0
2.37661
0
2.37652
0
2.37643
0
2.37634
0
2.37625
0
2.37616
0
2.37607
0
2.37598
0
2.37589
0
2.3758
0
2.37571
0
2.37562
0
2.37553
0
2.37544
0
2.37535
0
2.37526
0
2.37517
0
2.37508
0
2.37499
0
2.3749
0
2.37481
0
2.37472
0
2.37463
0
2.37454
0
2.37446
0
2.37437
0
2.37428
0
2.37419
0
2.3741
0
2.37401
0
2.37392
0
2.37383
0
2.37374
0
2.37365
0
2.37356
0
2.37347
0
2.37338
0
2.37329
0
2.3732
0
2.37311
0
2.37303
0
2.37294
0
2.37285
0
2.37276
0
2.37267
0
2.37258
0
2.37249
0
2.3724
0
2.37231
0
2.37222
0
2.37213
0
2.37204
0
2.37195
0
2.37187
0
2.37178
0
2.37169
0
2.3716
0
2.37151
0
2.37142
0
2.37133
0
2.37124
0
2.37115
0
2.37106
0
2.37097
0
2.37088
0
2.3708
0
2.37071
0
2.37062
0
2.37053
0
2.37044
0
2.37035
0
2.37026
0
2.37017
0
2.37008
0
2.36999
0
2.36991
0
2.36982
0
2.36973
0
2.36964
0
2.36955
0
2.36946
0
2.36937
0
2.36928
0
2.36919
0
2.36911
0
2.36902
0
2.36893
0
2.36884
0
2.36875
0
2.36866
0
2.36857
0
2.36848
0
2.36839
0
2.36831
0
2.36822
0
2.36813
0
2.36804
0
2.36795
0
2.36786
0
2.36777
0
2.36768
0
2.3676
0
2.36751
0
2.36742
0
2.36733
0
2.36724
0
2.36715
0
2.36706
0
2.36698
0
2.36689
0
2.3668
0
2.36671
0
2.36662
0
2.36653
0
2.36644
0
2.36636
0
2.36627
0
2.36618
0
2.36609
0
2.366
0
2.36591
0
2.36582
0
2.36574
0
2.36565
0
2.36556
0
2.36547
0
2.36538
0
2.36529
0
2.3652
0
2.36512
0
2.36503
0
2.36494
0
2.36485
0
2.36476
0
2.36467
0
2.36459
0
2.3645
0
2.36441
0
2.36432
0
2.36423
0
2.36414
0
2.36406
0
2.36397
0
2.36388
0
2.36379
0
2.3637
0
2.36361
0
2.36353
0
2.36344
0
2.36335
0
2.36326
0
2.36317
0
2.36309
0
2.363
0
2.36291
0
2.36282
0
2.36273
0
2.36264
0
2.36256
0
2.36247
0
2.36238
0
2.36229
0
2.3622
0
2.36212
0
2.36203
0
2.36194
0
2.36185
0
2.36176
0
2.36168
0
2.36159
0
2.3615
0
2.36141
0
2.36132
0
2.36124
0
2.36115
0
2.36106
0
2.36097
0
2.36088
0
2.3608
0
2.36071
0
2.36062
0
2.36053
0
2.36044
0
2.36036
0
2.36027
0
2.36018
0
2.36009
0
2.36
0
2.35992
0
2.35983
0
2.35974
0
2.35965
0
2.35957
0
2.35948
0
2.35939
0
2.3593
0
2.35921
0
2.35913
0
2.35904
0
2.35895
0
2.35886
0
2.35878
0
2.35869
0
2.3586
0
2.35851
0
2.35843
0
2.35834
0
2.35825
0
2.35816
0
2.35807
0
2.35799
0
2.3579
0
2.35781
0
2.35772
0
2.35764
0
2.35755
0
2.35746
0
2.35737
0
2.35729
0
2.3572
0
2.35711
0
2.35702
0
2.35694
0
2.35685
0
2.35676
0
2.35667
0
2.35659
0
2.3565
0
2.35641
0
2.35632
0
2.35624
0
2.35615
0
2.35606
0
2.35597
0
2.35589
0
2.3558
0
2.35571
0
2.35562
0
2.35554
0
2.35545
0
2.35536
0
2.35528
0
2.35519
0
2.3551
0
2.35501
0
2.35493
0
2.35484
0
2.35475
0
2.35466
0
2.35458
0
2.35449
0
2.3544
0
2.35432
0
2.35423
0
2.35414
0
2.35405
0
2.35397
0
2.35388
0
2.35379
0
2.35371
0
2.35362
0
2.35353
0
2.35344
0
2.35336
0
2.35327
0
2.35318
0
2.3531
0
2.35301
0
2.35292
0
2.35283
0
2.35275
0
2.35266
0
2.35257
0
2.35249
0
2.3524
0
2.35231
0
2.35223
0
2.35214
0
2.35205
12.5625
2.35196
-34.2579
2.35188
58.4779
2.35179
108.229
2.3517
-81.7809
2.35162
65.5714
2.35153
25.3302
2.35144
31.0022
2.35136
58.5381
2.35127
18.6815
2.35118
174.487
2.3511
30.4574
2.35101
137.276
2.35092
405.217
2.35083
188.655
2.35075
190.798
2.35066
-20.7534
2.35057
119.223
2.35049
164.205
2.3504
117.478
2.35031
262.287
2.35023
289.559
2.35014
358.692
2.35005
399.119
2.34997
114.184
2.34988
379.565
2.34979
572.094
2.34971
461.065
2.34962
370.325
2.34953
334.702
2.34945
297.894
2.34936
518.297
2.34927
546.767
2.34919
648.473
2.3491
586.034
2.34901
678.71
2.34893
565.924
2.34884
540.579
2.34875
713.937
2.34867
530.469
2.34858
551.049
2.34849
555.238
2.34841
756.695
2.34832
908.405
2.34823
769.592
2.34815
605.097
2.34806
903.796
2.34797
782.012
2.34789
910.326
2.3478
840.979
2.34772
878.719
2.34763
847.888
2.34754
870.61
2.34746
1009.35
2.34737
979.929
2.34728
1084.85
2.3472
1230.21
2.34711
1256.62
2.34702
979.598
2.34694
1067.58
2.34685
1094.22
2.34676
1086.34
2.34668
1258.96
2.34659
1346.99
2.34651
1262.93
2.34642
1439.87
2.34633
1353.21
2.34625
1506.11
2.34616
1476.14
2.34607
1647.26
2.34599
1515.08
2.3459
1548.98
2.34581
1691
2.34573
1679.6
2.34564
1564.94
2.34556
1700.19
2.34547
1518.41
2.34538
1747.97
2.3453
1784.62
2.34521
1811.22
2.34512
1483.67
2.34504
1553.38
2.34495
1794.44
2.34487
1972.72
2.34478
1925.59
2.34469
1866.73
2.34461
1781.67
2.34452
1962.62
2.34444
2242.53
2.34435
2151.43
2.34426
2143.31
2.34418
2020.3
2.34409
2077.52
2.34401
2177.88
2.34392
2393.24
2.34383
2253.47
2.34375
2290.99
2.34366
2271.87
2.34357
2473.91
2.34349
2305.87
2.3434
2528.94
2.34332
2350.8
2.34323
2594.42
2.34314
2449.41
2.34306
2373.22
2.34297
2551.75
2.34289
2471.29
2.3428
2531.26
2.34272
2556.4
2.34263
2634.92
2.34254
2750.61
2.34246
2969
2.34237
2875.98
2.34229
2701.85
2.3422
2959.53
2.34211
2856.86
2.34203
2735.11
2.34194
2969.51
2.34186
2840.3
2.34177
2731.75
2.34168
2911.51
2.3416
2862.15
2.34151
2635.07
2.34143
2677.29
2.34134
2633.91
2.34126
3059.21
2.34117
2740.88
2.34108
2898.41
2.341
2920.99
2.34091
2743.56
2.34083
2698.03
2.34074
2910.08
2.34066
2817.73
2.34057
2894.95
2.34048
2882.84
2.3404
3132.92
2.34031
3234.03
2.34023
2950.08
2.34014
3067.8
2.34006
3213.97
2.33997
3136.45
2.33988
3275.86
2.3398
3056.66
2.33971
2977.47
2.33963
3190.28
2.33954
3402.88
2.33946
3273.88
2.33937
3372.82
2.33929
3609.3
2.3392
3396.99
2.33911
3623.5
2.33903
3469.86
2.33894
3370.99
2.33886
3746.59
2.33877
3812.64
2.33869
3780.22
2.3386
3491.33
2.33852
3764.87
2.33843
3732.34
2.33834
3878.95
2.33826
3858.3
2.33817
3808.25
2.33809
4000.84
2.338
3862.81
2.33792
4133.81
2.33783
3799.13
2.33775
4075.29
2.33766
4179.9
2.33758
3930.63
2.33749
4208.5
2.33741
4192.54
2.33732
4130.23
2.33723
4118.19
2.33715
4401.61
2.33706
4296.79
2.33698
4449.93
2.33689
4629.18
2.33681
4508.75
2.33672
4495.48
2.33664
4644.87
2.33655
4603.06
2.33647
4496.9
2.33638
4590.86
2.3363
4653.77
2.33621
4685.05
2.33613
4595.82
2.33604
4720.49
2.33596
4941.66
2.33587
4773.35
2.33579
4825.65
2.3357
4723.62
2.33562
4986.6
2.33553
4865.4
2.33545
4874.42
2.33536
4893.58
2.33527
4905.47
2.33519
4704.1
2.3351
4654.81
2.33502
4675.36
2.33493
4601.05
2.33485
4579.78
2.33476
4719.54
2.33468
4631.3
2.33459
4708.73
2.33451
4643.42
2.33442
4632.47
2.33434
4645.46
2.33425
4492.59
2.33417
4513.17
2.33408
4319.61
2.334
4535.64
2.33391
4702.16
2.33383
4269.97
2.33374
4637.94
2.33366
4445.27
2.33357
4496.31
2.33349
4676.87
2.3334
4502.32
2.33332
4453.36
2.33323
4272.89
2.33315
4169.77
2.33306
4200.32
2.33298
3983.27
2.3329
3927.6
2.33281
3919.5
2.33273
3975.23
2.33264
4052.54
2.33256
3923.75
2.33247
3981.9
2.33239
3773.86
2.3323
3855.51
2.33222
3878.12
2.33213
3658.62
2.33205
3681.16
2.33196
3305.94
2.33188
3382.8
2.33179
3276.91
2.33171
3382.26
2.33162
3398.55
2.33154
3367.77
2.33145
3422.82
2.33137
3421.97
2.33128
3023.89
2.3312
3182.58
2.33112
3111.11
2.33103
3159.24
2.33095
3164.49
2.33086
3130.36
2.33078
3030.9
2.33069
2980.62
2.33061
3088.99
2.33052
3235.41
2.33044
3182
2.33035
3193.61
2.33027
3160.75
2.33018
3174.32
2.3301
3067.55
2.33002
3067.27
2.32993
3346.04
2.32985
3148.65
2.32976
3365.77
2.32968
3395.35
2.32959
3214.02
2.32951
3278.33
2.32942
3350.11
2.32934
3256.17
2.32926
3440.26
2.32917
3330.29
2.32909
3046.67
2.329
3176.34
2.32892
3526.63
2.32883
3461.17
2.32875
3140.46
2.32866
3130.33
2.32858
3350.71
2.3285
3329.75
2.32841
3501.18
2.32833
3446.48
2.32824
3329.21
2.32816
3333.05
2.32807
3544.48
2.32799
3633.42
2.3279
3623.43
2.32782
3707.64
2.32774
3504.08
2.32765
3191.79
2.32757
3307.27
2.32748
3661.38
2.3274
3606.25
2.32731
3635.79
2.32723
3557.56
2.32715
3625.57
2.32706
3722.52
2.32698
3652.4
2.32689
3779.48
2.32681
3983.93
2.32673
3492.24
2.32664
3857
2.32656
4013.21
2.32647
4133.91
2.32639
4197.26
2.3263
3845.09
2.32622
4061.42
2.32614
4168.3
2.32605
3990.77
2.32597
4008.48
2.32588
4019.21
2.3258
4158.37
2.32572
4130.16
2.32563
4141.78
2.32555
3979.72
2.32546
4108.96
2.32538
4143.78
2.3253
4223.19
2.32521
4270.51
2.32513
4166.68
2.32504
4393.79
2.32496
4138.6
2.32488
4238.54
2.32479
4017.97
2.32471
4125.55
2.32462
4145.08
2.32454
3927.8
2.32446
3943.05
2.32437
3681.5
2.32429
3961.6
2.3242
3869.39
2.32412
3658.68
2.32404
3549.23
2.32395
3384.79
2.32387
3418.02
2.32378
3381.78
2.3237
3286.91
2.32362
3279.83
2.32353
3276.03
2.32345
3007.42
2.32337
2813.45
2.32328
2815.29
2.3232
2737.54
2.32311
2713.95
2.32303
2728.88
2.32295
2757.09
2.32286
2758.49
2.32278
2826.96
2.3227
2934.77
2.32261
3201.11
2.32253
3067.73
2.32244
3102.93
2.32236
3013.63
2.32228
3234.04
2.32219
3232.45
2.32211
3275.46
2.32203
3276.46
2.32194
3603.73
2.32186
3667.05
2.32177
3539.77
2.32169
3866.25
2.32161
3589.18
2.32152
3703.68
2.32144
3558.75
2.32136
3722.39
2.32127
3379.24
2.32119
3505.98
2.32111
3535.29
2.32102
3432.46
2.32094
3528.05
2.32086
3435.13
2.32077
3218.4
2.32069
3299.36
2.3206
3061.17
2.32052
3087.54
2.32044
2981.87
2.32035
2769
2.32027
2539.59
2.32019
2534.18
2.3201
2631.59
2.32002
2527.16
2.31994
2662.24
2.31985
2652.1
2.31977
2884.3
2.31969
2917.17
2.3196
3147.68
2.31952
3196.81
2.31944
3338.96
2.31935
3672.99
2.31927
3719.73
2.31919
4009.14
2.3191
4463.5
2.31902
4837.63
2.31894
4792.76
2.31885
4926.5
2.31877
5446.05
2.31869
5658.99
2.3186
5846.27
2.31852
6110.46
2.31844
6301.89
2.31835
6571.05
2.31827
6695.4
2.31819
6805.2
2.3181
6627.29
2.31802
6833.46
2.31794
7124.71
2.31785
7362.6
2.31777
7688.66
2.31769
8207.42
2.3176
9201.18
2.31752
10196.9
2.31744
11722.9
2.31735
13887.4
2.31727
16309.2
2.31719
19846.8
2.3171
24241.6
2.31702
30008
2.31694
37712
2.31686
47684.7
2.31677
60990.3
2.31669
78146.8
2.31661
100828
2.31652
128211
2.31644
161246
2.31636
198243
2.31627
234193
2.31619
259713
2.31611
265517
2.31602
245549
2.31594
206629
2.31586
158718
2.31578
115381
2.31569
81677.5
2.31561
58103.2
2.31553
42112.9
2.31544
32121
2.31536
25439.9
2.31528
21190
2.31519
18104.2
2.31511
16248.5
2.31503
14591.2
2.31495
13324.3
2.31486
12635.9
2.31478
12077.2
2.3147
12370.2
2.31461
12399.4
2.31453
13264.6
2.31445
14281.9
2.31437
15904
2.31428
18220.6
2.3142
21244.4
2.31412
25325
2.31403
31161.2
2.31395
38834.9
2.31387
48873.5
2.31379
62247.9
2.3137
80388.8
2.31362
103201
2.31354
133362
2.31345
171769
2.31337
216060
2.31329
264776
2.31321
309334
2.31312
339724
2.31304
339694
2.31296
306480
2.31288
249315
2.31279
186363
2.31271
130486
2.31263
89823.5
2.31255
61622
2.31246
43037.3
2.31238
31024.7
2.3123
23432.1
2.31221
18050.5
2.31213
14549.6
2.31205
11912.7
2.31197
10176.2
2.31188
8742.28
2.3118
7505.61
2.31172
6677.22
2.31164
5802.09
2.31155
5079.99
2.31147
4750.72
2.31139
4153.29
2.31131
3807.28
2.31122
3394.04
2.31114
3095.03
2.31106
2731.09
2.31098
2459.22
2.31089
2347.97
2.31081
1983.19
2.31073
1789.8
2.31065
1703.01
2.31056
1522.36
2.31048
1251.72
2.3104
1174.82
2.31032
1120.81
2.31023
924.277
2.31015
854.26
2.31007
793.483
2.30999
739.47
2.3099
701.018
2.30982
590.69
2.30974
494.859
2.30966
464.618
2.30958
457.2
2.30949
260.695
2.30941
265.632
2.30933
276.213
2.30925
185.704
2.30916
201.081
2.30908
123.639
2.309
57.2214
2.30892
20.3186
2.30883
-50.6338
2.30875
-21.2345
2.30867
4.37564
2.30859
37.6731
2.30851
-15.6206
2.30842
-19.4055
2.30834
-0.125242
2.30826
-29.2373
2.30818
90.7133
2.30809
129.825
2.30801
-0.713557
2.30793
-0.681974
2.30785
-12.3333
2.30777
0
2.30768
0
2.3076
0
2.30752
0
2.30744
0
2.30736
0
2.30727
0
2.30719
0
2.30711
0
2.30703
0
2.30695
0
2.30686
0
2.30678
0
2.3067
0
2.30662
0
2.30654
0
2.30645
0
2.30637
0
2.30629
0
2.30621
0
2.30613
0
2.30604
0
2.30596
0
2.30588
0
2.3058
0
2.30572
0
2.30563
0
2.30555
end of experiment
