c:\users\mark\owncloud\muelheim group\projects\gas phase background\co in o2 300um nozzle\co3o4_ino2_ivac.vms				
Co2p				
	Characteristic Energy eV	1486.61	Acquisition Time s	1
KE_Co2p	BE_Co2p	CPS_Co2p		
631.61	855	1582.37		
631.91	854.7	1556		
632.21	854.4	1598.85		
632.51	854.1	1647.93		
632.81	853.8	1607.25		
633.11	853.5	1601.37		
633.41	853.2	1636.69		
633.71	852.9	1536.45		
634.01	852.6	1608.21		
634.31	852.3	1665.88		
634.61	852	1544.07		
634.91	851.7	1625.63		
635.21	851.4	1640.44		
635.51	851.1	1588.96		
635.81	850.8	1610.11		
636.11	850.5	1644.47		
636.41	850.2	1558.05		
636.71	849.9	1607.62		
637.01	849.6	1652.88		
637.31	849.3	1655.54		
637.61	849	1649.2		
637.91	848.7	1607.7		
638.21	848.4	1662.02		
638.51	848.1	1688.45		
638.81	847.8	1663.02		
639.11	847.5	1722.73		
639.41	847.2	1666.86		
639.71	846.9	1537.18		
640.01	846.6	1711.15		
640.31	846.3	1768.67		
640.61	846	1672.04		
640.91	845.7	1681.15		
641.21	845.4	1713.81		
641.51	845.1	1739.74		
641.81	844.8	1666.21		
642.11	844.5	1759.02		
642.41	844.2	1792.53		
642.71	843.9	1753.91		
643.01	843.6	1694.93		
643.31	843.3	1718.03		
643.61	843	1722.04		
643.91	842.7	1727.12		
644.21	842.4	1809.87		
644.51	842.1	1675.86		
644.81	841.8	1786.63		
645.11	841.5	1741.69		
645.41	841.2	1826.4		
645.71	840.9	1727.89		
646.01	840.6	1782.16		
646.31	840.3	1812.49		
646.61	840	1751		
646.91	839.7	1862.18		
647.21	839.4	1889.47		
647.51	839.1	1777.91		
647.81	838.8	1782.5		
648.11	838.5	1766.72		
648.41	838.2	1829.62		
648.71	837.9	1756.13		
649.01	837.6	1830.34		
649.31	837.3	1791.67		
649.61	837	1765.63		
649.91	836.7	1783		
650.21	836.4	1743.21		
650.51	836.1	1742.74		
650.81	835.8	1698.07		
651.11	835.5	1764.49		
651.41	835.2	1781.73		
651.71	834.9	1756.94		
652.01	834.6	1717.42		
652.31	834.3	1780.23		
652.61	834	1774.09		
652.91	833.7	1776.65		
653.21	833.4	1712.01		
653.51	833.1	1670.69		
653.81	832.8	1691.13		
654.11	832.5	1807.05		
654.41	832.2	1884.02		
654.71	831.9	1760.83		
655.01	831.6	1695.88		
655.31	831.3	1803.84		
655.61	831	1807.97		
655.91	830.7	1780.31		
656.21	830.4	1662.83		
656.51	830.1	1749.83		
656.81	829.8	1737.38		
657.11	829.5	1654.09		
657.41	829.2	1694.32		
657.71	828.9	1567.96		
658.01	828.6	1554.35		
658.31	828.3	1575.56		
658.61	828	1608.83		
658.91	827.7	1643.26		
659.21	827.4	1626.16		
659.51	827.1	1482.51		
659.81	826.8	1465.09		
660.11	826.5	1516.29		
660.41	826.2	1572.81		
660.71	825.9	1575.62		
661.01	825.6	1491.53		
661.31	825.3	1523.47		
661.61	825	1525.33		
661.91	824.7	1583.7		
662.21	824.4	1553.98		
662.51	824.1	1475.74		
662.81	823.8	1567.43		
663.11	823.5	1566.37		
663.41	823.2	1523.08		
663.71	822.9	1554.77		
664.01	822.6	1507.2		
664.31	822.3	1506.09		
664.61	822	1547.91		
664.91	821.7	1504.57		
665.21	821.4	1453.19		
665.51	821.1	1565.62		
665.81	820.8	1550.48		
666.11	820.5	1466.65		
666.41	820.2	1487.71		
666.71	819.9	1563.74		
667.01	819.6	1537.89		
667.31	819.3	1473.41		
667.61	819	1545.81		
667.91	818.7	1437.3		
668.21	818.4	1507.62		
668.51	818.1	1473.72		
668.81	817.8	1450.02		
669.11	817.5	1420.33		
669.41	817.2	1509.15		
669.71	816.9	1507.42		
670.01	816.6	1497.1		
670.31	816.3	1452.33		
670.61	816	1514.78		
670.91	815.7	1506.14		
671.21	815.4	1558.38		
671.51	815.1	1492.51		
671.81	814.8	1457.75		
672.11	814.5	1502.55		
672.41	814.2	1432		
672.71	813.9	1447.45		
673.01	813.6	1440.75		
673.31	813.3	1371.78		
673.61	813	1452.86		
673.61	813	1452.86		
673.71	812.9	1465.04		
673.81	812.8	1443.57		
673.91	812.7	1451.55		
673.91	812.7	1451.55		
674.01	812.6	1403.57		
674.11	812.5	1454.21		
674.21	812.4	1423.17		
674.21	812.4	1423.17		
674.31	812.3	1409.81		
674.41	812.2	1408.03		
674.51	812.1	1404.84		
674.61	812	1435.93		
674.71	811.9	1424.98		
674.81	811.8	1434.95		
674.91	811.7	1427.18		
675.01	811.6	1462.77		
675.11	811.5	1478.11		
675.21	811.4	1447.12		
675.31	811.3	1418.15		
675.41	811.2	1415.16		
675.51	811.1	1395.77		
675.61	811	1435.55		
675.71	810.9	1418.07		
675.81	810.8	1442.1		
675.91	810.7	1425.75		
676.01	810.6	1440.22		
676.11	810.5	1441.2		
676.21	810.4	1469.23		
676.31	810.3	1433.34		
676.41	810.2	1449.04		
676.51	810.1	1451.86		
676.61	810	1429.51		
676.71	809.9	1451.76		
676.81	809.8	1428.57		
676.91	809.7	1469.17		
677.01	809.6	1452.67		
677.11	809.5	1462.4		
677.21	809.4	1453.17		
677.31	809.3	1417.53		
677.41	809.2	1434.25		
677.51	809.1	1407.01		
677.61	809	1432.04		
677.71	808.9	1473.88		
677.81	808.8	1460.05		
677.91	808.7	1422.76		
678.01	808.6	1430.2		
678.11	808.5	1410.03		
678.21	808.4	1483.91		
678.31	808.3	1469.4		
678.41	808.2	1405.68		
678.51	808.1	1470.95		
678.61	808	1455.81		
678.71	807.9	1453.98		
678.81	807.8	1510.7		
678.91	807.7	1477.07		
679.01	807.6	1458.69		
679.11	807.5	1487.33		
679.21	807.4	1519.41		
679.31	807.3	1476.75		
679.41	807.2	1493.57		
679.51	807.1	1482.25		
679.61	807	1507.63		
679.71	806.9	1485.02		
679.81	806.8	1503		
679.91	806.7	1521.41		
680.01	806.6	1519.39		
680.11	806.5	1512.72		
680.21	806.4	1537.25		
680.31	806.3	1511.63		
680.41	806.2	1541.59		
680.51	806.1	1534.54		
680.61	806	1548		
680.71	805.9	1561.08		
680.81	805.8	1554.82		
680.91	805.7	1549.9		
681.01	805.6	1573.72		
681.11	805.5	1597.53		
681.21	805.4	1591.32		
681.31	805.3	1574.45		
681.41	805.2	1599.12		
681.51	805.1	1613.7		
681.61	805	1617.46		
681.71	804.9	1582.38		
681.81	804.8	1626.67		
681.91	804.7	1607.62		
682.01	804.6	1597.1		
682.11	804.5	1589.35		
682.21	804.4	1575.62		
682.31	804.3	1584.87		
682.41	804.2	1550.76		
682.51	804.1	1562.65		
682.61	804	1589.63		
682.71	803.9	1586.64		
682.81	803.8	1586.15		
682.91	803.7	1578.51		
683.01	803.6	1536.92		
683.11	803.5	1574.58		
683.21	803.4	1599		
683.31	803.3	1598.73		
683.41	803.2	1587.9		
683.51	803.1	1569.1		
683.61	803	1557.33		
683.71	802.9	1544.19		
683.81	802.8	1564.03		
683.91	802.7	1539.58		
684.01	802.6	1566.07		
684.11	802.5	1539.18		
684.21	802.4	1527.86		
684.31	802.3	1534.09		
684.41	802.2	1565.56		
684.51	802.1	1551.9		
684.61	802	1554.38		
684.71	801.9	1560.59		
684.81	801.8	1522.15		
684.91	801.7	1503.86		
685.01	801.6	1555.18		
685.11	801.5	1503.94		
685.21	801.4	1489.51		
685.31	801.3	1522.67		
685.41	801.2	1510.49		
685.51	801.1	1484.6		
685.61	801	1507.44		
685.71	800.9	1512.18		
685.81	800.8	1524.96		
685.91	800.7	1486.9		
686.01	800.6	1520.74		
686.11	800.5	1534.04		
686.21	800.4	1504.44		
686.31	800.3	1521.54		
686.41	800.2	1517.95		
686.51	800.1	1484.03		
686.61	800	1454.36		
686.71	799.9	1486.1		
686.81	799.8	1502.52		
686.91	799.7	1514.86		
687.01	799.6	1528.81		
687.11	799.5	1500.14		
687.21	799.4	1502.05		
687.31	799.3	1526.27		
687.41	799.2	1515.62		
687.51	799.1	1559.49		
687.61	799	1528.84		
687.71	798.9	1545.88		
687.81	798.8	1600.9		
687.91	798.7	1577.47		
688.01	798.6	1531.15		
688.11	798.5	1567.38		
688.21	798.4	1598.64		
688.31	798.3	1636.81		
688.41	798.2	1637.61		
688.51	798.1	1674.29		
688.61	798	1713.6		
688.71	797.9	1705.14		
688.81	797.8	1707.53		
688.91	797.7	1729.95		
689.01	797.6	1753.16		
689.11	797.5	1755.59		
689.21	797.4	1810.27		
689.31	797.3	1830.67		
689.41	797.2	1829.28		
689.51	797.1	1857.76		
689.61	797	1889.62		
689.71	796.9	1920.66		
689.81	796.8	1967.56		
689.91	796.7	1981.31		
690.01	796.6	2009.43		
690.11	796.5	2025.9		
690.21	796.4	2072.21		
690.31	796.3	2057.21		
690.41	796.2	2098.92		
690.51	796.1	2082.23		
690.61	796	2127.16		
690.71	795.9	2164.76		
690.81	795.8	2148.94		
690.91	795.7	2184.39		
691.01	795.6	2217.45		
691.11	795.5	2235.21		
691.21	795.4	2247.25		
691.31	795.3	2252.27		
691.41	795.2	2248.75		
691.51	795.1	2328.68		
691.61	795	2336.63		
691.71	794.9	2317.84		
691.81	794.8	2338.85		
691.91	794.7	2408.76		
692.01	794.6	2431.47		
692.11	794.5	2468.75		
692.21	794.4	2485.89		
692.31	794.3	2412.07		
692.41	794.2	2289.13		
692.51	794.1	2156.54		
692.61	794	2062.28		
692.71	793.9	1933.36		
692.81	793.8	1795.88		
692.91	793.7	1752.98		
693.01	793.6	1661.12		
693.11	793.5	1564.18		
693.21	793.4	1535.75		
693.31	793.3	1513.86		
693.41	793.2	1481.02		
693.51	793.1	1449.51		
693.61	793	1419.22		
693.71	792.9	1398.13		
693.81	792.8	1399.54		
693.91	792.7	1389.97		
694.01	792.6	1375.39		
694.11	792.5	1370.74		
694.21	792.4	1381.71		
694.31	792.3	1371.63		
694.41	792.2	1403.97		
694.51	792.1	1425.96		
694.61	792	1429.15		
694.71	791.9	1421.98		
694.81	791.8	1422.86		
694.91	791.7	1458.38		
695.01	791.6	1418.93		
695.11	791.5	1455.28		
695.21	791.4	1495.47		
695.31	791.3	1516.24		
695.41	791.2	1512.34		
695.51	791.1	1527.83		
695.61	791	1540.64		
695.71	790.9	1510.83		
695.81	790.8	1495.92		
695.91	790.7	1506.64		
696.01	790.6	1549.81		
696.11	790.5	1538.21		
696.21	790.4	1558.79		
696.31	790.3	1544.94		
696.41	790.2	1532.12		
696.51	790.1	1558.26		
696.61	790	1581.01		
696.71	789.9	1611.3		
696.81	789.8	1595.08		
696.91	789.7	1579.57		
697.01	789.6	1573.76		
697.11	789.5	1580.76		
697.21	789.4	1561.24		
697.31	789.3	1579.27		
697.41	789.2	1577.11		
697.51	789.1	1609.28		
697.61	789	1582.42		
697.71	788.9	1583.81		
697.81	788.8	1590.73		
697.91	788.7	1575.05		
698.01	788.6	1639.09		
698.11	788.5	1627.87		
698.21	788.4	1601.34		
698.31	788.3	1561.51		
698.41	788.2	1548.43		
698.51	788.1	1561.22		
698.61	788	1562.69		
698.71	787.9	1527.19		
698.81	787.8	1532.78		
698.91	787.7	1550.89		
699.01	787.6	1545.84		
699.11	787.5	1548.67		
699.21	787.4	1546.54		
699.31	787.3	1567.11		
699.41	787.2	1530.15		
699.51	787.1	1524.41		
699.61	787	1582.07		
699.71	786.9	1551.83		
699.81	786.8	1530.7		
699.91	786.7	1545.85		
700.01	786.6	1525.73		
700.11	786.5	1530.4		
700.21	786.4	1540.77		
700.31	786.3	1553.37		
700.41	786.2	1534.78		
700.51	786.1	1523.34		
700.61	786	1546.57		
700.71	785.9	1540.52		
700.81	785.8	1529.07		
700.91	785.7	1544.2		
701.01	785.6	1570.08		
701.11	785.5	1544.09		
701.21	785.4	1569.67		
701.31	785.3	1578.01		
701.41	785.2	1595.74		
701.51	785.1	1557.04		
701.61	785	1529.68		
701.71	784.9	1532.37		
701.81	784.8	1532.76		
701.91	784.7	1559.47		
702.01	784.6	1586.67		
702.11	784.5	1573.7		
702.21	784.4	1580.34		
702.31	784.3	1593.27		
702.41	784.2	1636.28		
702.51	784.1	1629.58		
702.61	784	1578.47		
702.71	783.9	1619.56		
702.81	783.8	1627.1		
702.91	783.7	1650.41		
703.01	783.6	1647.8		
703.11	783.5	1665.36		
703.21	783.4	1677.26		
703.31	783.3	1711.2		
703.41	783.2	1722.96		
703.51	783.1	1760.4		
703.61	783	1758.88		
703.71	782.9	1791.17		
703.81	782.8	1837.46		
703.91	782.7	1871.93		
704.01	782.6	1917.33		
704.11	782.5	1974.6		
704.21	782.4	2015.54		
704.31	782.3	2033.65		
704.41	782.2	2101.06		
704.51	782.1	2170.06		
704.61	782	2185.85		
704.71	781.9	2249.81		
704.81	781.8	2307.14		
704.91	781.7	2356.78		
705.01	781.6	2444		
705.11	781.5	2508.18		
705.21	781.4	2581.98		
705.31	781.3	2654.49		
705.41	781.2	2689.5		
705.51	781.1	2723.51		
705.61	781	2856.32		
705.71	780.9	2953.86		
705.81	780.8	2990.76		
705.91	780.7	3024.8		
706.01	780.6	3128.84		
706.11	780.5	3166.3		
706.21	780.4	3202.76		
706.31	780.3	3244.2		
706.41	780.2	3269.81		
706.51	780.1	3294.99		
706.61	780	3348.99		
706.71	779.9	3437.4		
706.81	779.8	3530.23		
706.91	779.7	3652.92		
707.01	779.6	3671.63		
707.11	779.5	3722.32		
707.21	779.4	3740.12		
707.31	779.3	3643.35		
707.41	779.2	3388.64		
707.51	779.1	3148.46		
707.61	779	2840.5		
707.71	778.9	2477.1		
707.81	778.8	2193.78		
707.91	778.7	2067.83		
708.01	778.6	1879.48		
708.11	778.5	1759.85		
708.21	778.4	1645.73		
708.31	778.3	1497.85		
708.41	778.2	1386.48		
708.51	778.1	1307.21		
708.61	778	1257.9		
708.71	777.9	1199.92		
708.81	777.8	1179.85		
708.91	777.7	1131.66		
709.01	777.6	1131.19		
709.11	777.5	1122.26		
709.21	777.4	1118.46		
709.31	777.3	1094.61		
709.41	777.2	1081.09		
709.51	777.1	1091.23		
709.61	777	1099.51		
709.71	776.9	1055.07		
709.81	776.8	1054.8		
709.91	776.7	1046.11		
710.01	776.6	1049.11		
710.11	776.5	1019.4		
710.21	776.4	1003.81		
710.31	776.3	1035.46		
710.41	776.2	995.781		
710.51	776.1	1014.31		
710.61	776	987.722		
710.71	775.9	998.136		
710.81	775.8	994.446		
710.91	775.7	1017.21		
711.01	775.6	997.359		
711.11	775.5	999.091		
711.21	775.4	966.162		
711.31	775.3	964.826		
711.41	775.2	974.956		
711.41	775.2	974.956		
711.51	775.1	943.402		
711.61	775	983.79		
711.71	774.9	995.332		
711.71	774.9	995.332		
711.81	774.8	963.638		
711.91	774.7	937.599		
712.01	774.6	934.534		
712.01	774.6	934.534		
712.11	774.5	899.239		
712.21	774.4	948.122		
712.31	774.3	927.08		
712.31	774.3	927.08		
712.41	774.2	941.236		
712.51	774.1	951.046		
712.61	774	920.146		
712.61	774	920.146		
712.91	773.7	961.776		
713.21	773.4	953.808		
713.51	773.1	941.466		
713.81	772.8	906.107		
714.11	772.5	894.981		
714.41	772.2	856.083		
714.71	771.9	899.764		
715.01	771.6	873.575		
715.31	771.3	934.082		
715.61	771	859.862		
715.91	770.7	855.894		
716.21	770.4	881.361		
716.51	770.1	802.647		
716.81	769.8	882.554		
717.11	769.5	822.752		
717.41	769.2	823.806		
717.71	768.9	812.827		
718.01	768.6	762.64		
718.31	768.3	743.922		
718.61	768	674.526		
718.91	767.7	658.304		
719.21	767.4	667.689		
719.51	767.1	666.078		
719.81	766.8	601.211		
720.11	766.5	589.63		
720.41	766.2	590.045		
720.71	765.9	555.727		
721.01	765.6	573.973		
721.31	765.3	615.77		
721.61	765	515.513		
721.91	764.7	547.207		
722.21	764.4	547.605		
722.51	764.1	562.735		
722.81	763.8	543.536		
723.11	763.5	592.312		
723.41	763.2	535.052		
723.71	762.9	539.152		
724.01	762.6	552.207		
724.31	762.3	515.737		
724.61	762	494.806		
724.91	761.7	557.243		
725.21	761.4	519.444		
725.51	761.1	514.852		
725.81	760.8	550.681		
726.11	760.5	549.584		
726.41	760.2	512.821		
726.71	759.9	558.224		
727.01	759.6	503.548		
727.31	759.3	497.565		
727.61	759	503.081		
727.91	758.7	495.947		
728.21	758.4	527.548		
728.51	758.1	497.948		
728.81	757.8	518.457		
729.11	757.5	485.937		
729.41	757.2	487.235		
729.71	756.9	500.103		
730.01	756.6	462.79		
730.31	756.3	440.947		
730.61	756	502.265		
730.91	755.7	492.043		
731.21	755.4	469.571		
731.51	755.1	471.717		
731.81	754.8	475.626		
732.11	754.5	442.094		
732.41	754.2	458.274		
732.71	753.9	433.473		
733.01	753.6	474.607		
733.31	753.3	441.578		
733.61	753	453.516		
733.91	752.7	472.133		
734.21	752.4	435.266		
734.51	752.1	450.123		
734.81	751.8	427.803		
735.11	751.5	482.089		
735.41	751.2	438.579		
735.71	750.9	441.943		
736.01	750.6	424.099		
736.31	750.3	447.761		
736.61	750	452.978		
