C:\Users\Mark\ownCloud\Muelheim Group\Projects\Gas phase background\EX321_CEC356_Au Ag and Cu in O2.vms
Pr:Cu2p
	Characteristic Energy eV	1486.61	Acquisition Time s	1
KE_Pr:Cu2p	BE_Pr:Cu2p	CPS_Pr:Cu2p	Background_Pr:Cu2p
456.61	1030	2064.1	2064.1
456.71	1029.9	2049.17	2049.17
456.81	1029.8	2045.77	2045.77
456.91	1029.7	2009.19	2009.19
457.01	1029.6	2025.51	2025.51
457.11	1029.5	2006.53	2006.53
457.21	1029.4	1996.58	1996.58
457.31	1029.3	2062.85	2062.85
457.41	1029.2	2051.74	2051.74
457.51	1029.1	2049.05	2049.05
457.61	1029	2024.62	2024.62
457.71	1028.9	2066.68	2066.68
457.81	1028.8	2071.08	2071.08
457.91	1028.7	2012.3	2012.3
458.01	1028.6	2052.17	2052.17
458.11	1028.5	2057.49	2057.49
458.21	1028.4	2074.41	2074.41
458.31	1028.3	2062.73	2062.73
458.41	1028.2	2033.74	2033.74
458.51	1028.1	2109.1	2109.1
458.61	1028	2051.33	2051.33
458.71	1027.9	2053.25	2053.25
458.81	1027.8	2044.29	2044.29
458.91	1027.7	2033.48	2033.48
459.01	1027.6	2031.97	2031.97
459.11	1027.5	2062.74	2062.74
459.21	1027.4	2076.45	2076.45
459.31	1027.3	2066.97	2066.97
459.41	1027.2	2051.9	2051.9
459.51	1027.1	2062.14	2062.14
459.61	1027	2043.77	2043.77
459.71	1026.9	2031.62	2031.62
459.81	1026.8	2020.98	2020.98
459.91	1026.7	2055.12	2055.12
460.01	1026.6	2056.57	2056.57
460.11	1026.5	2101.52	2101.52
460.21	1026.4	2041.49	2041.49
460.31	1026.3	2042.84	2042.84
460.41	1026.2	2063.77	2063.77
460.51	1026.1	2055.46	2055.46
460.61	1026	2035.13	2035.13
460.71	1025.9	2064.06	2064.06
460.81	1025.8	2099.23	2099.23
460.91	1025.7	2088.5	2088.5
461.01	1025.6	2093.01	2093.01
461.11	1025.5	2063.42	2063.42
461.21	1025.4	2046.56	2046.56
461.31	1025.3	2121.5	2121.5
461.41	1025.2	2091.52	2091.52
461.51	1025.1	2146.9	2146.9
461.61	1025	2114.55	2114.55
461.71	1024.9	2085.95	2085.95
461.81	1024.8	2059.43	2059.43
461.91	1024.7	2085.9	2085.9
462.01	1024.6	2068.72	2068.72
462.11	1024.5	2025.84	2025.84
462.21	1024.4	2043.33	2043.33
462.31	1024.3	2082.44	2082.44
462.41	1024.2	2100.81	2100.81
462.51	1024.1	2078.57	2078.57
462.61	1024	2068.13	2068.13
462.71	1023.9	2002.48	2002.48
462.81	1023.8	2080.11	2080.11
462.91	1023.7	2082.06	2082.06
463.01	1023.6	2047.25	2047.25
463.11	1023.5	2025.78	2025.78
463.21	1023.4	2106.09	2106.09
463.31	1023.3	2109.15	2109.15
463.41	1023.2	2058.28	2058.28
463.51	1023.1	2094.15	2094.15
463.61	1023	2082.93	2082.93
463.71	1022.9	2106.57	2106.57
463.81	1022.8	2096.61	2096.61
463.91	1022.7	2147.59	2147.59
464.01	1022.6	2116.96	2116.96
464.11	1022.5	2096.46	2096.46
464.21	1022.4	2097.57	2097.57
464.31	1022.3	2080.38	2080.38
464.41	1022.2	2073.8	2073.8
464.51	1022.1	2127.87	2127.87
464.61	1022	2134.55	2134.55
464.71	1021.9	2097.87	2097.87
464.81	1021.8	2039.62	2039.62
464.91	1021.7	2073.89	2073.89
465.01	1021.6	2098.61	2098.61
465.11	1021.5	2106.23	2106.23
465.21	1021.4	2078.91	2078.91
465.31	1021.3	2106.98	2106.98
465.41	1021.2	2169.21	2169.21
465.51	1021.1	2138.88	2138.88
465.61	1021	2111.39	2111.39
465.71	1020.9	2069.1	2069.1
465.81	1020.8	2072.4	2072.4
465.91	1020.7	2108.07	2108.07
466.01	1020.6	2082.58	2082.58
466.11	1020.5	2092.78	2092.78
466.21	1020.4	2095.46	2095.46
466.31	1020.3	2094.36	2094.36
466.41	1020.2	2129.16	2129.16
466.51	1020.1	2131.25	2131.25
466.61	1020	2100.66	2100.66
466.71	1019.9	2084.32	2084.32
466.81	1019.8	2174.15	2174.15
466.91	1019.7	2144.61	2144.61
467.01	1019.6	2145.86	2145.86
467.11	1019.5	2147.57	2147.57
467.21	1019.4	2141.42	2141.42
467.31	1019.3	2157.98	2157.98
467.41	1019.2	2139.94	2139.94
467.51	1019.1	2121.05	2121.05
467.61	1019	2124.92	2124.92
467.71	1018.9	2135.63	2135.63
467.81	1018.8	2116.15	2116.15
467.91	1018.7	2123.07	2123.07
468.01	1018.6	2109.63	2109.63
468.11	1018.5	2095.66	2095.66
468.21	1018.4	2123.61	2123.61
468.31	1018.3	2109.88	2109.88
468.41	1018.2	2132.75	2132.75
468.51	1018.1	2110.55	2110.55
468.61	1018	2148.62	2148.62
468.71	1017.9	2141.05	2141.05
468.81	1017.8	2157.88	2157.88
468.91	1017.7	2159.15	2159.15
469.01	1017.6	2159.1	2159.1
469.11	1017.5	2177.93	2177.93
469.21	1017.4	2166.59	2166.59
469.31	1017.3	2181.38	2181.38
469.41	1017.2	2182.02	2182.02
469.51	1017.1	2156.45	2156.45
469.61	1017	2150.99	2150.99
469.71	1016.9	2105	2105
469.81	1016.8	2110.87	2110.87
469.91	1016.7	2153.88	2153.88
470.01	1016.6	2210.91	2210.91
470.11	1016.5	2176.43	2176.43
470.21	1016.4	2172.56	2172.56
470.31	1016.3	2187.71	2187.71
470.41	1016.2	2147.62	2147.62
470.51	1016.1	2128.4	2128.4
470.61	1016	2142.55	2142.55
470.71	1015.9	2120.35	2120.35
470.81	1015.8	2148.93	2148.93
470.91	1015.7	2119.14	2119.14
471.01	1015.6	2089.51	2089.51
471.11	1015.5	2141.34	2141.34
471.21	1015.4	2161.95	2161.95
471.31	1015.3	2136.47	2136.47
471.41	1015.2	2123.55	2123.55
471.51	1015.1	2159.06	2159.06
471.61	1015	2189.34	2189.34
471.71	1014.9	2192.57	2192.57
471.81	1014.8	2163.01	2163.01
471.91	1014.7	2151.63	2151.63
472.01	1014.6	2146.58	2146.58
472.11	1014.5	2154.53	2154.53
472.21	1014.4	2160.79	2160.79
472.31	1014.3	2202.59	2202.59
472.41	1014.2	2219.19	2219.19
472.51	1014.1	2144.87	2144.87
472.61	1014	2144.96	2144.96
472.71	1013.9	2123.32	2123.32
472.81	1013.8	2141.87	2141.87
472.91	1013.7	2132.45	2132.45
473.01	1013.6	2180.44	2180.44
473.11	1013.5	2200.87	2200.87
473.21	1013.4	2180.55	2180.55
473.31	1013.3	2154.92	2154.92
473.41	1013.2	2163.3	2163.3
473.51	1013.1	2144.55	2144.55
473.61	1013	2161.07	2161.07
473.71	1012.9	2207.41	2207.41
473.81	1012.8	2166.43	2166.43
473.91	1012.7	2118.83	2118.83
474.01	1012.6	2159.31	2159.31
474.11	1012.5	2164.16	2164.16
474.21	1012.4	2185.6	2185.6
474.31	1012.3	2128.23	2128.23
474.41	1012.2	2155.77	2155.77
474.51	1012.1	2175.39	2175.39
474.61	1012	2177.2	2177.2
474.71	1011.9	2168.69	2168.69
474.81	1011.8	2161.76	2161.76
474.91	1011.7	2191.08	2191.08
475.01	1011.6	2183.28	2183.28
475.11	1011.5	2133.39	2133.39
475.21	1011.4	2121.32	2121.32
475.31	1011.3	2180.76	2180.76
475.41	1011.2	2158.6	2158.6
475.51	1011.1	2177.87	2177.87
475.61	1011	2169.04	2169.04
475.71	1010.9	2194.43	2194.43
475.81	1010.8	2227.91	2227.91
475.91	1010.7	2150.25	2150.25
476.01	1010.6	2162.95	2162.95
476.11	1010.5	2209.3	2209.3
476.21	1010.4	2191.26	2191.26
476.31	1010.3	2141.93	2141.93
476.41	1010.2	2197.06	2197.06
476.51	1010.1	2223.4	2223.4
476.61	1010	2187.52	2187.52
476.71	1009.9	2196.93	2196.93
476.81	1009.8	2174.38	2174.38
476.91	1009.7	2145.78	2145.78
477.01	1009.6	2204.76	2204.76
477.11	1009.5	2179.7	2179.7
477.21	1009.4	2192.3	2192.3
477.31	1009.3	2191.75	2191.75
477.41	1009.2	2138.61	2138.61
477.51	1009.1	2202.32	2202.32
477.61	1009	2192.14	2192.14
477.71	1008.9	2224.92	2224.92
477.81	1008.8	2201.95	2201.95
477.91	1008.7	2194.8	2194.8
478.01	1008.6	2209.56	2209.56
478.11	1008.5	2206.94	2206.94
478.21	1008.4	2178.36	2178.36
478.31	1008.3	2148.24	2148.24
478.41	1008.2	2189.02	2189.02
478.51	1008.1	2177.1	2177.1
478.61	1008	2180.83	2180.83
478.71	1007.9	2229.7	2229.7
478.81	1007.8	2201.43	2201.43
478.91	1007.7	2179.71	2179.71
479.01	1007.6	2189.42	2189.42
479.11	1007.5	2180.16	2180.16
479.21	1007.4	2223.53	2223.53
479.31	1007.3	2213.79	2213.79
479.41	1007.2	2198.12	2198.12
479.51	1007.1	2175.16	2175.16
479.61	1007	2208.6	2208.6
479.71	1006.9	2192.69	2192.69
479.81	1006.8	2211.58	2211.58
479.91	1006.7	2204.69	2204.69
480.01	1006.6	2240.53	2240.53
480.11	1006.5	2217.88	2217.88
480.21	1006.4	2213.63	2213.63
480.31	1006.3	2225.71	2225.71
480.41	1006.2	2248.51	2248.51
480.51	1006.1	2216.73	2216.73
480.61	1006	2207.56	2207.56
480.71	1005.9	2219.31	2219.31
480.81	1005.8	2237.72	2237.72
480.91	1005.7	2254.47	2254.47
481.01	1005.6	2228.65	2228.65
481.11	1005.5	2219.82	2219.82
481.21	1005.4	2223.06	2223.06
481.31	1005.3	2252.43	2252.43
481.41	1005.2	2227.16	2227.16
481.51	1005.1	2209.51	2209.51
481.61	1005	2255.77	2255.77
481.71	1004.9	2255.82	2255.82
481.81	1004.8	2249.14	2249.14
481.91	1004.7	2203.87	2203.87
482.01	1004.6	2216.87	2216.87
482.11	1004.5	2263.94	2263.94
482.21	1004.4	2248.42	2248.42
482.31	1004.3	2218.08	2218.08
482.41	1004.2	2200.91	2200.91
482.51	1004.1	2178.02	2178.02
482.61	1004	2189.44	2189.44
482.71	1003.9	2209.41	2209.41
482.81	1003.8	2221.04	2221.04
482.91	1003.7	2197.06	2197.06
483.01	1003.6	2194.28	2194.28
483.11	1003.5	2216.88	2216.88
483.21	1003.4	2216.31	2216.31
483.31	1003.3	2181.74	2181.74
483.41	1003.2	2266.96	2266.96
483.51	1003.1	2243.93	2243.93
483.61	1003	2201.54	2201.54
483.71	1002.9	2185.04	2185.04
483.81	1002.8	2198.3	2198.3
483.91	1002.7	2229.04	2229.04
484.01	1002.6	2260.46	2260.46
484.11	1002.5	2254.24	2254.24
484.21	1002.4	2283.62	2283.62
484.31	1002.3	2243.7	2243.7
484.41	1002.2	2255.97	2255.97
484.51	1002.1	2236.09	2236.09
484.61	1002	2236.61	2236.61
484.71	1001.9	2214.45	2214.45
484.81	1001.8	2235.66	2235.66
484.91	1001.7	2206.18	2206.18
485.01	1001.6	2219.7	2219.7
485.11	1001.5	2243.97	2243.97
485.21	1001.4	2194.59	2194.59
485.31	1001.3	2193.7	2193.7
485.41	1001.2	2257.56	2257.56
485.51	1001.1	2217.22	2217.22
485.61	1001	2212.35	2212.35
485.71	1000.9	2170.25	2170.25
485.81	1000.8	2233.46	2233.46
485.91	1000.7	2189.62	2189.62
486.01	1000.6	2200.51	2200.51
486.11	1000.5	2196.27	2196.27
486.21	1000.4	2229.09	2229.09
486.31	1000.3	2253.07	2253.07
486.41	1000.2	2249.06	2249.06
486.51	1000.1	2213.32	2213.32
486.61	1000	2257.41	2257.41
486.71	999.9	2211.75	2211.75
486.81	999.8	2230.45	2230.45
486.91	999.7	2223.56	2223.56
487.01	999.6	2254.24	2254.24
487.11	999.5	2259.95	2259.95
487.21	999.4	2277.17	2277.17
487.31	999.3	2225.18	2225.18
487.41	999.2	2236.95	2236.95
487.51	999.1	2244.15	2244.15
487.61	999	2193.42	2193.42
487.71	998.9	2184.66	2184.66
487.81	998.8	2202.18	2202.18
487.91	998.7	2220.3	2220.3
488.01	998.6	2212.77	2212.77
488.11	998.5	2189.28	2189.28
488.21	998.4	2206.08	2206.08
488.31	998.3	2244.53	2244.53
488.41	998.2	2303.49	2303.49
488.51	998.1	2271.35	2271.35
488.61	998	2277.72	2277.72
488.71	997.9	2272.58	2272.58
488.81	997.8	2229.4	2229.4
488.91	997.7	2266.62	2266.62
489.01	997.6	2286.11	2286.11
489.11	997.5	2246.19	2246.19
489.21	997.4	2218.39	2218.39
489.31	997.3	2246.4	2246.4
489.41	997.2	2299.82	2299.82
489.51	997.1	2244.7	2244.7
489.61	997	2203.93	2203.93
489.71	996.9	2200.35	2200.35
489.81	996.8	2287.2	2287.2
489.91	996.7	2246.44	2246.44
490.01	996.6	2260.59	2260.59
490.11	996.5	2253.39	2253.39
490.21	996.4	2245.21	2245.21
490.31	996.3	2220.86	2220.86
490.41	996.2	2229.63	2229.63
490.51	996.1	2299.13	2299.13
490.61	996	2269.8	2269.8
490.71	995.9	2227.66	2227.66
490.81	995.8	2256.12	2256.12
490.91	995.7	2250.98	2250.98
491.01	995.6	2276.67	2276.67
491.11	995.5	2260.38	2260.38
491.21	995.4	2253.57	2253.57
491.31	995.3	2289.56	2289.56
491.41	995.2	2306.32	2306.32
491.51	995.1	2262.76	2262.76
491.61	995	2256.37	2256.37
491.71	994.9	2283.96	2283.96
491.81	994.8	2289.48	2289.48
491.91	994.7	2269.89	2269.89
492.01	994.6	2276.25	2276.25
492.11	994.5	2242.7	2242.7
492.21	994.4	2230.37	2230.37
492.31	994.3	2236.17	2236.17
492.41	994.2	2222.78	2222.78
492.51	994.1	2207.96	2207.96
492.61	994	2229.1	2229.1
492.71	993.9	2223.77	2223.77
492.81	993.8	2211.52	2211.52
492.91	993.7	2223.94	2223.94
493.01	993.6	2225.55	2225.55
493.11	993.5	2254.99	2254.99
493.21	993.4	2256.72	2256.72
493.31	993.3	2215.84	2215.84
493.41	993.2	2242.36	2242.36
493.51	993.1	2282.63	2282.63
493.61	993	2278.19	2278.19
493.71	992.9	2200.51	2200.51
493.81	992.8	2242.64	2242.64
493.91	992.7	2309.42	2309.42
494.01	992.6	2325.97	2325.97
494.11	992.5	2283.63	2283.63
494.21	992.4	2274.93	2274.93
494.31	992.3	2205.35	2205.35
494.41	992.2	2204.77	2204.77
494.51	992.1	2254.03	2254.03
494.61	992	2279.36	2279.36
494.71	991.9	2248.09	2248.09
494.81	991.8	2234.41	2234.41
494.91	991.7	2275.49	2275.49
495.01	991.6	2311.31	2311.31
495.11	991.5	2287.5	2287.5
495.21	991.4	2252.35	2252.35
495.31	991.3	2235.73	2235.73
495.41	991.2	2279.82	2279.82
495.51	991.1	2320.47	2320.47
495.61	991	2320.72	2320.72
495.71	990.9	2279.69	2279.69
495.81	990.8	2294.49	2294.49
495.91	990.7	2316.62	2316.62
496.01	990.6	2294.06	2294.06
496.11	990.5	2298.23	2298.23
496.21	990.4	2345.89	2345.89
496.31	990.3	2333.66	2333.66
496.41	990.2	2326.36	2326.36
496.51	990.1	2334.15	2334.15
496.61	990	2305.83	2305.83
496.71	989.9	2296.6	2296.6
496.81	989.8	2327.18	2327.18
496.91	989.7	2272.69	2272.69
497.01	989.6	2264.27	2264.27
497.11	989.5	2277.59	2277.59
497.21	989.4	2283.78	2283.78
497.31	989.3	2309.89	2309.89
497.41	989.2	2257.83	2257.83
497.51	989.1	2302.8	2302.8
497.61	989	2286.49	2286.49
497.71	988.9	2282.59	2282.59
497.81	988.8	2222.74	2222.74
497.91	988.7	2199.73	2199.73
498.01	988.6	2227.29	2227.29
498.11	988.5	2220.81	2220.81
498.21	988.4	2247.88	2247.88
498.31	988.3	2268.74	2268.74
498.41	988.2	2289.28	2289.28
498.51	988.1	2259.64	2259.64
498.61	988	2269.06	2269.06
498.71	987.9	2288.38	2288.38
498.81	987.8	2284.55	2284.55
498.91	987.7	2268.78	2268.78
499.01	987.6	2231.96	2231.96
499.11	987.5	2293.39	2293.39
499.21	987.4	2320.6	2320.6
499.31	987.3	2277.04	2277.04
499.41	987.2	2284.99	2284.99
499.51	987.1	2321.63	2321.63
499.61	987	2344.94	2344.94
499.71	986.9	2297.09	2297.09
499.81	986.8	2281.93	2281.93
499.91	986.7	2323.9	2323.9
500.01	986.6	2315.96	2315.96
500.11	986.5	2314.61	2314.61
500.21	986.4	2329.7	2329.7
500.31	986.3	2274.87	2274.87
500.41	986.2	2281.94	2281.94
500.51	986.1	2276.96	2276.96
500.61	986	2269.18	2269.18
500.71	985.9	2338.09	2338.09
500.81	985.8	2349.15	2349.15
500.91	985.7	2317.82	2317.82
501.01	985.6	2270.35	2270.35
501.11	985.5	2280.58	2280.58
501.21	985.4	2300.07	2300.07
501.31	985.3	2308.46	2308.46
501.41	985.2	2345.71	2345.71
501.51	985.1	2283.72	2283.72
501.61	985	2292.99	2292.99
501.71	984.9	2271	2271
501.81	984.8	2305.68	2305.68
501.91	984.7	2292.54	2292.54
502.01	984.6	2251.54	2251.54
502.11	984.5	2256.58	2256.58
502.21	984.4	2248.87	2248.87
502.31	984.3	2229.93	2229.93
502.41	984.2	2267.94	2267.94
502.51	984.1	2257	2257
502.61	984	2248.43	2248.43
502.71	983.9	2226.87	2226.87
502.81	983.8	2223.2	2223.2
502.91	983.7	2206.59	2206.59
503.01	983.6	2261.37	2261.37
503.11	983.5	2258.17	2258.17
503.21	983.4	2240.9	2240.9
503.31	983.3	2270.52	2270.52
503.41	983.2	2260.15	2260.15
503.51	983.1	2227.3	2227.3
503.61	983	2282.91	2282.91
503.71	982.9	2281.88	2281.88
503.81	982.8	2309.88	2309.88
503.91	982.7	2348.87	2348.87
504.01	982.6	2303.8	2303.8
504.11	982.5	2291.67	2291.67
504.21	982.4	2324.28	2324.28
504.31	982.3	2334.33	2334.33
504.41	982.2	2351.93	2351.93
504.51	982.1	2339.22	2339.22
504.61	982	2312.83	2312.83
504.71	981.9	2356.59	2356.59
504.81	981.8	2371.18	2371.18
504.91	981.7	2385.15	2385.15
505.01	981.6	2430.39	2430.39
505.11	981.5	2418.56	2418.56
505.21	981.4	2359.39	2359.39
505.31	981.3	2321.34	2321.34
505.41	981.2	2432.07	2432.07
505.51	981.1	2380.8	2380.8
505.61	981	2337.33	2337.33
505.71	980.9	2277.36	2277.36
505.81	980.8	2259.1	2259.1
505.91	980.7	2302.74	2302.74
506.01	980.6	2340.78	2340.78
506.11	980.5	2313.13	2313.13
506.21	980.4	2327.7	2327.7
506.31	980.3	2360.64	2360.64
506.41	980.2	2330.78	2330.78
506.51	980.1	2288.54	2288.54
506.61	980	2280.9	2280.9
506.71	979.9	2236.68	2236.68
506.81	979.8	2258.45	2258.45
506.91	979.7	2269.41	2269.41
507.01	979.6	2266.42	2266.42
507.11	979.5	2264.52	2264.52
507.21	979.4	2265.76	2265.76
507.31	979.3	2240.76	2240.76
507.41	979.2	2235.89	2235.89
507.51	979.1	2233.16	2233.16
507.61	979	2241.12	2241.12
507.71	978.9	2221.69	2221.69
507.81	978.8	2218.93	2218.93
507.91	978.7	2269.68	2269.68
508.01	978.6	2244.18	2244.18
508.11	978.5	2167.02	2167.02
508.21	978.4	2226.38	2226.38
508.31	978.3	2257.55	2257.55
508.41	978.2	2267.92	2267.92
508.51	978.1	2273.78	2273.78
508.61	978	2291.14	2291.14
508.71	977.9	2283.55	2283.55
508.81	977.8	2235.18	2235.18
508.91	977.7	2230.74	2230.74
509.01	977.6	2250.14	2250.14
509.11	977.5	2254.5	2254.5
509.21	977.4	2279.45	2279.45
509.31	977.3	2286.31	2286.31
509.41	977.2	2210.7	2210.7
509.51	977.1	2239.96	2239.96
509.61	977	2261.74	2261.74
509.71	976.9	2263.46	2263.46
509.81	976.8	2238.29	2238.29
509.91	976.7	2228.92	2228.92
510.01	976.6	2247.27	2247.27
510.11	976.5	2284.02	2284.02
510.21	976.4	2228.58	2228.58
510.31	976.3	2213.15	2213.15
510.41	976.2	2229.75	2229.75
510.51	976.1	2268.51	2268.51
510.61	976	2258.16	2258.16
510.71	975.9	2256.36	2256.36
510.81	975.8	2241.54	2241.54
510.91	975.7	2275.32	2275.32
511.01	975.6	2218.32	2218.32
511.11	975.5	2253.05	2253.05
511.21	975.4	2293.54	2293.54
511.31	975.3	2286.47	2286.47
511.41	975.2	2278.37	2278.37
511.51	975.1	2272.45	2272.45
511.61	975	2275.44	2275.44
511.71	974.9	2290.53	2290.53
511.81	974.8	2283.37	2283.37
511.91	974.7	2247.43	2247.43
512.01	974.6	2311.32	2311.32
512.11	974.5	2297.33	2297.33
512.21	974.4	2260.08	2260.08
512.31	974.3	2294.52	2294.52
512.41	974.2	2263.17	2263.17
512.51	974.1	2281.24	2281.24
512.61	974	2304.11	2304.11
512.71	973.9	2284.04	2284.04
512.81	973.8	2254.61	2254.61
512.91	973.7	2254.67	2254.67
513.01	973.6	2226.32	2226.32
513.11	973.5	2286.93	2286.93
513.21	973.4	2354.79	2354.79
513.31	973.3	2297.31	2297.31
513.41	973.2	2270.54	2270.54
513.51	973.1	2281.82	2281.82
513.61	973	2294.95	2294.95
513.71	972.9	2278.98	2278.98
513.81	972.8	2230.84	2230.84
513.91	972.7	2267.55	2267.55
514.01	972.6	2260.79	2260.79
514.11	972.5	2265.01	2265.01
514.21	972.4	2273.24	2273.24
514.31	972.3	2267.48	2267.48
514.41	972.2	2228.18	2228.18
514.51	972.1	2274.08	2274.08
514.61	972	2282.55	2282.55
514.71	971.9	2268.44	2268.44
514.81	971.8	2296.66	2296.66
514.91	971.7	2318.83	2318.83
515.01	971.6	2297.19	2297.19
515.11	971.5	2235.26	2235.26
515.21	971.4	2224.75	2224.75
515.31	971.3	2241.72	2241.72
515.41	971.2	2260.2	2260.2
515.51	971.1	2288.58	2288.58
515.61	971	2253.3	2253.3
515.71	970.9	2273.28	2273.28
515.81	970.8	2242.74	2242.74
515.91	970.7	2214.29	2214.29
516.01	970.6	2247.35	2247.35
516.11	970.5	2231.74	2231.74
516.21	970.4	2222.34	2222.34
516.31	970.3	2249.32	2249.32
516.41	970.2	2293.76	2293.76
516.51	970.1	2263.48	2263.48
516.61	970	2188.55	2188.55
516.71	969.9	2270.04	2270.04
516.81	969.8	2273.24	2273.24
516.91	969.7	2262.71	2262.71
517.01	969.6	2329.91	2329.91
517.11	969.5	2286.5	2286.5
517.21	969.4	2233.15	2233.15
517.31	969.3	2230.23	2230.23
517.41	969.2	2208.22	2208.22
517.51	969.1	2226.14	2226.14
517.61	969	2225.31	2225.31
517.71	968.9	2272.19	2272.19
517.81	968.8	2279.94	2279.94
517.91	968.7	2274.75	2274.75
518.01	968.6	2249.58	2249.58
518.11	968.5	2249.79	2249.79
518.21	968.4	2239.68	2239.68
518.31	968.3	2275.3	2275.3
518.41	968.2	2285.83	2285.83
518.51	968.1	2303.56	2303.56
518.61	968	2308.09	2308.09
518.71	967.9	2253.81	2253.81
518.81	967.8	2226.7	2226.7
518.91	967.7	2194.08	2194.08
519.01	967.6	2181.37	2181.37
519.11	967.5	2188.11	2188.11
519.21	967.4	2223.82	2223.82
519.31	967.3	2183.53	2183.53
519.41	967.2	2209.78	2209.78
519.51	967.1	2221.78	2221.78
519.61	967	2259.87	2259.87
519.71	966.9	2180.6	2180.6
519.81	966.8	2194.25	2194.25
519.91	966.7	2248.29	2248.29
520.01	966.6	2257.97	2257.97
520.11	966.5	2235.18	2235.18
520.21	966.4	2242.36	2242.36
520.31	966.3	2214.06	2214.06
520.41	966.2	2190.49	2190.49
520.51	966.1	2209.66	2209.66
520.61	966	2207.57	2207.57
520.71	965.9	2197.89	2197.89
520.81	965.8	2236.43	2236.43
520.91	965.7	2209.24	2209.24
521.01	965.6	2253.21	2253.21
521.11	965.5	2188.86	2188.86
521.21	965.4	2195.17	2195.17
521.31	965.3	2193.9	2193.9
521.41	965.2	2237.98	2237.98
521.51	965.1	2235.49	2235.49
521.61	965	2223.37	2223.37
521.71	964.9	2247.26	2247.26
521.81	964.8	2199.55	2199.55
521.91	964.7	2215.43	2215.43
522.01	964.6	2214.87	2214.87
522.11	964.5	2225.19	2225.19
522.21	964.4	2226.59	2226.59
522.31	964.3	2235.78	2235.78
522.41	964.2	2187.07	2187.07
522.51	964.1	2155.96	2155.96
522.61	964	2193.78	2193.78
522.71	963.9	2199.89	2199.89
522.81	963.8	2220.16	2220.16
522.91	963.7	2231.12	2231.12
523.01	963.6	2191.51	2191.51
523.11	963.5	2225.98	2225.98
523.21	963.4	2231.17	2231.17
523.31	963.3	2193.03	2193.03
523.41	963.2	2190.67	2190.67
523.51	963.1	2266.04	2266.04
523.61	963	2217.34	2217.34
523.71	962.9	2175.73	2175.73
523.81	962.8	2147.43	2147.43
523.91	962.7	2244.24	2244.24
524.01	962.6	2216.21	2216.21
524.11	962.5	2170.15	2170.15
524.21	962.4	2167.42	2167.42
524.31	962.3	2232.23	2232.23
524.41	962.2	2221.6	2221.6
524.51	962.1	2234.69	2234.69
524.61	962	2250.61	2250.61
524.71	961.9	2251.83	2251.83
524.81	961.8	2214.98	2214.98
524.91	961.7	2186.54	2186.54
525.01	961.6	2193.14	2193.14
525.11	961.5	2211.69	2211.69
525.21	961.4	2225.04	2225.04
525.31	961.3	2247.88	2247.88
525.41	961.2	2222.15	2222.15
525.51	961.1	2287.04	2287.04
525.61	961	2262.46	2262.46
525.71	960.9	2255.33	2255.33
525.81	960.8	2249.09	2249.09
525.91	960.7	2221.98	2221.98
526.01	960.6	2237.53	2237.53
526.11	960.5	2211.55	2211.55
526.21	960.4	2225.62	2225.62
526.31	960.3	2276.21	2276.21
526.41	960.2	2218.4	2218.4
526.51	960.1	2223.22	2223.22
526.61	960	2250.99	2250.99
526.71	959.9	2193.19	2193.19
526.81	959.8	2174.04	2174.04
526.91	959.7	2171.82	2171.82
527.01	959.6	2196.83	2196.83
527.11	959.5	2198.19	2198.19
527.21	959.4	2217.84	2217.84
527.31	959.3	2181.88	2181.88
527.41	959.2	2140.6	2140.6
527.51	959.1	2172.66	2172.66
527.61	959	2172.38	2172.38
527.71	958.9	2167.39	2167.39
527.81	958.8	2135.55	2135.55
527.91	958.7	2154.44	2154.44
528.01	958.6	2155.26	2155.26
528.11	958.5	2185.53	2185.53
528.21	958.4	2165.29	2165.29
528.31	958.3	2181.79	2181.79
528.41	958.2	2206.08	2206.08
528.51	958.1	2180.64	2180.64
528.61	958	2179.86	2179.86
528.71	957.9	2163.21	2163.21
528.81	957.8	2144.48	2144.48
528.91	957.7	2164.2	2164.2
529.01	957.6	2181.88	2181.88
529.11	957.5	2165.14	2165.14
529.21	957.4	2157.1	2157.1
529.31	957.3	2104.18	2104.18
529.41	957.2	2120.59	2120.59
529.51	957.1	2160.1	2160.1
529.61	957	2185.53	2185.53
529.71	956.9	2201.76	2201.76
529.81	956.8	2179.12	2179.12
529.91	956.7	2141.01	2141.01
530.01	956.6	2135.6	2135.6
530.11	956.5	2172.23	2172.23
530.21	956.4	2176.88	2176.88
530.31	956.3	2158.63	2158.63
530.41	956.2	2160.18	2160.18
530.51	956.1	2231.23	2231.23
530.61	956	2237.33	2237.33
530.71	955.9	2202.64	2202.64
530.81	955.8	2175.1	2175.1
530.91	955.7	2214.44	2214.44
531.01	955.6	2196.51	2196.51
531.11	955.5	2201.02	2201.02
531.21	955.4	2211.33	2211.33
531.31	955.3	2248.74	2248.74
531.41	955.2	2235.51	2235.51
531.51	955.1	2199.81	2199.81
531.61	955	2201.86	2201.86
531.71	954.9	2223	2223
531.81	954.8	2201.92	2201.92
531.91	954.7	2214.43	2214.43
532.01	954.6	2234.37	2234.37
532.11	954.5	2218.81	2218.81
532.21	954.4	2225.61	2225.61
532.31	954.3	2272.5	2272.5
532.41	954.2	2252.45	2252.45
532.51	954.1	2215.76	2215.76
532.61	954	2238.85	2238.85
532.71	953.9	2231.45	2231.45
532.81	953.8	2277.86	2277.86
532.91	953.7	2312.72	2312.72
533.01	953.6	2320.14	2320.14
533.11	953.5	2320.52	2320.52
533.21	953.4	2314.21	2314.21
533.31	953.3	2295.3	2295.3
533.41	953.2	2368.12	2368.12
533.51	953.1	2449.2	2449.2
533.61	953	2451.82	2451.82
533.71	952.9	2476.53	2476.53
533.81	952.8	2539.22	2539.22
533.91	952.7	2590.29	2590.29
534.01	952.6	2599.07	2599.07
534.11	952.5	2625.97	2625.97
534.21	952.4	2660.59	2660.59
534.31	952.3	2671.98	2671.98
534.41	952.2	2620.95	2620.95
534.51	952.1	2583.58	2583.58
534.61	952	2556.36	2556.36
534.71	951.9	2528.98	2528.98
534.81	951.8	2508.78	2508.78
534.91	951.7	2445.85	2445.85
535.01	951.6	2413.87	2413.87
535.11	951.5	2334.63	2334.63
535.21	951.4	2276.46	2276.46
535.31	951.3	2258.54	2258.54
535.41	951.2	2239.07	2239.07
535.51	951.1	2225.13	2225.13
535.61	951	2219.3	2219.3
535.71	950.9	2194.62	2194.62
535.81	950.8	2228.81	2228.81
535.91	950.7	2238.98	2238.98
536.01	950.6	2238.75	2238.75
536.11	950.5	2215.12	2215.12
536.21	950.4	2202.42	2202.42
536.31	950.3	2173.36	2173.36
536.41	950.2	2170.68	2170.68
536.51	950.1	2184.35	2184.35
536.61	950	2187.21	2187.21
536.71	949.9	2208.24	2208.24
536.81	949.8	2248.06	2248.06
536.91	949.7	2247.57	2247.57
537.01	949.6	2211.9	2211.9
537.11	949.5	2254.72	2254.72
537.21	949.4	2238.89	2238.89
537.31	949.3	2214.85	2214.85
537.41	949.2	2219.89	2219.89
537.51	949.1	2224.22	2224.22
537.61	949	2215.8	2215.8
537.71	948.9	2179.55	2179.55
537.81	948.8	2149.51	2149.51
537.91	948.7	2168.06	2168.06
538.01	948.6	2204.65	2204.65
538.11	948.5	2170.91	2170.91
538.21	948.4	2169.69	2169.69
538.31	948.3	2225.95	2225.95
538.41	948.2	2199.64	2199.64
538.51	948.1	2183.25	2183.25
538.61	948	2176.53	2176.53
538.71	947.9	2165.56	2165.56
538.81	947.8	2153.33	2153.33
538.91	947.7	2163.19	2163.19
539.01	947.6	2164.39	2164.39
539.11	947.5	2125.91	2125.91
539.21	947.4	2163.42	2163.42
539.31	947.3	2162.69	2162.69
539.41	947.2	2163.61	2163.61
539.51	947.1	2161.69	2161.69
539.61	947	2115.71	2115.71
539.71	946.9	2162.42	2162.42
539.81	946.8	2107.57	2107.57
539.91	946.7	2080.2	2080.2
540.01	946.6	2109.36	2109.36
540.11	946.5	2138.39	2138.39
540.21	946.4	2091.12	2091.12
540.31	946.3	2066	2066
540.41	946.2	2091.52	2091.52
540.51	946.1	2098.64	2098.64
540.61	946	2073.97	2073.97
540.71	945.9	2087.41	2087.41
540.81	945.8	2106.4	2106.4
540.91	945.7	2092.8	2092.8
541.01	945.6	2120.51	2120.51
541.11	945.5	2091.67	2091.67
541.21	945.4	2065.68	2065.68
541.31	945.3	2086.75	2086.75
541.41	945.2	2079.75	2079.75
541.51	945.1	2062.72	2062.72
541.61	945	2050.46	2050.46
541.71	944.9	2052.4	2052.4
541.81	944.8	2074.4	2074.4
541.91	944.7	2076.57	2076.57
542.01	944.6	2073.23	2073.23
542.11	944.5	2074.16	2074.16
542.21	944.4	2053.97	2053.97
542.31	944.3	2012.43	2012.43
542.41	944.2	2086.85	2086.85
542.51	944.1	2094.45	2094.45
542.61	944	2093.57	2093.57
542.71	943.9	2040.72	2040.72
542.81	943.8	2027.79	2027.79
542.91	943.7	2088.33	2088.33
543.01	943.6	2083.69	2083.69
543.11	943.5	2060.81	2060.81
543.21	943.4	2044.74	2044.74
543.31	943.3	2091.94	2091.94
543.41	943.2	2122.73	2122.73
543.51	943.1	2086.45	2086.45
543.61	943	2051.28	2051.28
543.71	942.9	2052.48	2052.48
543.81	942.8	2076.84	2076.84
543.91	942.7	2100.33	2100.33
544.01	942.6	2102.26	2102.26
544.11	942.5	2067.8	2067.8
544.21	942.4	2081.86	2081.86
544.31	942.3	2115.21	2115.21
544.41	942.2	2093.77	2093.77
544.51	942.1	2095.22	2095.22
544.61	942	2089.69	2089.69
544.71	941.9	2138.44	2138.44
544.81	941.8	2169.79	2169.79
544.91	941.7	2172.02	2172.02
545.01	941.6	2143.76	2143.76
545.11	941.5	2199.73	2199.73
545.21	941.4	2172.39	2172.39
545.31	941.3	2180.92	2180.92
545.41	941.2	2221.2	2221.2
545.51	941.1	2240.67	2240.67
545.61	941	2234.51	2234.51
545.71	940.9	2213.87	2213.87
545.81	940.8	2196.92	2196.92
545.91	940.7	2222.14	2222.14
546.01	940.6	2202.82	2202.82
546.11	940.5	2176.19	2176.19
546.21	940.4	2183.5	2183.5
546.31	940.3	2158.38	2158.38
546.41	940.2	2149.92	2149.92
546.51	940.1	2138.92	2138.92
546.61	940	2096.8	2096.8
546.71	939.9	2070.09	2070.09
546.81	939.8	2052.6	2052.6
546.91	939.7	2059.25	2059.25
547.01	939.6	2049.28	2049.28
547.11	939.5	2043.01	2043.01
547.21	939.4	2039.6	2039.6
547.31	939.3	2014.17	2014.17
547.41	939.2	2045.45	2045.45
547.51	939.1	2033.96	2033.96
547.61	939	2028.87	2028.87
547.71	938.9	2066.98	2066.98
547.81	938.8	2050.86	2050.86
547.91	938.7	2009.68	2009.68
548.01	938.6	1991.24	1991.24
548.11	938.5	2020.13	2020.13
548.21	938.4	2015.92	2015.92
548.31	938.3	2000.35	2000.35
548.41	938.2	2002.38	2002.38
548.51	938.1	2023.41	2023.41
548.61	938	1999.93	1999.93
548.71	937.9	1978.08	1978.08
548.81	937.8	1997.17	1997.17
548.91	937.7	2004.5	2004.5
549.01	937.6	2045.81	2045.81
549.11	937.5	2027.17	2027.17
549.21	937.4	2062.72	2062.72
549.31	937.3	2078.31	2078.31
549.41	937.2	2018.6	2018.6
549.51	937.1	2007.03	2007.03
549.61	937	2053.6	2053.6
549.71	936.9	2010.51	2010.51
549.81	936.8	1993.77	1993.77
549.91	936.7	2023.62	2023.62
550.01	936.6	2015.36	2015.36
550.11	936.5	2001.74	2001.74
550.21	936.4	2050.84	2050.84
550.31	936.3	2046.92	2046.92
550.41	936.2	2058.94	2058.94
550.51	936.1	2043.73	2043.73
550.61	936	2047.04	2047.04
550.71	935.9	2028.08	2028.08
550.81	935.8	2057.84	2057.84
550.91	935.7	2086.85	2086.85
551.01	935.6	2038.38	2038.38
551.11	935.5	2086.8	2086.8
551.21	935.4	2088.12	2088.12
551.31	935.3	2070.68	2070.68
551.41	935.2	2087.62	2087.62
551.51	935.1	2105.89	2105.89
551.61	935	2124.13	2124.13
551.71	934.9	2090.3	2090.3
551.81	934.8	2119.31	2119.31
551.91	934.7	2083.54	2083.54
552.01	934.6	2116.43	2116.43
552.11	934.5	2115.56	2115.56
552.21	934.4	2124.66	2124.66
552.31	934.3	2132.11	2132.11
552.41	934.2	2101.38	2101.38
552.51	934.1	2157.74	2157.74
552.61	934	2209.9	2209.9
552.71	933.9	2215.4	2215.4
552.81	933.8	2248.08	2248.08
552.91	933.7	2301.54	2301.54
553.01	933.6	2322.38	2322.38
553.11	933.5	2399.45	2399.45
553.21	933.4	2443.03	2443.03
553.31	933.3	2490.08	2490.08
553.41	933.2	2642.38	2642.38
553.51	933.1	2751.56	2751.56
553.61	933	2886.89	2886.89
553.71	932.9	3089.33	3089.33
553.81	932.8	3269.4	3269.4
553.91	932.7	3457.65	3457.65
554.01	932.6	3547.71	3547.71
554.11	932.5	3574.11	3574.11
554.21	932.4	3475.32	3475.32
554.31	932.3	3382.96	3382.96
554.41	932.2	3223.92	3223.92
554.51	932.1	3029.96	3029.96
554.61	932	2863.49	2863.49
554.71	931.9	2725.49	2725.49
554.81	931.8	2563.56	2563.56
554.91	931.7	2354.79	2354.79
555.01	931.6	2273.1	2273.1
555.11	931.5	2223.79	2223.79
555.21	931.4	2187.2	2187.2
555.31	931.3	2187.94	2187.94
555.41	931.2	2151.9	2151.9
555.51	931.1	2146.13	2146.13
555.61	931	2110.48	2110.48
555.71	930.9	2034.34	2034.34
555.81	930.8	2030.81	2030.81
555.91	930.7	2042.99	2042.99
556.01	930.6	2036.98	2036.98
556.11	930.5	2000.3	2000.3
556.21	930.4	1996.02	1996.02
556.31	930.3	2015.37	2015.37
556.41	930.2	2025.07	2025.07
556.51	930.1	2000.23	2000.23
556.61	930	2011.3	2011.3
556.71	929.9	2000.74	2000.74
556.81	929.8	1966.98	1966.98
556.91	929.7	1939.46	1939.46
557.01	929.6	1935.89	1935.89
557.11	929.5	1920.67	1920.67
557.21	929.4	1969.52	1969.52
557.31	929.3	1984.75	1984.75
557.41	929.2	1971.89	1971.89
557.51	929.1	1966.77	1966.77
557.61	929	2003.07	2003.07
557.71	928.9	1974.93	1974.93
557.81	928.8	1954.39	1954.39
557.91	928.7	1996.21	1996.21
558.01	928.6	1955.1	1955.1
558.11	928.5	1959.76	1959.76
558.21	928.4	1945.16	1945.16
558.31	928.3	1985.27	1985.27
558.41	928.2	2028.73	2028.73
558.51	928.1	2025.63	2025.63
558.61	928	1973.46	1973.46
558.71	927.9	1950.98	1950.98
558.81	927.8	1942.85	1942.85
558.91	927.7	1964.69	1964.69
559.01	927.6	1992.35	1992.35
559.11	927.5	1978.37	1978.37
559.21	927.4	1986.63	1986.63
559.31	927.3	1957.38	1957.38
559.41	927.2	1960.52	1960.52
559.51	927.1	1958.96	1958.96
559.61	927	2014.02	2014.02
559.71	926.9	2028.59	2028.59
559.81	926.8	1993.9	1993.9
559.91	926.7	1991.68	1991.68
560.01	926.6	2001.57	2001.57
560.11	926.5	2000.57	2000.57
560.21	926.4	2011.9	2011.9
560.31	926.3	2005.84	2005.84
560.41	926.2	2003.84	2003.84
560.51	926.1	2016.48	2016.48
560.61	926	1984.56	1984.56
560.71	925.9	1982.33	1982.33
560.81	925.8	1993.17	1993.17
560.91	925.7	2008.87	2008.87
561.01	925.6	2055.96	2055.96
561.11	925.5	2015.17	2015.17
561.21	925.4	2004.01	2004.01
561.31	925.3	2015.91	2015.91
561.41	925.2	2008.68	2008.68
561.51	925.1	2003.87	2003.87
561.61	925	2039.51	2039.51
561.71	924.9	2010.75	2010.75
561.81	924.8	1970.14	1970.14
561.91	924.7	1986.4	1986.4
562.01	924.6	1982.47	1982.47
562.11	924.5	1974.13	1974.13
562.21	924.4	2007.39	2007.39
562.31	924.3	1995.01	1995.01
562.41	924.2	2032.39	2032.39
562.51	924.1	2048.11	2048.11
562.61	924	1979.54	1979.54
562.71	923.9	2005.59	2005.59
562.81	923.8	2017.11	2017.11
562.91	923.7	2012.49	2012.49
563.01	923.6	1965.06	1965.06
563.11	923.5	1970.97	1970.97
563.21	923.4	1979.82	1979.82
563.31	923.3	2007.27	2007.27
563.41	923.2	2010.12	2010.12
563.51	923.1	1964.58	1964.58
563.61	923	1981.99	1981.99
563.71	922.9	2038.64	2038.64
563.81	922.8	2054.6	2054.6
563.91	922.7	2050.97	2050.97
564.01	922.6	2058.86	2058.86
564.11	922.5	2013.65	2013.65
564.21	922.4	1998.72	1998.72
564.31	922.3	1978.56	1978.56
564.41	922.2	1986.6	1986.6
564.51	922.1	2006.28	2006.28
564.61	922	1987.98	1987.98
564.71	921.9	1983.49	1983.49
564.81	921.8	2007.75	2007.75
564.91	921.7	2023.08	2023.08
565.01	921.6	2031.34	2031.34
565.11	921.5	2054.2	2054.2
565.21	921.4	2042.74	2042.74
565.31	921.3	1997.77	1997.77
565.41	921.2	2015.19	2015.19
565.51	921.1	2034.6	2034.6
565.61	921	2023.2	2023.2
565.71	920.9	2055.75	2055.75
565.81	920.8	2042.5	2042.5
565.91	920.7	1999.75	1999.75
566.01	920.6	2003.67	2003.67
566.11	920.5	2028.94	2028.94
566.21	920.4	2021.23	2021.23
566.31	920.3	2008.9	2008.9
566.41	920.2	2017.7	2017.7
566.51	920.1	2050.85	2050.85
566.61	920	2074.44	2074.44