C:\Users\Mark\ownCloud\Muelheim Group\Projects\Gas phase background\EX320_CEC356_Cu in He.vms
Pr:Cu2p
	Characteristic Energy eV	1486.61	Acquisition Time s	0.3
KE_Pr:Cu2p	BE_Pr:Cu2p	CPS_Pr:Cu2p	Background_Pr:Cu2p
456.61	1030	118205	118205
456.71	1029.9	118667	118667
456.81	1029.8	118893	118893
456.91	1029.7	119721	119721
457.01	1029.6	119026	119026
457.11	1029.5	118896	118896
457.21	1029.4	118308	118308
457.31	1029.3	119056	119056
457.41	1029.2	118776	118776
457.51	1029.1	118362	118362
457.61	1029	118351	118351
457.71	1028.9	117668	117668
457.81	1028.8	118471	118471
457.91	1028.7	118576	118576
458.01	1028.6	118178	118178
458.11	1028.5	118759	118759
458.21	1028.4	119087	119087
458.31	1028.3	119567	119567
458.41	1028.2	119485	119485
458.51	1028.1	119414	119414
458.61	1028	118785	118785
458.71	1027.9	118822	118822
458.81	1027.8	119115	119115
458.91	1027.7	119733	119733
459.01	1027.6	119499	119499
459.11	1027.5	119651	119651
459.21	1027.4	119572	119572
459.31	1027.3	119516	119516
459.41	1027.2	119010	119010
459.51	1027.1	119174	119174
459.61	1027	119607	119607
459.71	1026.9	119705	119705
459.81	1026.8	119405	119405
459.91	1026.7	119629	119629
460.01	1026.6	120672	120672
460.11	1026.5	120467	120467
460.21	1026.4	119660	119660
460.31	1026.3	119906	119906
460.41	1026.2	120085	120085
460.51	1026.1	120676	120676
460.61	1026	120568	120568
460.71	1025.9	120778	120778
460.81	1025.8	119374	119374
460.91	1025.7	119269	119269
461.01	1025.6	120142	120142
461.11	1025.5	119937	119937
461.21	1025.4	120523	120523
461.31	1025.3	120787	120787
461.41	1025.2	119795	119795
461.51	1025.1	118877	118877
461.61	1025	119731	119731
461.71	1024.9	119835	119835
461.81	1024.8	120089	120089
461.91	1024.7	120659	120659
462.01	1024.6	119637	119637
462.11	1024.5	120223	120223
462.21	1024.4	120398	120398
462.31	1024.3	120517	120517
462.41	1024.2	120915	120915
462.51	1024.1	121779	121779
462.61	1024	121806	121806
462.71	1023.9	120625	120625
462.81	1023.8	119828	119828
462.91	1023.7	119819	119819
463.01	1023.6	120638	120638
463.11	1023.5	121100	121100
463.21	1023.4	120408	120408
463.31	1023.3	120617	120617
463.41	1023.2	121449	121449
463.51	1023.1	121327	121327
463.61	1023	121190	121190
463.71	1022.9	121933	121933
463.81	1022.8	121588	121588
463.91	1022.7	121056	121056
464.01	1022.6	121356	121356
464.11	1022.5	120622	120622
464.21	1022.4	120810	120810
464.31	1022.3	120840	120840
464.41	1022.2	121546	121546
464.51	1022.1	122198	122198
464.61	1022	121809	121809
464.71	1021.9	122023	122023
464.81	1021.8	121162	121162
464.91	1021.7	120866	120866
465.01	1021.6	120727	120727
465.11	1021.5	120884	120884
465.21	1021.4	121215	121215
465.31	1021.3	122485	122485
465.41	1021.2	121659	121659
465.51	1021.1	123146	123146
465.61	1021	123142	123142
465.71	1020.9	121374	121374
465.81	1020.8	121744	121744
465.91	1020.7	121908	121908
466.01	1020.6	122589	122589
466.11	1020.5	123505	123505
466.21	1020.4	123103	123103
466.31	1020.3	123469	123469
466.41	1020.2	122738	122738
466.51	1020.1	122298	122298
466.61	1020	121769	121769
466.71	1019.9	122670	122670
466.81	1019.8	122317	122317
466.91	1019.7	122360	122360
467.01	1019.6	122744	122744
467.11	1019.5	122445	122445
467.21	1019.4	123165	123165
467.31	1019.3	122903	122903
467.41	1019.2	122651	122651
467.51	1019.1	121999	121999
467.61	1019	122653	122653
467.71	1018.9	123556	123556
467.81	1018.8	123765	123765
467.91	1018.7	122730	122730
468.01	1018.6	123837	123837
468.11	1018.5	123465	123465
468.21	1018.4	123610	123610
468.31	1018.3	123183	123183
468.41	1018.2	122571	122571
468.51	1018.1	123455	123455
468.61	1018	123375	123375
468.71	1017.9	123367	123367
468.81	1017.8	123456	123456
468.91	1017.7	123457	123457
469.01	1017.6	124336	124336
469.11	1017.5	123246	123246
469.21	1017.4	123379	123379
469.31	1017.3	123710	123710
469.41	1017.2	122993	122993
469.51	1017.1	123576	123576
469.61	1017	123903	123903
469.71	1016.9	123387	123387
469.81	1016.8	122985	122985
469.91	1016.7	123374	123374
470.01	1016.6	123266	123266
470.11	1016.5	124942	124942
470.21	1016.4	125014	125014
470.31	1016.3	124792	124792
470.41	1016.2	124903	124903
470.51	1016.1	125427	125427
470.61	1016	124805	124805
470.71	1015.9	125593	125593
470.81	1015.8	124760	124760
470.91	1015.7	124595	124595
471.01	1015.6	125216	125216
471.11	1015.5	124554	124554
471.21	1015.4	124611	124611
471.31	1015.3	124171	124171
471.41	1015.2	124594	124594
471.51	1015.1	124455	124455
471.61	1015	124623	124623
471.71	1014.9	125268	125268
471.81	1014.8	124457	124457
471.91	1014.7	124213	124213
472.01	1014.6	125263	125263
472.11	1014.5	125477	125477
472.21	1014.4	124715	124715
472.31	1014.3	124904	124904
472.41	1014.2	125391	125391
472.51	1014.1	125070	125070
472.61	1014	124199	124199
472.71	1013.9	125238	125238
472.81	1013.8	125921	125921
472.91	1013.7	125398	125398
473.01	1013.6	124992	124992
473.11	1013.5	125519	125519
473.21	1013.4	125249	125249
473.31	1013.3	124727	124727
473.41	1013.2	125051	125051
473.51	1013.1	125446	125446
473.61	1013	125435	125435
473.71	1012.9	125747	125747
473.81	1012.8	125666	125666
473.91	1012.7	125065	125065
474.01	1012.6	125500	125500
474.11	1012.5	125461	125461
474.21	1012.4	125997	125997
474.31	1012.3	126352	126352
474.41	1012.2	126806	126806
474.51	1012.1	126611	126611
474.61	1012	125103	125103
474.71	1011.9	125068	125068
474.81	1011.8	126877	126877
474.91	1011.7	126942	126942
475.01	1011.6	126080	126080
475.11	1011.5	125712	125712
475.21	1011.4	125579	125579
475.31	1011.3	125371	125371
475.41	1011.2	126153	126153
475.51	1011.1	126224	126224
475.61	1011	126518	126518
475.71	1010.9	126771	126771
475.81	1010.8	126175	126175
475.91	1010.7	126477	126477
476.01	1010.6	126968	126968
476.11	1010.5	126834	126834
476.21	1010.4	126995	126995
476.31	1010.3	126356	126356
476.41	1010.2	126117	126117
476.51	1010.1	125601	125601
476.61	1010	126614	126614
476.71	1009.9	126946	126946
476.81	1009.8	126657	126657
476.91	1009.7	126815	126815
477.01	1009.6	126337	126337
477.11	1009.5	127681	127681
477.21	1009.4	128069	128069
477.31	1009.3	127278	127278
477.41	1009.2	126849	126849
477.51	1009.1	126966	126966
477.61	1009	127242	127242
477.71	1008.9	127561	127561
477.81	1008.8	128101	128101
477.91	1008.7	128254	128254
478.01	1008.6	127717	127717
478.11	1008.5	128443	128443
478.21	1008.4	128648	128648
478.31	1008.3	127773	127773
478.41	1008.2	127316	127316
478.51	1008.1	127788	127788
478.61	1008	127962	127962
478.71	1007.9	128131	128131
478.81	1007.8	128976	128976
478.91	1007.7	128580	128580
479.01	1007.6	128167	128167
479.11	1007.5	127944	127944
479.21	1007.4	128463	128463
479.31	1007.3	128123	128123
479.41	1007.2	129137	129137
479.51	1007.1	128882	128882
479.61	1007	128599	128599
479.71	1006.9	129296	129296
479.81	1006.8	128827	128827
479.91	1006.7	127811	127811
480.01	1006.6	128178	128178
480.11	1006.5	128821	128821
480.21	1006.4	128846	128846
480.31	1006.3	128605	128605
480.41	1006.2	129210	129210
480.51	1006.1	129741	129741
480.61	1006	129747	129747
480.71	1005.9	129410	129410
480.81	1005.8	129052	129052
480.91	1005.7	129098	129098
481.01	1005.6	129081	129081
481.11	1005.5	128664	128664
481.21	1005.4	128878	128878
481.31	1005.3	129121	129121
481.41	1005.2	129399	129399
481.51	1005.1	129438	129438
481.61	1005	128453	128453
481.71	1004.9	128820	128820
481.81	1004.8	128583	128583
481.91	1004.7	129243	129243
482.01	1004.6	129723	129723
482.11	1004.5	130119	130119
482.21	1004.4	130390	130390
482.31	1004.3	130298	130298
482.41	1004.2	129906	129906
482.51	1004.1	129322	129322
482.61	1004	129609	129609
482.71	1003.9	130581	130581
482.81	1003.8	130080	130080
482.91	1003.7	129973	129973
483.01	1003.6	130095	130095
483.11	1003.5	129865	129865
483.21	1003.4	129723	129723
483.31	1003.3	129722	129722
483.41	1003.2	129896	129896
483.51	1003.1	130587	130587
483.61	1003	130277	130277
483.71	1002.9	130380	130380
483.81	1002.8	130178	130178
483.91	1002.7	130141	130141
484.01	1002.6	130682	130682
484.11	1002.5	130124	130124
484.21	1002.4	129738	129738
484.31	1002.3	129615	129615
484.41	1002.2	130740	130740
484.51	1002.1	130029	130029
484.61	1002	131229	131229
484.71	1001.9	131151	131151
484.81	1001.8	131216	131216
484.91	1001.7	130391	130391
485.01	1001.6	130649	130649
485.11	1001.5	130790	130790
485.21	1001.4	131002	131002
485.31	1001.3	131572	131572
485.41	1001.2	131431	131431
485.51	1001.1	131842	131842
485.61	1001	130789	130789
485.71	1000.9	130233	130233
485.81	1000.8	131421	131421
485.91	1000.7	131611	131611
486.01	1000.6	131935	131935
486.11	1000.5	132045	132045
486.21	1000.4	133034	133034
486.31	1000.3	132406	132406
486.41	1000.2	131570	131570
486.51	1000.1	131301	131301
486.61	1000	132275	132275
486.71	999.9	133436	133436
486.81	999.8	132565	132565
486.91	999.7	131417	131417
487.01	999.6	131802	131802
487.11	999.5	132502	132502
487.21	999.4	132098	132098
487.31	999.3	132008	132008
487.41	999.2	132966	132966
487.51	999.1	132787	132787
487.61	999	132845	132845
487.71	998.9	132663	132663
487.81	998.8	132651	132651
487.91	998.7	132604	132604
488.01	998.6	132369	132369
488.11	998.5	132416	132416
488.21	998.4	132379	132379
488.31	998.3	132546	132546
488.41	998.2	132650	132650
488.51	998.1	132904	132904
488.61	998	133270	133270
488.71	997.9	133227	133227
488.81	997.8	133055	133055
488.91	997.7	133257	133257
489.01	997.6	132762	132762
489.11	997.5	132724	132724
489.21	997.4	132621	132621
489.31	997.3	133315	133315
489.41	997.2	133752	133752
489.51	997.1	132627	132627
489.61	997	132798	132798
489.71	996.9	133999	133999
489.81	996.8	133630	133630
489.91	996.7	132900	132900
490.01	996.6	134028	134028
490.11	996.5	133508	133508
490.21	996.4	134467	134467
490.31	996.3	134019	134019
490.41	996.2	132825	132825
490.51	996.1	133663	133663
490.61	996	133958	133958
490.71	995.9	133510	133510
490.81	995.8	133871	133871
490.91	995.7	135132	135132
491.01	995.6	134632	134632
491.11	995.5	134047	134047
491.21	995.4	134687	134687
491.31	995.3	134758	134758
491.41	995.2	135195	135195
491.51	995.1	134805	134805
491.61	995	134850	134850
491.71	994.9	134557	134557
491.81	994.8	134018	134018
491.91	994.7	134695	134695
492.01	994.6	133698	133698
492.11	994.5	134635	134635
492.21	994.4	134948	134948
492.31	994.3	134222	134222
492.41	994.2	133804	133804
492.51	994.1	133369	133369
492.61	994	134497	134497
492.71	993.9	134819	134819
492.81	993.8	134951	134951
492.91	993.7	134464	134464
493.01	993.6	133699	133699
493.11	993.5	134550	134550
493.21	993.4	134386	134386
493.31	993.3	133507	133507
493.41	993.2	134047	134047
493.51	993.1	134981	134981
493.61	993	135074	135074
493.71	992.9	135169	135169
493.81	992.8	135559	135559
493.91	992.7	134948	134948
494.01	992.6	134983	134983
494.11	992.5	135085	135085
494.21	992.4	135528	135528
494.31	992.3	135925	135925
494.41	992.2	135307	135307
494.51	992.1	134940	134940
494.61	992	135970	135970
494.71	991.9	135189	135189
494.81	991.8	136160	136160
494.91	991.7	136308	136308
495.01	991.6	135498	135498
495.11	991.5	135185	135185
495.21	991.4	136225	136225
495.31	991.3	136048	136048
495.41	991.2	135322	135322
495.51	991.1	136459	136459
495.61	991	136770	136770
495.71	990.9	134674	134674
495.81	990.8	134386	134386
495.91	990.7	135610	135610
496.01	990.6	135476	135476
496.11	990.5	136081	136081
496.21	990.4	135602	135602
496.31	990.3	135886	135886
496.41	990.2	134926	134926
496.51	990.1	134399	134399
496.61	990	134419	134419
496.71	989.9	134812	134812
496.81	989.8	135273	135273
496.91	989.7	135400	135400
497.01	989.6	135404	135404
497.11	989.5	135976	135976
497.21	989.4	137135	137135
497.31	989.3	137559	137559
497.41	989.2	136425	136425
497.51	989.1	135373	135373
497.61	989	136053	136053
497.71	988.9	136196	136196
497.81	988.8	136447	136447
497.91	988.7	136463	136463
498.01	988.6	137088	137088
498.11	988.5	136056	136056
498.21	988.4	136370	136370
498.31	988.3	137277	137277
498.41	988.2	137070	137070
498.51	988.1	136809	136809
498.61	988	136008	136008
498.71	987.9	137373	137373
498.81	987.8	136886	136886
498.91	987.7	135963	135963
499.01	987.6	136534	136534
499.11	987.5	137199	137199
499.21	987.4	137062	137062
499.31	987.3	137181	137181
499.41	987.2	136778	136778
499.51	987.1	136952	136952
499.61	987	137517	137517
499.71	986.9	137919	137919
499.81	986.8	137446	137446
499.91	986.7	137474	137474
500.01	986.6	138032	138032
500.11	986.5	137998	137998
500.21	986.4	138302	138302
500.31	986.3	137871	137871
500.41	986.2	137408	137408
500.51	986.1	137945	137945
500.61	986	138803	138803
500.71	985.9	138154	138154
500.81	985.8	138768	138768
500.91	985.7	139075	139075
501.01	985.6	139094	139094
501.11	985.5	139022	139022
501.21	985.4	138918	138918
501.31	985.3	137660	137660
501.41	985.2	138561	138561
501.51	985.1	139246	139246
501.61	985	139001	139001
501.71	984.9	138871	138871
501.81	984.8	138459	138459
501.91	984.7	138785	138785
502.01	984.6	139265	139265
502.11	984.5	139138	139138
502.21	984.4	139562	139562
502.31	984.3	139711	139711
502.41	984.2	139823	139823
502.51	984.1	140261	140261
502.61	984	140367	140367
502.71	983.9	138873	138873
502.81	983.8	138971	138971
502.91	983.7	140357	140357
503.01	983.6	140204	140204
503.11	983.5	139119	139119
503.21	983.4	139704	139704
503.31	983.3	140240	140240
503.41	983.2	141058	141058
503.51	983.1	140560	140560
503.61	983	139887	139887
503.71	982.9	140086	140086
503.81	982.8	139908	139908
503.91	982.7	139793	139793
504.01	982.6	140203	140203
504.11	982.5	141388	141388
504.21	982.4	140424	140424
504.31	982.3	140616	140616
504.41	982.2	139893	139893
504.51	982.1	140551	140551
504.61	982	140820	140820
504.71	981.9	139855	139855
504.81	981.8	139150	139150
504.91	981.7	139974	139974
505.01	981.6	140678	140678
505.11	981.5	140955	140955
505.21	981.4	141346	141346
505.31	981.3	142498	142498
505.41	981.2	140628	140628
505.51	981.1	140942	140942
505.61	981	141715	141715
505.71	980.9	141986	141986
505.81	980.8	142376	142376
505.91	980.7	142235	142235
506.01	980.6	142342	142342
506.11	980.5	142726	142726
506.21	980.4	143514	143514
506.31	980.3	143278	143278
506.41	980.2	142612	142612
506.51	980.1	142658	142658
506.61	980	142353	142353
506.71	979.9	142266	142266
506.81	979.8	143105	143105
506.91	979.7	143318	143318
507.01	979.6	143132	143132
507.11	979.5	143534	143534
507.21	979.4	142768	142768
507.31	979.3	142195	142195
507.41	979.2	143817	143817
507.51	979.1	144142	144142
507.61	979	144476	144476
507.71	978.9	145313	145313
507.81	978.8	144561	144561
507.91	978.7	143999	143999
508.01	978.6	144002	144002
508.11	978.5	144364	144364
508.21	978.4	144128	144128
508.31	978.3	143598	143598
508.41	978.2	144979	144979
508.51	978.1	145280	145280
508.61	978	145184	145184
508.71	977.9	144983	144983
508.81	977.8	145253	145253
508.91	977.7	145083	145083
509.01	977.6	145125	145125
509.11	977.5	145286	145286
509.21	977.4	145788	145788
509.31	977.3	145083	145083
509.41	977.2	145189	145189
509.51	977.1	145722	145722
509.61	977	145449	145449
509.71	976.9	146355	146355
509.81	976.8	145856	145856
509.91	976.7	146735	146735
510.01	976.6	146004	146004
510.11	976.5	145568	145568
510.21	976.4	145647	145647
510.31	976.3	146736	146736
510.41	976.2	145916	145916
510.51	976.1	145391	145391
510.61	976	145950	145950
510.71	975.9	146075	146075
510.81	975.8	147209	147209
510.91	975.7	147535	147535
511.01	975.6	146817	146817
511.11	975.5	147353	147353
511.21	975.4	148282	148282
511.31	975.3	146879	146879
511.41	975.2	146693	146693
511.51	975.1	146753	146753
511.61	975	146620	146620
511.71	974.9	147575	147575
511.81	974.8	148011	148011
511.91	974.7	147846	147846
512.01	974.6	149252	149252
512.11	974.5	149668	149668
512.21	974.4	149526	149526
512.31	974.3	150843	150843
512.41	974.2	152052	152052
512.51	974.1	153407	153407
512.61	974	153706	153706
512.71	973.9	153402	153402
512.81	973.8	154957	154957
512.91	973.7	155498	155498
513.01	973.6	156424	156424
513.11	973.5	154706	154706
513.21	973.4	154334	154334
513.31	973.3	153357	153357
513.41	973.2	151803	151803
513.51	973.1	150018	150018
513.61	973	149217	149217
513.71	972.9	147398	147398
513.81	972.8	146391	146391
513.91	972.7	145751	145751
514.01	972.6	145745	145745
514.11	972.5	145843	145843
514.21	972.4	145204	145204
514.31	972.3	144034	144034
514.41	972.2	143707	143707
514.51	972.1	143712	143712
514.61	972	143551	143551
514.71	971.9	142743	142743
514.81	971.8	141978	141978
514.91	971.7	141983	141983
515.01	971.6	142618	142618
515.11	971.5	142179	142179
515.21	971.4	142322	142322
515.31	971.3	141855	141855
515.41	971.2	140486	140486
515.51	971.1	140606	140606
515.61	971	142026	142026
515.71	970.9	140989	140989
515.81	970.8	140654	140654
515.91	970.7	141704	141704
516.01	970.6	141321	141321
516.11	970.5	141384	141384
516.21	970.4	141309	141309
516.31	970.3	140987	140987
516.41	970.2	141087	141087
516.51	970.1	140341	140341
516.61	970	141337	141337
516.71	969.9	140530	140530
516.81	969.8	140402	140402
516.91	969.7	140688	140688
517.01	969.6	140458	140458
517.11	969.5	141456	141456
517.21	969.4	140267	140267
517.31	969.3	140277	140277
517.41	969.2	140793	140793
517.51	969.1	140808	140808
517.61	969	140709	140709
517.71	968.9	140688	140688
517.81	968.8	140731	140731
517.91	968.7	139650	139650
518.01	968.6	140882	140882
518.11	968.5	140824	140824
518.21	968.4	140358	140358
518.31	968.3	140912	140912
518.41	968.2	141128	141128
518.51	968.1	140510	140510
518.61	968	140856	140856
518.71	967.9	140298	140298
518.81	967.8	140622	140622
518.91	967.7	141198	141198
519.01	967.6	141086	141086
519.11	967.5	140398	140398
519.21	967.4	141222	141222
519.31	967.3	140224	140224
519.41	967.2	141216	141216
519.51	967.1	140709	140709
519.61	967	140972	140972
519.71	966.9	141346	141346
519.81	966.8	141397	141397
519.91	966.7	140818	140818
520.01	966.6	141163	141163
520.11	966.5	141626	141626
520.21	966.4	140920	140920
520.31	966.3	141182	141182
520.41	966.2	141941	141941
520.51	966.1	141402	141402
520.61	966	141844	141844
520.71	965.9	142254	142254
520.81	965.8	142345	142345
520.91	965.7	142035	142035
521.01	965.6	142059	142059
521.11	965.5	142131	142131
521.21	965.4	143274	143274
521.31	965.3	143867	143867
521.41	965.2	142728	142728
521.51	965.1	142627	142627
521.61	965	142835	142835
521.71	964.9	142711	142711
521.81	964.8	143505	143505
521.91	964.7	143355	143355
522.01	964.6	144051	144051
522.11	964.5	143220	143220
522.21	964.4	143158	143158
522.31	964.3	142147	142147
522.41	964.2	142857	142857
522.51	964.1	142800	142800
522.61	964	142128	142128
522.71	963.9	142057	142057
522.81	963.8	141446	141446
522.91	963.7	141357	141357
523.01	963.6	140815	140815
523.11	963.5	141042	141042
523.21	963.4	139776	139776
523.31	963.3	139571	139571
523.41	963.2	139414	139414
523.51	963.1	139061	139061
523.61	963	139285	139285
523.71	962.9	138821	138821
523.81	962.8	138253	138253
523.91	962.7	138514	138514
524.01	962.6	138915	138915
524.11	962.5	138598	138598
524.21	962.4	138146	138146
524.31	962.3	138155	138155
524.41	962.2	136980	136980
524.51	962.1	137628	137628
524.61	962	137951	137951
524.71	961.9	137738	137738
524.81	961.8	137345	137345
524.91	961.7	137439	137439
525.01	961.6	137573	137573
525.11	961.5	138250	138250
525.21	961.4	138976	138976
525.31	961.3	138051	138051
525.41	961.2	137498	137498
525.51	961.1	138241	138241
525.61	961	138164	138164
525.71	960.9	137196	137196
525.81	960.8	137885	137885
525.91	960.7	138230	138230
526.01	960.6	139225	139225
526.11	960.5	139806	139806
526.21	960.4	138979	138979
526.31	960.3	139537	139537
526.41	960.2	139429	139429
526.51	960.1	139392	139392
526.61	960	139259	139259
526.71	959.9	139522	139522
526.81	959.8	140029	140029
526.91	959.7	140124	140124
527.01	959.6	140151	140151
527.11	959.5	139395	139395
527.21	959.4	140042	140042
527.31	959.3	139829	139829
527.41	959.2	140085	140085
527.51	959.1	140004	140004
527.61	959	139996	139996
527.71	958.9	140432	140432
527.81	958.8	140981	140981
527.91	958.7	141348	141348
528.01	958.6	141178	141178
528.11	958.5	140899	140899
528.21	958.4	140517	140517
528.31	958.3	141474	141474
528.41	958.2	141973	141973
528.51	958.1	141719	141719
528.61	958	141775	141775
528.71	957.9	142853	142853
528.81	957.8	143183	143183
528.91	957.7	143677	143677
529.01	957.6	144165	144165
529.11	957.5	143524	143524
529.21	957.4	143775	143775
529.31	957.3	143941	143941
529.41	957.2	144485	144485
529.51	957.1	144302	144302
529.61	957	145177	145177
529.71	956.9	144627	144627
529.81	956.8	146018	146018
529.91	956.7	146960	146960
530.01	956.6	147074	147074
530.11	956.5	146910	146910
530.21	956.4	146385	146385
530.31	956.3	146851	146851
530.41	956.2	148323	148323
530.51	956.1	148380	148380
530.61	956	148951	148951
530.71	955.9	149870	149870
530.81	955.8	150668	150668
530.91	955.7	150613	150613
531.01	955.6	149893	149893
531.11	955.5	149171	149171
531.21	955.4	149049	149049
531.31	955.3	149237	149237
531.41	955.2	149222	149222
531.51	955.1	149250	149250
531.61	955	149653	149653
531.71	954.9	150913	150913
531.81	954.8	152242	152242
531.91	954.7	154433	154433
532.01	954.6	159168	159168
532.11	954.5	165097	165097
532.21	954.4	170970	170970
532.31	954.3	177960	177960
532.41	954.2	186102	186102
532.51	954.1	194636	194636
532.61	954	201670	201670
532.71	953.9	210310	210310
532.81	953.8	215131	215131
532.91	953.7	218115	218115
533.01	953.6	219564	219564
533.11	953.5	222625	222625
533.21	953.4	228091	228091
533.31	953.3	233661	233661
533.41	953.2	239934	239934
533.51	953.1	250060	250060
533.61	953	263151	263151
533.71	952.9	275497	275497
533.81	952.8	287806	287806
533.91	952.7	300361	300361
534.01	952.6	309934	309934
534.11	952.5	313999	313999
534.21	952.4	311191	311191
534.31	952.3	305565	305565
534.41	952.2	295356	295356
534.51	952.1	281268	281268
534.61	952	265456	265456
534.71	951.9	248752	248752
534.81	951.8	232043	232043
534.91	951.7	216680	216680
535.01	951.6	203684	203684
535.11	951.5	191543	191543
535.21	951.4	181586	181586
535.31	951.3	173415	173415
535.41	951.2	165353	165353
535.51	951.1	158971	158971
535.61	951	153854	153854
535.71	950.9	150833	150833
535.81	950.8	147911	147911
535.91	950.7	144349	144349
536.01	950.6	140572	140572
536.11	950.5	138170	138170
536.21	950.4	135561	135561
536.31	950.3	134117	134117
536.41	950.2	132937	132937
536.51	950.1	131020	131020
536.61	950	129357	129357
536.71	949.9	128039	128039
536.81	949.8	126706	126706
536.91	949.7	126527	126527
537.01	949.6	125701	125701
537.11	949.5	124455	124455
537.21	949.4	123437	123437
537.31	949.3	123423	123423
537.41	949.2	123422	123422
537.51	949.1	122046	122046
537.61	949	121188	121188
537.71	948.9	120850	120850
537.81	948.8	121533	121533
537.91	948.7	121233	121233
538.01	948.6	120351	120351
538.11	948.5	119756	119756
538.21	948.4	119591	119591
538.31	948.3	119037	119037
538.41	948.2	119886	119886
538.51	948.1	120220	120220
538.61	948	119711	119711
538.71	947.9	119072	119072
538.81	947.8	118314	118314
538.91	947.7	118451	118451
539.01	947.6	117737	117737
539.11	947.5	117787	117787
539.21	947.4	117939	117939
539.31	947.3	117488	117488
539.41	947.2	117965	117965
539.51	947.1	117969	117969
539.61	947	118230	118230
539.71	946.9	118095	118095
539.81	946.8	117694	117694
539.91	946.7	118283	118283
540.01	946.6	117692	117692
540.11	946.5	117940	117940
540.21	946.4	117685	117685
540.31	946.3	117695	117695
540.41	946.2	117088	117088
540.51	946.1	116537	116537
540.61	946	117416	117416
540.71	945.9	117340	117340
540.81	945.8	116472	116472
540.91	945.7	116060	116060
541.01	945.6	116481	116481
541.11	945.5	115690	115690
541.21	945.4	115085	115085
541.31	945.3	114235	114235
541.41	945.2	114397	114397
541.51	945.1	113558	113558
541.61	945	113930	113930
541.71	944.9	113015	113015
541.81	944.8	112724	112724
541.91	944.7	112427	112427
542.01	944.6	111925	111925
542.11	944.5	112334	112334
542.21	944.4	112406	112406
542.31	944.3	112579	112579
542.41	944.2	112155	112155
542.51	944.1	111483	111483
542.61	944	111087	111087
542.71	943.9	110707	110707
542.81	943.8	111225	111225
542.91	943.7	110372	110372
543.01	943.6	109739	109739
543.11	943.5	109565	109565
543.21	943.4	110549	110549
543.31	943.3	109396	109396
543.41	943.2	108764	108764
543.51	943.1	108585	108585
543.61	943	109048	109048
543.71	942.9	108538	108538
543.81	942.8	108241	108241
543.91	942.7	108181	108181
544.01	942.6	108294	108294
544.11	942.5	107381	107381
544.21	942.4	106693	106693
544.31	942.3	106748	106748
544.41	942.2	105460	105460
544.51	942.1	104922	104922
544.61	942	104584	104584
544.71	941.9	103886	103886
544.81	941.8	102453	102453
544.91	941.7	102223	102223
545.01	941.6	101859	101859
545.11	941.5	101773	101773
545.21	941.4	101260	101260
545.31	941.3	101297	101297
545.41	941.2	100923	100923
545.51	941.1	99808.6	99808.6
545.61	941	100292	100292
545.71	940.9	100885	100885
545.81	940.8	101317	101317
545.91	940.7	101139	101139
546.01	940.6	101528	101528
546.11	940.5	101645	101645
546.21	940.4	100986	100986
546.31	940.3	99214.3	99214.3
546.41	940.2	98986.5	98986.5
546.51	940.1	100153	100153
546.61	940	100914	100914
546.71	939.9	100590	100590
546.81	939.8	100995	100995
546.91	939.7	101064	101064
547.01	939.6	100895	100895
547.11	939.5	101085	101085
547.21	939.4	100907	100907
547.31	939.3	101032	101032
547.41	939.2	101388	101388
547.51	939.1	101224	101224
547.61	939	100669	100669
547.71	938.9	100475	100475
547.81	938.8	100263	100263
547.91	938.7	100066	100066
548.01	938.6	100651	100651
548.11	938.5	100399	100399
548.21	938.4	100245	100245
548.31	938.3	100389	100389
548.41	938.2	101097	101097
548.51	938.1	101293	101293
548.61	938	102161	102161
548.71	937.9	102167	102167
548.81	937.8	102710	102710
548.91	937.7	102100	102100
549.01	937.6	101890	101890
549.11	937.5	102323	102323
549.21	937.4	103992	103992
549.31	937.3	104421	104421
549.41	937.2	103622	103622
549.51	937.1	103667	103667
549.61	937	104861	104861
549.71	936.9	105017	105017
549.81	936.8	105343	105343
549.91	936.7	106273	106273
550.01	936.6	105986	105986
550.11	936.5	105416	105416
550.21	936.4	105332	105332
550.31	936.3	105450	105450
550.41	936.2	105966	105966
550.51	936.1	105595	105595
550.61	936	105725	105725
550.71	935.9	105486	105486
550.81	935.8	105933	105933
550.91	935.7	107018	107018
551.01	935.6	107025	107025
551.11	935.5	107356	107356
551.21	935.4	106885	106885
551.31	935.3	107933	107933
551.41	935.2	108582	108582
551.51	935.1	109068	109068
551.61	935	109632	109632
551.71	934.9	111351	111351
551.81	934.8	112554	112554
551.91	934.7	114274	114274
552.01	934.6	116369	116369
552.11	934.5	118113	118113
552.21	934.4	121227	121227
552.31	934.3	125029	125029
552.41	934.2	130253	130253
552.51	934.1	135887	135887
552.61	934	142388	142388
552.71	933.9	150141	150141
552.81	933.8	161789	161789
552.91	933.7	175765	175765
553.01	933.6	195152	195152
553.11	933.5	221452	221452
553.21	933.4	256606	256606
553.31	933.3	302837	302837
553.41	933.2	362114	362114
553.51	933.1	433801	433801
553.61	933	511529	511529
553.71	932.9	589603	589603
553.81	932.8	651708	651708
553.91	932.7	684807	684807
554.01	932.6	685705	685705
554.11	932.5	653319	653319
554.21	932.4	592051	592051
554.31	932.3	516952	516952
554.41	932.2	435957	435957
554.51	932.1	361810	361810
554.61	932	301156	301156
554.71	931.9	253751	253751
554.81	931.8	215260	215260
554.91	931.7	185324	185324
555.01	931.6	163419	163419
555.11	931.5	147481	147481
555.21	931.4	134956	134956
555.31	931.3	125709	125709
555.41	931.2	117710	117710
555.51	931.1	111180	111180
555.61	931	106109	106109
555.71	930.9	102538	102538
555.81	930.8	99186.5	99186.5
555.91	930.7	96030.9	96030.9
556.01	930.6	93628.2	93628.2
556.11	930.5	91618.1	91618.1
556.21	930.4	90504.4	90504.4
556.31	930.3	88409.6	88409.6
556.41	930.2	87252.1	87252.1
556.51	930.1	86547.4	86547.4
556.61	930	85000.6	85000.6
556.71	929.9	83653.4	83653.4
556.81	929.8	82743.7	82743.7
556.91	929.7	82617	82617
557.01	929.6	81844	81844
557.11	929.5	80428	80428
557.21	929.4	79973.5	79973.5
557.31	929.3	80367.2	80367.2
557.41	929.2	79903.3	79903.3
557.51	929.1	79101.4	79101.4
557.61	929	78200.4	78200.4
557.71	928.9	77858.3	77858.3
557.81	928.8	77724.8	77724.8
557.91	928.7	77754.5	77754.5
558.01	928.6	77105.1	77105.1
558.11	928.5	76488.5	76488.5
558.21	928.4	76108.5	76108.5
558.31	928.3	76200.7	76200.7
558.41	928.2	76605.9	76605.9
558.51	928.1	75567.8	75567.8
558.61	928	75940.1	75940.1
558.71	927.9	75395.3	75395.3
558.81	927.8	75829.9	75829.9
558.91	927.7	75290.3	75290.3
559.01	927.6	74312.9	74312.9
559.11	927.5	74757.3	74757.3
559.21	927.4	75367.8	75367.8
559.31	927.3	74910.8	74910.8
559.41	927.2	75518.5	75518.5
559.51	927.1	75117.3	75117.3
559.61	927	75534.3	75534.3
559.71	926.9	75188	75188
559.81	926.8	74697.1	74697.1
559.91	926.7	74497.5	74497.5
560.01	926.6	74458.8	74458.8
560.11	926.5	74210.5	74210.5
560.21	926.4	74402.8	74402.8
560.31	926.3	74087.6	74087.6
560.41	926.2	73620.1	73620.1
560.51	926.1	73926.8	73926.8
560.61	926	74139.6	74139.6
560.71	925.9	73476.7	73476.7
560.81	925.8	73260.3	73260.3
560.91	925.7	73205.5	73205.5
561.01	925.6	73447.8	73447.8
561.11	925.5	73472.8	73472.8
561.21	925.4	73470.8	73470.8
561.31	925.3	73413.5	73413.5
561.41	925.2	73244	73244
561.51	925.1	73121	73121
561.61	925	73468.7	73468.7
561.71	924.9	72808.5	72808.5
561.81	924.8	72827.3	72827.3
561.91	924.7	73196.9	73196.9
562.01	924.6	72920.3	72920.3
562.11	924.5	73160.3	73160.3
562.21	924.4	72968.9	72968.9
562.31	924.3	73424.4	73424.4
562.41	924.2	73574.9	73574.9
562.51	924.1	72571.6	72571.6
562.61	924	72912.8	72912.8
562.71	923.9	73010.3	73010.3
562.81	923.8	73435.6	73435.6
562.91	923.7	73518.3	73518.3
563.01	923.6	73073	73073
563.11	923.5	72909	72909
563.21	923.4	72629.2	72629.2
563.31	923.3	72927.6	72927.6
563.41	923.2	72860.7	72860.7
563.51	923.1	73209.8	73209.8
563.61	923	72673.7	72673.7
563.71	922.9	73019.5	73019.5
563.81	922.8	73362.8	73362.8
563.91	922.7	73329.6	73329.6
564.01	922.6	73471.8	73471.8
564.11	922.5	72353.7	72353.7
564.21	922.4	73092.2	73092.2
564.31	922.3	73511	73511
564.41	922.2	73522.4	73522.4
564.51	922.1	73001.6	73001.6
564.61	922	72854.8	72854.8
564.71	921.9	72420.9	72420.9
564.81	921.8	72409.8	72409.8
564.91	921.7	72227	72227
565.01	921.6	72546.3	72546.3
565.11	921.5	71950.6	71950.6
565.21	921.4	72292.2	72292.2
565.31	921.3	72944.8	72944.8
565.41	921.2	72892.9	72892.9
565.51	921.1	72854.9	72854.9
565.61	921	73118.7	73118.7
565.71	920.9	73056.6	73056.6
565.81	920.8	73105.3	73105.3
565.91	920.7	73155.8	73155.8
566.01	920.6	72794	72794
566.11	920.5	72598.1	72598.1
566.21	920.4	72548.7	72548.7
566.31	920.3	72792.2	72792.2
566.41	920.2	72569.3	72569.3
566.51	920.1	72286.6	72286.6
566.61	920	72581.4	72581.4