CasaXP50
Cu2p
	Characteristic Energy eV	1486.61	Acquisition Time s	0.2
KE_Cu2p	BE_Cu2p	CPS_Cu2p
506.61	980	5217.25
506.66	979.95	5211.05
506.71	979.9	5148.22
506.76	979.85	5088.85
506.81	979.8	5115.53
506.86	979.75	5146.08
506.91	979.7	5187.82
506.96	979.65	5202.53
507.01	979.6	5237.3
507.06	979.55	5113.18
507.11	979.5	5201.45
507.16	979.45	5180.6
507.21	979.4	5193.4
507.26	979.35	5207.14
507.31	979.3	5170.93
507.36	979.25	5198.78
507.41	979.2	5070.76
507.46	979.15	5173.05
507.51	979.1	5126.16
507.56	979.05	5177.02
507.61	979	5164.04
507.66	978.95	5231.25
507.71	978.9	5234.09
507.76	978.85	5189.39
507.81	978.8	5237.86
507.86	978.75	5155.83
507.91	978.7	5230.05
507.96	978.65	5301.06
508.01	978.6	5314.72
508.06	978.55	5294.1
508.11	978.5	5290.14
508.16	978.45	5279.37
508.21	978.4	5287.57
508.26	978.35	5232.99
508.31	978.3	5195.27
508.36	978.25	5223.8
508.41	978.2	5302.06
508.46	978.15	5254.05
508.51	978.1	5271.71
508.56	978.05	5228.25
508.61	978	5236.83
508.66	977.95	5230.11
508.71	977.9	5269.1
508.76	977.85	5321.81
508.81	977.8	5299.88
508.86	977.75	5311.24
508.91	977.7	5289.73
508.96	977.65	5288.2
509.01	977.6	5235.98
509.06	977.55	5243.3
509.11	977.5	5240.38
509.16	977.45	5275.3
509.21	977.4	5170.13
509.26	977.35	5259.68
509.31	977.3	5264.17
509.36	977.25	5266.15
509.41	977.2	5282.11
509.46	977.15	5281.5
509.51	977.1	5298.24
509.56	977.05	5240.09
509.61	977	5251.57
509.66	976.95	5263.36
509.71	976.9	5304.86
509.76	976.85	5253.1
509.81	976.8	5348.18
509.86	976.75	5286.55
509.91	976.7	5256.81
509.96	976.65	5196.09
510.01	976.6	5290.28
510.06	976.55	5302.37
510.11	976.5	5296.54
510.16	976.45	5291.75
510.21	976.4	5299.32
510.26	976.35	5352.08
510.31	976.3	5280.92
510.36	976.25	5309.41
510.41	976.2	5264.17
510.46	976.15	5192.82
510.51	976.1	5215.83
510.56	976.05	5313.52
510.61	976	5309.26
510.66	975.95	5336.16
510.71	975.9	5294.66
510.76	975.85	5357.66
510.81	975.8	5253.01
510.86	975.75	5240.54
510.91	975.7	5373.76
510.96	975.65	5365.26
511.01	975.6	5350.44
511.06	975.55	5369.63
511.11	975.5	5354.16
511.16	975.45	5447.24
511.21	975.4	5289.78
511.26	975.35	5302.13
511.31	975.3	5346.93
511.36	975.25	5332.16
511.41	975.2	5411.45
511.46	975.15	5392.1
511.51	975.1	5335.22
511.56	975.05	5330.21
511.61	975	5367.49
511.66	974.95	5323.33
511.71	974.9	5391.71
511.76	974.85	5302.2
511.81	974.8	5368.43
511.86	974.75	5367.12
511.91	974.7	5312.69
511.96	974.65	5329.81
512.01	974.6	5445.78
512.06	974.55	5387.17
512.11	974.5	5392.89
512.16	974.45	5404.53
512.21	974.4	5421.92
512.26	974.35	5379.94
512.31	974.3	5468.42
512.36	974.25	5550.42
512.41	974.2	5517.4
512.46	974.15	5499
512.51	974.1	5502.2
512.56	974.05	5455.54
512.61	974	5485.51
512.66	973.95	5534.89
512.71	973.9	5564.1
512.76	973.85	5562.73
512.81	973.8	5607.72
512.86	973.75	5626.03
512.91	973.7	5550.31
512.96	973.65	5555.7
513.01	973.6	5625.53
513.06	973.55	5645.68
513.11	973.5	5578.13
513.16	973.45	5687.36
513.21	973.4	5654.57
513.26	973.35	5580.98
513.31	973.3	5487.99
513.36	973.25	5549.08
513.41	973.2	5512.78
513.46	973.15	5481.57
513.51	973.1	5442.09
513.56	973.05	5317.32
513.61	973	5307.58
513.66	972.95	5277.08
513.71	972.9	5275.12
513.76	972.85	5271.07
513.81	972.8	5239.25
513.86	972.75	5276.92
513.91	972.7	5261.2
513.96	972.65	5206.68
514.01	972.6	5181.62
514.06	972.55	5102.06
514.11	972.5	5182.06
514.16	972.45	5104.28
514.21	972.4	5136.22
514.26	972.35	5084.87
514.31	972.3	5122.44
514.36	972.25	5072.65
514.41	972.2	5125.97
514.46	972.15	5103.37
514.51	972.1	5105.09
514.56	972.05	5112.41
514.61	972	5038.23
514.66	971.95	5066.61
514.71	971.9	5016.15
514.76	971.85	5040.24
514.81	971.8	5022.09
514.86	971.75	5051.47
514.91	971.7	5068.5
514.96	971.65	5033.56
515.01	971.6	5001.3
515.06	971.55	5044.55
515.11	971.5	5033.75
515.16	971.45	5081.41
515.21	971.4	5031.85
515.26	971.35	5017.8
515.31	971.3	5109.45
515.36	971.25	5009.31
515.41	971.2	4989.76
515.46	971.15	4969.87
515.51	971.1	4924.96
515.56	971.05	4971.4
515.61	971	4999.89
515.66	970.95	4939.78
515.71	970.9	4996.09
515.76	970.85	4893.72
515.81	970.8	4966.42
515.86	970.75	4961.36
515.91	970.7	4975.71
515.96	970.65	5010.37
516.01	970.6	4984.08
516.06	970.55	5105.09
516.11	970.5	5028.8
516.16	970.45	4943.3
516.21	970.4	5047.88
516.26	970.35	4996.35
516.31	970.3	4955.58
516.36	970.25	4964.05
516.41	970.2	5031.23
516.46	970.15	4919.67
516.51	970.1	4948.91
516.56	970.05	4946.49
516.61	970	5056.62
516.66	969.95	5026.38
516.71	969.9	4966.63
516.76	969.85	4959.25
516.81	969.8	4946.74
516.86	969.75	5006.85
516.91	969.7	4921.88
516.96	969.65	4895.13
517.01	969.6	4942.59
517.06	969.55	4967.99
517.11	969.5	4960.43
517.16	969.45	4856.4
517.21	969.4	4966.4
517.26	969.35	4953.81
517.31	969.3	4866.56
517.36	969.25	4925.36
517.41	969.2	4969.87
517.46	969.15	4938.97
517.51	969.1	4985.08
517.56	969.05	4948.71
517.61	969	4972.33
517.66	968.95	4922.25
517.71	968.9	4955.1
517.76	968.85	5020.31
517.81	968.8	4897.34
517.86	968.75	4903.27
517.91	968.7	4972.78
517.96	968.65	4961.36
518.01	968.6	4897.98
518.06	968.55	4899.97
518.11	968.5	4925.31
518.16	968.45	4998.57
518.21	968.4	4873.69
518.26	968.35	4941.84
518.31	968.3	4952.44
518.36	968.25	4916.12
518.41	968.2	4890.92
518.46	968.15	4976.7
518.51	968.1	5002.91
518.56	968.05	4920.74
518.61	968	4915.11
518.66	967.95	4918.96
518.71	967.9	4916.78
518.76	967.85	4951.18
518.81	967.8	4984.69
518.86	967.75	4977.76
518.91	967.7	4906.07
518.96	967.65	4963.34
519.01	967.6	4910.45
519.06	967.55	4964.7
519.11	967.5	4924.42
519.16	967.45	4910.72
519.21	967.4	4900.79
519.26	967.35	4906.12
519.31	967.3	4906.68
519.36	967.25	4946.13
519.41	967.2	4945.53
519.46	967.15	4983.4
519.51	967.1	5050.44
519.56	967.05	4969.21
519.61	967	4974.54
519.66	966.95	4907.26
519.71	966.9	4891.81
519.76	966.85	4979.53
519.81	966.8	4977.17
519.86	966.75	4917.07
519.91	966.7	4946.15
519.96	966.65	5025.02
520.01	966.6	4949.35
520.06	966.55	4962.48
520.11	966.5	4954.55
520.16	966.45	4949.82
520.21	966.4	4931.34
520.26	966.35	4919.1
520.31	966.3	5023.6
520.36	966.25	5023.33
520.41	966.2	5048.05
520.46	966.15	4986.15
520.51	966.1	4959.76
520.56	966.05	5003.51
520.61	966	4976.3
520.66	965.95	4950.01
520.71	965.9	4963.64
520.76	965.85	5049.16
520.81	965.8	4940.81
520.86	965.75	4909.07
520.91	965.7	5001.46
520.96	965.65	4997.5
521.01	965.6	5047.22
521.06	965.55	4997.61
521.11	965.5	4991.97
521.16	965.45	5002.89
521.21	965.4	4953.22
521.26	965.35	4912.79
521.31	965.3	5077.38
521.36	965.25	5001.11
521.41	965.2	5042.86
521.46	965.15	5006.38
521.51	965.1	4986.56
521.56	965.05	4896.7
521.61	965	4927.43
521.66	964.95	5048.08
521.71	964.9	5062.17
521.76	964.85	4993.56
521.81	964.8	5012.27
521.86	964.75	5030.74
521.91	964.7	5017.93
521.96	964.65	4994.39
522.01	964.6	4979.1
522.06	964.55	5033.48
522.11	964.5	5013.51
522.16	964.45	4970.66
522.21	964.4	4954.07
522.26	964.35	5003.67
522.31	964.3	4971.09
522.36	964.25	5048.05
522.41	964.2	5040.04
522.46	964.15	4986.1
522.51	964.1	4975.69
522.56	964.05	4935.02
522.61	964	4909.72
522.66	963.95	4930.13
522.71	963.9	4972.72
522.76	963.85	4919.05
522.81	963.8	4977.85
522.86	963.75	4972.27
522.91	963.7	4967.86
522.96	963.65	4926.87
523.01	963.6	4924.36
523.06	963.55	4886.99
523.11	963.5	4910.51
523.16	963.45	4885.6
523.21	963.4	4959.04
523.26	963.35	4931.58
523.31	963.3	4910.16
523.36	963.25	4897.33
523.41	963.2	4875.55
523.46	963.15	4942.7
523.51	963.1	4854.92
523.56	963.05	4825.2
523.61	963	4849.27
523.66	962.95	4853.61
523.71	962.9	4859.66
523.76	962.85	4863.07
523.81	962.8	4823.15
523.86	962.75	4808.27
523.91	962.7	4895.15
523.96	962.65	4888.41
524.01	962.6	4866.12
524.06	962.55	4954.64
524.11	962.5	4910.22
524.16	962.45	4826.87
524.21	962.4	4781.13
524.26	962.35	4858.57
524.31	962.3	4902.91
524.36	962.25	4873.6
524.41	962.2	4877.1
524.46	962.15	4937.83
524.51	962.1	4828.6
524.56	962.05	4854.45
524.61	962	4771.68
524.66	961.95	4723.72
524.71	961.9	4922.7
524.76	961.85	4897.35
524.81	961.8	4857.16
524.86	961.75	4836.12
524.91	961.7	4866.12
524.96	961.65	4891.01
525.01	961.6	4780.73
525.06	961.55	4834.32
525.11	961.5	4846.52
525.16	961.45	4943.27
525.21	961.4	4875.11
525.26	961.35	4819.99
525.31	961.3	4861.76
525.36	961.25	4861.84
525.41	961.2	4884.72
525.46	961.15	4845.83
525.51	961.1	4822.56
525.56	961.05	4784.19
525.61	961	4817.37
525.66	960.95	4837.04
525.71	960.9	4790.15
525.76	960.85	4912.09
525.81	960.8	4885.74
525.86	960.75	4881.32
525.91	960.7	4772.77
525.96	960.65	4807.81
526.01	960.6	4941.46
526.06	960.55	4861.46
526.11	960.5	4837.98
526.16	960.45	4878.3
526.21	960.4	4925.18
526.26	960.35	4885.2
526.31	960.3	4873.18
526.36	960.25	4853.39
526.41	960.2	4848.29
526.46	960.15	4922.65
526.51	960.1	4881.72
526.56	960.05	4931.94
526.61	960	4823.54
526.66	959.95	4860.15
526.71	959.9	4877.07
526.76	959.85	4934.5
526.81	959.8	4898.77
526.86	959.75	4848.43
526.91	959.7	4909.09
526.96	959.65	4885.5
527.01	959.6	4877.72
527.06	959.55	4958.33
527.11	959.5	4900.86
527.16	959.45	4975.18
527.21	959.4	4897.2
527.26	959.35	4848.85
527.31	959.3	4925
527.36	959.25	4907.45
527.41	959.2	5020.71
527.46	959.15	4967.49
527.51	959.1	4976.31
527.56	959.05	4850.84
527.61	959	4901.94
527.66	958.95	4976.58
527.71	958.9	5031.12
527.76	958.85	4915.93
527.81	958.8	4927.16
527.86	958.75	4931.71
527.91	958.7	4964.56
527.96	958.65	4978.06
528.01	958.6	4930.03
528.06	958.55	4924.13
528.11	958.5	4998.66
528.16	958.45	4919.99
528.21	958.4	4946.14
528.26	958.35	4908.71
528.31	958.3	4973.59
528.36	958.25	4968.75
528.41	958.2	5043.41
528.46	958.15	5004.26
528.51	958.1	5022.4
528.56	958.05	5062.1
528.61	958	5014.15
528.66	957.95	4976.6
528.71	957.9	4979.74
528.76	957.85	4977.62
528.81	957.8	4975.3
528.86	957.75	4952.55
528.91	957.7	5033.26
528.96	957.65	5072.88
529.01	957.6	5077.24
529.06	957.55	5025.75
529.11	957.5	5121.32
529.16	957.45	5102.19
529.21	957.4	5090.84
529.26	957.35	5019.63
529.31	957.3	5070.1
529.36	957.25	5094.92
529.41	957.2	4987.33
529.46	957.15	5084.53
529.51	957.1	5055.75
529.56	957.05	5074.13
529.61	957	5144.36
529.66	956.95	5103.79
529.71	956.9	5098.45
529.76	956.85	5108.76
529.81	956.8	5094.37
529.86	956.75	5127.77
529.91	956.7	5108.01
529.96	956.65	5123.63
530.01	956.6	5183.39
530.06	956.55	5115.69
530.11	956.5	5161.83
530.16	956.45	5095.98
530.21	956.4	5158.1
530.26	956.35	5143.67
530.31	956.3	5129.69
530.36	956.25	5098.93
530.41	956.2	5258.27
530.46	956.15	5181.5
530.51	956.1	5202.14
530.56	956.05	5223.5
530.61	956	5259.61
530.66	955.95	5306.28
530.71	955.9	5324.65
530.76	955.85	5319.83
530.81	955.8	5277.57
530.86	955.75	5298.14
530.91	955.7	5328.94
530.96	955.65	5311.93
531.01	955.6	5244.87
531.06	955.55	5300.79
531.11	955.5	5231.22
531.16	955.45	5194.76
531.21	955.4	5221.36
531.26	955.35	5207.52
531.31	955.3	5211.88
531.36	955.25	5161.72
531.41	955.2	5207.34
531.46	955.15	5097.39
531.51	955.1	5196.36
531.56	955.05	5155.62
531.61	955	5142.07
531.66	954.95	5175.18
531.71	954.9	5286.11
531.76	954.85	5258.64
531.81	954.8	5329.3
531.86	954.75	5330.67
531.91	954.7	5396.05
531.96	954.65	5463.2
532.01	954.6	5530.58
532.06	954.55	5640.44
532.11	954.5	5646.18
532.16	954.45	5805.68
532.21	954.4	5960.93
532.26	954.35	6060.17
532.31	954.3	6129.59
532.36	954.25	6296.54
532.41	954.2	6596.94
532.46	954.15	6658.4
532.51	954.1	6821.47
532.56	954.05	6981.29
532.61	954	7096.33
532.66	953.95	7252.51
532.71	953.9	7388.47
532.76	953.85	7385.52
532.81	953.8	7504.69
532.86	953.75	7533.41
532.91	953.7	7535.4
532.96	953.65	7631.25
533.01	953.6	7577.71
533.06	953.55	7634.26
533.11	953.5	7568.89
533.16	953.45	7572.62
533.21	953.4	7614.2
533.26	953.35	7572.14
533.31	953.3	7623.37
533.36	953.25	7758.88
533.41	953.2	7879.53
533.46	953.15	7922.14
533.51	953.1	8022.01
533.56	953.05	8196.62
533.61	953	8358.61
533.66	952.95	8485.42
533.71	952.9	8683.01
533.76	952.85	8852.72
533.81	952.8	8978.55
533.86	952.75	9167.69
533.91	952.7	9313.02
533.96	952.65	9393.74
534.01	952.6	9559.19
534.06	952.55	9710.99
534.11	952.5	9727.47
534.16	952.45	9763.14
534.21	952.4	9688.58
534.26	952.35	9498.09
534.31	952.3	9419.78
534.36	952.25	9361.19
534.41	952.2	9135.94
534.46	952.15	9100.91
534.51	952.1	8790.27
534.56	952.05	8462.42
534.61	952	8375.54
534.66	951.95	8084.38
534.71	951.9	7661.33
534.76	951.85	7524.42
534.81	951.8	7348.76
534.86	951.75	7094.41
534.91	951.7	6899.99
534.96	951.65	6703.22
535.01	951.6	6460.67
535.06	951.55	6233.96
535.11	951.5	6158.18
535.16	951.45	6020.16
535.21	951.4	5885.43
535.26	951.35	5721.33
535.31	951.3	5626.67
535.36	951.25	5515.03
535.41	951.2	5511.66
535.46	951.15	5390.75
535.51	951.1	5314.91
535.56	951.05	5221.82
535.61	951	5172.96
535.66	950.95	5126.79
535.71	950.9	4992.11
535.76	950.85	4930.02
535.81	950.8	4903.41
535.86	950.75	4929.02
535.91	950.7	4858.64
535.96	950.65	4762.89
536.01	950.6	4742.11
536.06	950.55	4681.54
536.11	950.5	4661.97
536.16	950.45	4619.47
536.21	950.4	4599.69
536.26	950.35	4537.22
536.31	950.3	4517.95
536.36	950.25	4572.72
536.41	950.2	4523.52
536.46	950.15	4458.06
536.51	950.1	4485.67
536.56	950.05	4437.82
536.61	950	4399.91
536.66	949.95	4376.01
536.71	949.9	4394.87
536.76	949.85	4367
536.81	949.8	4362.19
536.86	949.75	4407.83
536.91	949.7	4340.93
536.96	949.65	4378.44
537.01	949.6	4304.36
537.06	949.55	4295.37
537.11	949.5	4334.39
537.16	949.45	4245.72
537.21	949.4	4264.93
537.26	949.35	4214.11
537.31	949.3	4224.21
537.36	949.25	4241.32
537.41	949.2	4274.57
537.46	949.15	4213.45
537.51	949.1	4160.96
537.56	949.05	4185.04
537.61	949	4148.98
537.66	948.95	4213.2
537.71	948.9	4125.34
537.76	948.85	4169.24
537.81	948.8	4171.69
537.86	948.75	4141.59
537.91	948.7	4152.75
537.96	948.65	4144.04
538.01	948.6	4228.55
538.06	948.55	4149.21
538.11	948.5	4074.76
538.16	948.45	4189.8
538.21	948.4	4042.43
538.26	948.35	4093.7
538.31	948.3	4137.23
538.36	948.25	4103.47
538.41	948.2	4139.93
538.46	948.15	4142.61
538.51	948.1	4100.45
538.56	948.05	4092.67
538.61	948	4182.5
538.66	947.95	4090.43
538.71	947.9	4182.24
538.76	947.85	4167.05
538.81	947.8	4111.49
538.86	947.75	4138.12
538.91	947.7	4150.12
538.96	947.65	4029.28
539.01	947.6	4062.7
539.06	947.55	4197.89
539.11	947.5	4091.02
539.16	947.45	4067.87
539.21	947.4	4089.45
539.26	947.35	4073.56
539.31	947.3	4054.14
539.36	947.25	4031.51
539.41	947.2	4076.42
539.46	947.15	4129.78
539.51	947.1	4051.89
539.56	947.05	4092.22
539.61	947	4074.74
539.66	946.95	4087.92
539.71	946.9	4090.31
539.76	946.85	4069.95
539.81	946.8	4132.89
539.86	946.75	4132.65
539.91	946.7	4065.08
539.96	946.65	4052.45
540.01	946.6	4148.13
540.06	946.55	4078.09
540.11	946.5	4143.54
540.16	946.45	4072.24
540.21	946.4	4140.45
540.26	946.35	4117.85
540.31	946.3	4126.18
540.36	946.25	4078.11
540.41	946.2	4124.65
540.46	946.15	4076.03
540.51	946.1	4067.14
540.56	946.05	4024.05
540.61	946	4064.13
540.66	945.95	4079.44
540.71	945.9	4074.56
540.76	945.85	4064.32
540.81	945.8	4033.94
540.86	945.75	4061.48
540.91	945.7	4065.81
540.96	945.65	4069.8
541.01	945.6	4096.98
541.06	945.55	4088.21
541.11	945.5	4033.48
541.16	945.45	3985.29
541.21	945.4	3997.89
541.26	945.35	3959.79
541.31	945.3	4003.51
541.36	945.25	4032.86
541.41	945.2	3978.11
541.46	945.15	3928.59
541.51	945.1	3954.06
541.56	945.05	4055.61
541.61	945	4003.14
541.66	944.95	4009.75
541.71	944.9	3985.85
541.76	944.85	3986.39
541.81	944.8	3929.15
541.86	944.75	3893.23
541.91	944.7	3861.79
541.96	944.65	3915.66
542.01	944.6	3920.63
542.06	944.55	3955.89
542.11	944.5	3948.4
542.16	944.45	3947.63
542.21	944.4	3906.5
542.26	944.35	3923.94
542.31	944.3	3950.83
542.36	944.25	3957.13
542.41	944.2	3971.71
542.46	944.15	3914.03
542.51	944.1	3904.73
542.56	944.05	3891.3
542.61	944	3960.81
542.66	943.95	3900.1
542.71	943.9	3815.44
542.76	943.85	3860.02
542.81	943.8	3838.43
542.86	943.75	3890.39
542.91	943.7	3885.26
542.96	943.65	3935.05
543.01	943.6	3917.66
543.06	943.55	3928.86
543.11	943.5	3845.76
543.16	943.45	3819.06
543.21	943.4	3779.33
543.26	943.35	3768.87
543.31	943.3	3839.73
543.36	943.25	3817.73
543.41	943.2	3831.41
543.46	943.15	3785.84
543.51	943.1	3733.76
543.56	943.05	3782.43
543.61	943	3765.59
543.66	942.95	3758.38
543.71	942.9	3787.44
543.76	942.85	3742.19
543.81	942.8	3717.78
543.86	942.75	3732.53
543.91	942.7	3771.97
543.96	942.65	3735.07
544.01	942.6	3788.14
544.06	942.55	3828.65
544.11	942.5	3770.23
544.16	942.45	3747.45
544.21	942.4	3736.49
544.26	942.35	3750.02
544.31	942.3	3706.73
544.36	942.25	3696.79
544.41	942.2	3690.65
544.46	942.15	3715.74
544.51	942.1	3680.69
544.56	942.05	3641.67
544.61	942	3663.92
544.66	941.95	3683.07
544.71	941.9	3655.04
544.76	941.85	3624.73
544.81	941.8	3613.24
544.86	941.75	3648.42
544.91	941.7	3582.45
544.96	941.65	3695.08
545.01	941.6	3615.12
545.06	941.55	3626.12
545.11	941.5	3643.03
545.16	941.45	3576.63
545.21	941.4	3621.88
545.26	941.35	3576.63
545.31	941.3	3589.36
545.36	941.25	3555.24
545.41	941.2	3611.94
545.46	941.15	3550.64
545.51	941.1	3560.33
545.56	941.05	3550.32
545.61	941	3511.98
545.66	940.95	3581.84
545.71	940.9	3622.74
545.76	940.85	3569.26
545.81	940.8	3625.96
545.86	940.75	3602.82
545.91	940.7	3510.51
545.96	940.65	3548.17
546.01	940.6	3556.23
546.06	940.55	3610.83
546.11	940.5	3574.67
546.16	940.45	3525.04
546.21	940.4	3585.07
546.26	940.35	3565.17
546.31	940.3	3544.81
546.36	940.25	3593.43
546.41	940.2	3628.4
546.46	940.15	3618.62
546.51	940.1	3580.04
546.56	940.05	3544.65
546.61	940	3512.59
546.66	939.95	3501.99
546.71	939.9	3523.37
546.76	939.85	3573.07
546.81	939.8	3597.16
546.86	939.75	3521.26
546.91	939.7	3550.61
546.96	939.65	3495.04
547.01	939.6	3561.18
547.06	939.55	3596.49
547.11	939.5	3543.66
547.16	939.45	3557.54
547.21	939.4	3555.72
547.26	939.35	3568.63
547.31	939.3	3564.2
547.36	939.25	3519.75
547.41	939.2	3534.26
547.46	939.15	3540.8
547.51	939.1	3552.63
547.56	939.05	3571.78
547.61	939	3540.64
547.66	938.95	3626.23
547.71	938.9	3548.58
547.76	938.85	3492.49
547.81	938.8	3492.85
547.86	938.75	3548.68
547.91	938.7	3565.05
547.96	938.65	3570.17
548.01	938.6	3469.57
548.06	938.55	3567.08
548.11	938.5	3564.1
548.16	938.45	3579.79
548.21	938.4	3577.84
548.26	938.35	3581.92
548.31	938.3	3581.26
548.36	938.25	3584.58
548.41	938.2	3601.34
548.46	938.15	3555.15
548.51	938.1	3594.03
548.56	938.05	3576.67
548.61	938	3604
548.66	937.95	3610.12
548.71	937.9	3563
548.76	937.85	3636.08
548.81	937.8	3654.69
548.86	937.75	3631.39
548.91	937.7	3621.07
548.96	937.65	3599.23
549.01	937.6	3662.5
549.06	937.55	3662.5
549.11	937.5	3674.17
549.16	937.45	3679.29
549.21	937.4	3673.12
549.26	937.35	3656.72
549.31	937.3	3644.74
549.36	937.25	3667.09
549.41	937.2	3744.77
549.46	937.15	3733.16
549.51	937.1	3624.02
549.56	937.05	3724.96
549.61	937	3716.87
549.66	936.95	3665.69
549.71	936.9	3737.02
549.76	936.85	3733.71
549.81	936.8	3748.82
549.86	936.75	3717.4
549.91	936.7	3695.54
549.96	936.65	3682.56
550.01	936.6	3726.61
550.06	936.55	3725.47
550.11	936.5	3783.35
550.16	936.45	3739.03
550.21	936.4	3752.77
550.26	936.35	3765.67
550.31	936.3	3748.22
550.36	936.25	3752.12
550.41	936.2	3822.19
550.46	936.15	3848.5
550.51	936.1	3776.27
550.56	936.05	3823.78
550.61	936	3825.46
550.66	935.95	3734.79
550.71	935.9	3824.87
550.76	935.85	3742.98
550.81	935.8	3807.26
550.86	935.75	3787.84
550.91	935.7	3745.74
550.96	935.65	3826.56
551.01	935.6	3780.55
551.06	935.55	3825.53
551.11	935.5	3830.88
551.16	935.45	3858.73
551.21	935.4	3885.07
551.26	935.35	3828.79
551.31	935.3	3844.24
551.36	935.25	3848.1
551.41	935.2	3845.87
551.46	935.15	3900.9
551.51	935.1	3937.35
551.56	935.05	3865.46
551.61	935	3917.89
551.66	934.95	3878.18
551.71	934.9	3833.41
551.76	934.85	3954.03
551.81	934.8	4072.41
551.86	934.75	4004.89
551.91	934.7	4050.15
551.96	934.65	4130.8
552.01	934.6	4094.42
552.06	934.55	4129.01
552.11	934.5	4183.59
552.16	934.45	4237.81
552.21	934.4	4266.99
552.26	934.35	4315.52
552.31	934.3	4398.81
552.36	934.25	4419.8
552.41	934.2	4450.14
552.46	934.15	4551.73
552.51	934.1	4660.46
552.56	934.05	4744.49
552.61	934	4774.18
552.66	933.95	4879.93
552.71	933.9	5104.27
552.76	933.85	5248.79
552.81	933.8	5423.64
552.86	933.75	5609.21
552.91	933.7	5871.02
552.96	933.65	6047.91
553.01	933.6	6320.35
553.06	933.55	6705.93
553.11	933.5	7030.97
553.16	933.45	7424.88
553.21	933.4	7909.12
553.26	933.35	8499.13
553.31	933.3	9201.22
553.36	933.25	9889.99
553.41	933.2	10710.8
553.46	933.15	11634.5
553.51	933.1	12634.7
553.56	933.05	13851.2
553.61	933	14996.6
553.66	932.95	16208.6
553.71	932.9	17429.1
553.76	932.85	18390.1
553.81	932.8	19117.1
553.86	932.75	19736.4
553.91	932.7	20233.7
553.96	932.65	20388.2
554.01	932.6	20198
554.06	932.55	20198.4
554.11	932.5	19678.5
554.16	932.45	18899
554.21	932.4	17988.3
554.26	932.35	16964.5
554.31	932.3	15871.4
554.36	932.25	14652.8
554.41	932.2	13422
554.46	932.15	12337.5
554.51	932.1	11331.1
554.56	932.05	10396.4
554.61	932	9549
554.66	931.95	8837.48
554.71	931.9	8044.15
554.76	931.85	7446.87
554.81	931.8	6903.54
554.86	931.75	6666.01
554.91	931.7	6164.05
554.96	931.65	5795.88
555.01	931.6	5438.98
555.06	931.55	5254.16
555.11	931.5	5012.71
555.16	931.45	4876.24
555.21	931.4	4662.91
555.26	931.35	4546.22
555.31	931.3	4358.34
555.36	931.25	4232.24
555.41	931.2	4127.21
555.46	931.15	3985.38
555.51	931.1	3880.56
555.56	931.05	3794.59
555.61	931	3836.51
555.66	930.95	3733.86
555.71	930.9	3625.94
555.76	930.85	3598.93
555.81	930.8	3540.11
555.86	930.75	3584.89
555.91	930.7	3464.59
555.96	930.65	3408.92
556.01	930.6	3353.11
556.06	930.55	3355.57
556.11	930.5	3350.07
556.16	930.45	3296.5
556.21	930.4	3293.6
556.26	930.35	3301.65
556.31	930.3	3260.61
556.36	930.25	3203
556.41	930.2	3228.77
556.46	930.15	3224.78
556.51	930.1	3174.54
556.56	930.05	3144.67
556.61	930	3046.55
556.66	929.95	3127.4
556.71	929.9	3126.22
556.76	929.85	3112.16
556.81	929.8	3130.22
556.86	929.75	3133.33
556.91	929.7	3074.74
556.96	929.65	3094.59
557.01	929.6	3057.28
557.06	929.55	3042.2
557.11	929.5	3054.75
557.16	929.45	3111.85
557.21	929.4	3042.45
557.26	929.35	3034.4
557.31	929.3	3000.09
557.36	929.25	2997.09
557.41	929.2	2983
557.46	929.15	3018.93
557.51	929.1	2980.9
557.56	929.05	2930.88
557.61	929	2967.73
557.66	928.95	2976.74
557.71	928.9	2947.08
557.76	928.85	2943.32
557.81	928.8	2991.6
557.86	928.75	2990.63
557.91	928.7	2944.36
557.96	928.65	2965.16
558.01	928.6	2943.33
558.06	928.55	2898.89
558.11	928.5	2917.4
558.16	928.45	2880.37
558.21	928.4	2899.83
558.26	928.35	2888.69
558.31	928.3	2845.65
558.36	928.25	2870.13
558.41	928.2	2913.92
558.46	928.15	2951.98
558.51	928.1	2890.52
558.56	928.05	2917.95
558.61	928	2919.64
558.66	927.95	2890.4
558.71	927.9	2843.49
558.76	927.85	2900.27
558.81	927.8	2868.36
558.86	927.75	2896.14
558.91	927.7	2886.87
558.96	927.65	2937.78
559.01	927.6	2910.63
559.06	927.55	2830.69
559.11	927.5	2883.11
559.16	927.45	2875.66
559.21	927.4	2903.35
559.26	927.35	2839.1
559.31	927.3	2893.25
559.36	927.25	2878.76
559.41	927.2	2860.53
559.46	927.15	2919.85
559.51	927.1	2901.18
559.56	927.05	2927.74
559.61	927	2835.99
559.66	926.95	2840.4
559.71	926.9	2881.33
559.76	926.85	2911.18
559.81	926.8	2883.01
559.86	926.75	2904.86
559.91	926.7	2862.52
559.96	926.65	2857.85
560.01	926.6	2862.64
560.06	926.55	2882.21
560.11	926.5	2843.59
560.16	926.45	2874.12
560.21	926.4	2866.73
560.26	926.35	2829.24
560.31	926.3	2903.86
560.36	926.25	2843.43
560.41	926.2	2898.9
560.46	926.15	2862.72
560.51	926.1	2834.67
560.56	926.05	2831.05
560.61	926	2840.85
560.66	925.95	2877.69
560.71	925.9	2872.86
560.76	925.85	2849
560.81	925.8	2790.59
560.86	925.75	2847.64
560.91	925.7	2860.91
560.96	925.65	2823.02
561.01	925.6	2849.41
561.06	925.55	2892.37
561.11	925.5	2879.68
561.16	925.45	2798.75
561.21	925.4	2872.88
561.26	925.35	2828.99
561.31	925.3	2792.27
561.36	925.25	2792.54
561.41	925.2	2917.88
561.46	925.15	2846.2
561.51	925.1	2831.7
561.56	925.05	2838.88
561.61	925	2804.04
561.66	924.95	2792.56
561.71	924.9	2793.48
561.76	924.85	2816.04
561.81	924.8	2858.74
561.86	924.75	2779.59
561.91	924.7	2823.91
561.96	924.65	2902.26
562.01	924.6	2900.05
562.06	924.55	2842.13
562.11	924.5	2824.6
562.16	924.45	2805.72
562.21	924.4	2837.45
562.26	924.35	2814.01
562.31	924.3	2817.45
562.36	924.25	2790
562.41	924.2	2835.02
562.46	924.15	2805.59
562.51	924.1	2782.14
562.56	924.05	2873.33
562.61	924	2829.68
562.66	923.95	2823.6
562.71	923.9	2881.63
562.76	923.85	2846.12
562.81	923.8	2816.8
562.86	923.75	2798.4
562.91	923.7	2860.11
562.96	923.65	2843.75
563.01	923.6	2772.12
563.06	923.55	2817.98
563.11	923.5	2834.38
563.16	923.45	2821.5
563.21	923.4	2786.01
563.26	923.35	2805.72
563.31	923.3	2829.73
563.36	923.25	2836.96
563.41	923.2	2826.85
563.46	923.15	2864.66
563.51	923.1	2846.6
563.56	923.05	2859.47
563.61	923	2856.75
563.66	922.95	2841.33
563.71	922.9	2802.69
563.76	922.85	2795.88
563.81	922.8	2824.56
563.86	922.75	2862.88
563.91	922.7	2832.69
563.96	922.65	2878.98
564.01	922.6	2866.22
564.06	922.55	2865.04
564.11	922.5	2788.04
564.16	922.45	2850.19
564.21	922.4	2898.87
564.26	922.35	2931.24
564.31	922.3	2844.75
564.36	922.25	2821.63
564.41	922.2	2844.85
564.46	922.15	2839.83
564.51	922.1	2817.12
564.56	922.05	2782.61
564.61	922	2832.3
564.66	921.95	2885.22
564.71	921.9	2860.37
564.76	921.85	2838.48
564.81	921.8	2827.88
564.86	921.75	2787.84
564.91	921.7	2833.58
564.96	921.65	2846.98
565.01	921.6	2867.65
565.06	921.55	2863.5
565.11	921.5	2829.97
565.16	921.45	2863.94
565.21	921.4	2844.83
565.26	921.35	2793.5
565.31	921.3	2824.46
565.36	921.25	2887.36
565.41	921.2	2843.58
565.46	921.15	2802.06
565.51	921.1	2876.72
565.56	921.05	2831.56
565.61	921	2815.46
565.66	920.95	2850.02
565.71	920.9	2844.4
565.76	920.85	2850.3
565.81	920.8	2834.47
565.86	920.75	2824.89
565.91	920.7	2783.62
565.96	920.65	2803.55
566.01	920.6	2810.29
566.06	920.55	2850.97
566.11	920.5	2813.09
566.16	920.45	2804.03
566.21	920.4	2850.43
566.26	920.35	2828.8
566.31	920.3	2827.8
566.36	920.25	2896.73
566.41	920.2	2881.43
566.46	920.15	2860.56
566.51	920.1	2830.72
566.56	920.05	2866.88
566.61	920	2896.97