C:\Users\Mark\ownCloud\Muelheim Group\Projects\Gas phase background\EX321_CEC356_Au Ag and Cu in O2.vms
Pr:Cu2p
	Characteristic Energy eV	1486.61	Acquisition Time s	1
KE_Pr:Cu2p	BE_Pr:Cu2p	CPS_Pr:Cu2p	Background_Pr:Cu2p
456.61	1030	43027.7	43027.7
456.71	1029.9	43266	43266
456.81	1029.8	43304	43304
456.91	1029.7	43036.4	43036.4
457.01	1029.6	43072.4	43072.4
457.11	1029.5	42988.4	42988.4
457.21	1029.4	43187.8	43187.8
457.31	1029.3	43268.5	43268.5
457.41	1029.2	43347.1	43347.1
457.51	1029.1	43496.8	43496.8
457.61	1029	43362.3	43362.3
457.71	1028.9	43179.1	43179.1
457.81	1028.8	43231.2	43231.2
457.91	1028.7	43402.7	43402.7
458.01	1028.6	43502.7	43502.7
458.11	1028.5	43583.9	43583.9
458.21	1028.4	43419.7	43419.7
458.31	1028.3	43241.4	43241.4
458.41	1028.2	43334	43334
458.51	1028.1	43496.5	43496.5
458.61	1028	43250.3	43250.3
458.71	1027.9	43316.5	43316.5
458.81	1027.8	43381.1	43381.1
458.91	1027.7	43323.4	43323.4
459.01	1027.6	43228.2	43228.2
459.11	1027.5	43096.4	43096.4
459.21	1027.4	43266.3	43266.3
459.31	1027.3	43357.6	43357.6
459.41	1027.2	43398.6	43398.6
459.51	1027.1	43419.1	43419.1
459.61	1027	43379.2	43379.2
459.71	1026.9	43441.9	43441.9
459.81	1026.8	43432.4	43432.4
459.91	1026.7	43389.2	43389.2
460.01	1026.6	43533.2	43533.2
460.11	1026.5	43506.9	43506.9
460.21	1026.4	43458.5	43458.5
460.31	1026.3	43589.9	43589.9
460.41	1026.2	43489.2	43489.2
460.51	1026.1	43546.7	43546.7
460.61	1026	43526	43526
460.71	1025.9	43431.4	43431.4
460.81	1025.8	43622.8	43622.8
460.91	1025.7	43489.4	43489.4
461.01	1025.6	43503.3	43503.3
461.11	1025.5	43672.9	43672.9
461.21	1025.4	43661	43661
461.31	1025.3	43619.2	43619.2
461.41	1025.2	43780.5	43780.5
461.51	1025.1	43741.7	43741.7
461.61	1025	43586.2	43586.2
461.71	1024.9	43558	43558
461.81	1024.8	43679.6	43679.6
461.91	1024.7	43625.5	43625.5
462.01	1024.6	43562.2	43562.2
462.11	1024.5	43616.8	43616.8
462.21	1024.4	43690.2	43690.2
462.31	1024.3	43928.5	43928.5
462.41	1024.2	43755.3	43755.3
462.51	1024.1	43835	43835
462.61	1024	43717.3	43717.3
462.71	1023.9	43688.9	43688.9
462.81	1023.8	43839.6	43839.6
462.91	1023.7	43813.1	43813.1
463.01	1023.6	43667.2	43667.2
463.11	1023.5	43929.1	43929.1
463.21	1023.4	44098	44098
463.31	1023.3	44069.8	44069.8
463.41	1023.2	43812.8	43812.8
463.51	1023.1	43739	43739
463.61	1023	43918.1	43918.1
463.71	1022.9	43811.9	43811.9
463.81	1022.8	43834.6	43834.6
463.91	1022.7	43912.3	43912.3
464.01	1022.6	44024.4	44024.4
464.11	1022.5	44097.6	44097.6
464.21	1022.4	43960	43960
464.31	1022.3	43899.1	43899.1
464.41	1022.2	44058.1	44058.1
464.51	1022.1	43863.3	43863.3
464.61	1022	43840.3	43840.3
464.71	1021.9	43958.9	43958.9
464.81	1021.8	44045.1	44045.1
464.91	1021.7	44065.3	44065.3
465.01	1021.6	44056.5	44056.5
465.11	1021.5	44097.5	44097.5
465.21	1021.4	44078.6	44078.6
465.31	1021.3	43987.2	43987.2
465.41	1021.2	43995.2	43995.2
465.51	1021.1	44247.3	44247.3
465.61	1021	44218.8	44218.8
465.71	1020.9	44208.3	44208.3
465.81	1020.8	44011	44011
465.91	1020.7	44036.1	44036.1
466.01	1020.6	44125.9	44125.9
466.11	1020.5	44180.4	44180.4
466.21	1020.4	44318.7	44318.7
466.31	1020.3	44486.7	44486.7
466.41	1020.2	44210.8	44210.8
466.51	1020.1	44091.4	44091.4
466.61	1020	44255	44255
466.71	1019.9	44183.9	44183.9
466.81	1019.8	44326.4	44326.4
466.91	1019.7	44443.1	44443.1
467.01	1019.6	44528.4	44528.4
467.11	1019.5	44280.4	44280.4
467.21	1019.4	44233.2	44233.2
467.31	1019.3	44374.9	44374.9
467.41	1019.2	44442.1	44442.1
467.51	1019.1	44300.3	44300.3
467.61	1019	44239	44239
467.71	1018.9	44501	44501
467.81	1018.8	44438.5	44438.5
467.91	1018.7	44582	44582
468.01	1018.6	44621.6	44621.6
468.11	1018.5	44515.3	44515.3
468.21	1018.4	44603.3	44603.3
468.31	1018.3	44579.8	44579.8
468.41	1018.2	44454.6	44454.6
468.51	1018.1	44592.5	44592.5
468.61	1018	44606.2	44606.2
468.71	1017.9	44522.1	44522.1
468.81	1017.8	44430.6	44430.6
468.91	1017.7	44633.1	44633.1
469.01	1017.6	44838.2	44838.2
469.11	1017.5	44824.3	44824.3
469.21	1017.4	44508.1	44508.1
469.31	1017.3	44519.2	44519.2
469.41	1017.2	44718.6	44718.6
469.51	1017.1	44754.7	44754.7
469.61	1017	44806.3	44806.3
469.71	1016.9	44704.5	44704.5
469.81	1016.8	44540.3	44540.3
469.91	1016.7	44483.3	44483.3
470.01	1016.6	44902.8	44902.8
470.11	1016.5	44920.3	44920.3
470.21	1016.4	44874.4	44874.4
470.31	1016.3	44783.6	44783.6
470.41	1016.2	44855.2	44855.2
470.51	1016.1	44770.8	44770.8
470.61	1016	44901.8	44901.8
470.71	1015.9	44904.2	44904.2
470.81	1015.8	44972.8	44972.8
470.91	1015.7	45043.2	45043.2
471.01	1015.6	45045.5	45045.5
471.11	1015.5	45098.4	45098.4
471.21	1015.4	45100	45100
471.31	1015.3	44919.7	44919.7
471.41	1015.2	44811.4	44811.4
471.51	1015.1	45190.3	45190.3
471.61	1015	45133.3	45133.3
471.71	1014.9	45165.3	45165.3
471.81	1014.8	45028.9	45028.9
471.91	1014.7	45099.6	45099.6
472.01	1014.6	45132.7	45132.7
472.11	1014.5	45079.9	45079.9
472.21	1014.4	45187.4	45187.4
472.31	1014.3	45170	45170
472.41	1014.2	45188.6	45188.6
472.51	1014.1	45121.7	45121.7
472.61	1014	45260.6	45260.6
472.71	1013.9	45173.3	45173.3
472.81	1013.8	45224.6	45224.6
472.91	1013.7	45220.9	45220.9
473.01	1013.6	45256	45256
473.11	1013.5	45272.3	45272.3
473.21	1013.4	45457.6	45457.6
473.31	1013.3	45382	45382
473.41	1013.2	45328.4	45328.4
473.51	1013.1	45421.7	45421.7
473.61	1013	45454.5	45454.5
473.71	1012.9	45456.8	45456.8
473.81	1012.8	45601.4	45601.4
473.91	1012.7	45430	45430
474.01	1012.6	45445.1	45445.1
474.11	1012.5	45357.8	45357.8
474.21	1012.4	45444.2	45444.2
474.31	1012.3	45186.9	45186.9
474.41	1012.2	45578.2	45578.2
474.51	1012.1	45733.5	45733.5
474.61	1012	45602.6	45602.6
474.71	1011.9	45660.7	45660.7
474.81	1011.8	45489	45489
474.91	1011.7	45457.4	45457.4
475.01	1011.6	45395.5	45395.5
475.11	1011.5	45499.4	45499.4
475.21	1011.4	45679	45679
475.31	1011.3	45919.9	45919.9
475.41	1011.2	45775.3	45775.3
475.51	1011.1	45711.5	45711.5
475.61	1011	45535.1	45535.1
475.71	1010.9	45511.5	45511.5
475.81	1010.8	45792.5	45792.5
475.91	1010.7	45868.3	45868.3
476.01	1010.6	45747.5	45747.5
476.11	1010.5	45742.5	45742.5
476.21	1010.4	45939.7	45939.7
476.31	1010.3	45719.4	45719.4
476.41	1010.2	45893.2	45893.2
476.51	1010.1	45969.8	45969.8
476.61	1010	45957.7	45957.7
476.71	1009.9	46175.3	46175.3
476.81	1009.8	46080.2	46080.2
476.91	1009.7	46251	46251
477.01	1009.6	46105.1	46105.1
477.11	1009.5	45852.9	45852.9
477.21	1009.4	45926.6	45926.6
477.31	1009.3	45919.9	45919.9
477.41	1009.2	46169.1	46169.1
477.51	1009.1	46011.1	46011.1
477.61	1009	45936.5	45936.5
477.71	1008.9	45959.8	45959.8
477.81	1008.8	46235	46235
477.91	1008.7	46269.1	46269.1
478.01	1008.6	46110.2	46110.2
478.11	1008.5	46104.7	46104.7
478.21	1008.4	46165	46165
478.31	1008.3	46046.5	46046.5
478.41	1008.2	46133.8	46133.8
478.51	1008.1	46319.4	46319.4
478.61	1008	46390.6	46390.6
478.71	1007.9	46264.5	46264.5
478.81	1007.8	46119.2	46119.2
478.91	1007.7	46078.3	46078.3
479.01	1007.6	46246.1	46246.1
479.11	1007.5	46113.3	46113.3
479.21	1007.4	46186.4	46186.4
479.31	1007.3	46241.7	46241.7
479.41	1007.2	46089.5	46089.5
479.51	1007.1	46234.9	46234.9
479.61	1007	46169.1	46169.1
479.71	1006.9	46232.5	46232.5
479.81	1006.8	46464.1	46464.1
479.91	1006.7	46590.2	46590.2
480.01	1006.6	46240.4	46240.4
480.11	1006.5	46364	46364
480.21	1006.4	46240.5	46240.5
480.31	1006.3	46227.6	46227.6
480.41	1006.2	46389.2	46389.2
480.51	1006.1	46403.7	46403.7
480.61	1006	46272.8	46272.8
480.71	1005.9	46272.3	46272.3
480.81	1005.8	46335.7	46335.7
480.91	1005.7	46464.3	46464.3
481.01	1005.6	46481.2	46481.2
481.11	1005.5	46431.7	46431.7
481.21	1005.4	46190.7	46190.7
481.31	1005.3	46241	46241
481.41	1005.2	46189.7	46189.7
481.51	1005.1	46393.6	46393.6
481.61	1005	46358.8	46358.8
481.71	1004.9	46392.3	46392.3
481.81	1004.8	46426.7	46426.7
481.91	1004.7	46438.5	46438.5
482.01	1004.6	46471.9	46471.9
482.11	1004.5	46545.8	46545.8
482.21	1004.4	46397.2	46397.2
482.31	1004.3	46474.5	46474.5
482.41	1004.2	46598.1	46598.1
482.51	1004.1	46326.1	46326.1
482.61	1004	46444.7	46444.7
482.71	1003.9	46540.1	46540.1
482.81	1003.8	46450.8	46450.8
482.91	1003.7	46509	46509
483.01	1003.6	46603.2	46603.2
483.11	1003.5	46597.4	46597.4
483.21	1003.4	46669.9	46669.9
483.31	1003.3	46836.2	46836.2
483.41	1003.2	46761	46761
483.51	1003.1	46700.7	46700.7
483.61	1003	46485.5	46485.5
483.71	1002.9	46641.2	46641.2
483.81	1002.8	46919.6	46919.6
483.91	1002.7	46824.1	46824.1
484.01	1002.6	46751.7	46751.7
484.11	1002.5	46562.8	46562.8
484.21	1002.4	46670.6	46670.6
484.31	1002.3	46714.7	46714.7
484.41	1002.2	46842.9	46842.9
484.51	1002.1	46872.5	46872.5
484.61	1002	47113.5	47113.5
484.71	1001.9	47226.5	47226.5
484.81	1001.8	46920.1	46920.1
484.91	1001.7	47045.4	47045.4
485.01	1001.6	47210.8	47210.8
485.11	1001.5	46928.2	46928.2
485.21	1001.4	47004.6	47004.6
485.31	1001.3	47035.5	47035.5
485.41	1001.2	47189.3	47189.3
485.51	1001.1	47087	47087
485.61	1001	46854.6	46854.6
485.71	1000.9	46982.1	46982.1
485.81	1000.8	46985	46985
485.91	1000.7	47206.5	47206.5
486.01	1000.6	47145	47145
486.11	1000.5	46997.2	46997.2
486.21	1000.4	47126.6	47126.6
486.31	1000.3	47131.7	47131.7
486.41	1000.2	47264	47264
486.51	1000.1	47192.2	47192.2
486.61	1000	47468	47468
486.71	999.9	47376.5	47376.5
486.81	999.8	47224.7	47224.7
486.91	999.7	47357.1	47357.1
487.01	999.6	47510.6	47510.6
487.11	999.5	47363.6	47363.6
487.21	999.4	47151.4	47151.4
487.31	999.3	47337.1	47337.1
487.41	999.2	47421.5	47421.5
487.51	999.1	47395.8	47395.8
487.61	999	47532.9	47532.9
487.71	998.9	47561.5	47561.5
487.81	998.8	47551.3	47551.3
487.91	998.7	47578.2	47578.2
488.01	998.6	47472.5	47472.5
488.11	998.5	47574.2	47574.2
488.21	998.4	47672.3	47672.3
488.31	998.3	47937.4	47937.4
488.41	998.2	47759.4	47759.4
488.51	998.1	47839.2	47839.2
488.61	998	47696.4	47696.4
488.71	997.9	47685.1	47685.1
488.81	997.8	47879.5	47879.5
488.91	997.7	47844.9	47844.9
489.01	997.6	47890.3	47890.3
489.11	997.5	47931.2	47931.2
489.21	997.4	47974.8	47974.8
489.31	997.3	48158.9	48158.9
489.41	997.2	47873.4	47873.4
489.51	997.1	47740.8	47740.8
489.61	997	48093.6	48093.6
489.71	996.9	47996.5	47996.5
489.81	996.8	48093.2	48093.2
489.91	996.7	48131.1	48131.1
490.01	996.6	48274.8	48274.8
490.11	996.5	48323.3	48323.3
490.21	996.4	48247.1	48247.1
490.31	996.3	48168	48168
490.41	996.2	48246.8	48246.8
490.51	996.1	48447.4	48447.4
490.61	996	48438.9	48438.9
490.71	995.9	48523.1	48523.1
490.81	995.8	48626	48626
490.91	995.7	48578	48578
491.01	995.6	48653.6	48653.6
491.11	995.5	48665.4	48665.4
491.21	995.4	48638.2	48638.2
491.31	995.3	48764.4	48764.4
491.41	995.2	48827.5	48827.5
491.51	995.1	48552.3	48552.3
491.61	995	48632.2	48632.2
491.71	994.9	48862.4	48862.4
491.81	994.8	48898.4	48898.4
491.91	994.7	49031	49031
492.01	994.6	49084.5	49084.5
492.11	994.5	48904.4	48904.4
492.21	994.4	48669.9	48669.9
492.31	994.3	48931.3	48931.3
492.41	994.2	48808.5	48808.5
492.51	994.1	49139.9	49139.9
492.61	994	49203	49203
492.71	993.9	48894.7	48894.7
492.81	993.8	48899.6	48899.6
492.91	993.7	48964.4	48964.4
493.01	993.6	48722.6	48722.6
493.11	993.5	48984.9	48984.9
493.21	993.4	48990.5	48990.5
493.31	993.3	48973.5	48973.5
493.41	993.2	49053.4	49053.4
493.51	993.1	48841.7	48841.7
493.61	993	48922.9	48922.9
493.71	992.9	48811.5	48811.5
493.81	992.8	48716.7	48716.7
493.91	992.7	48643	48643
494.01	992.6	48856.1	48856.1
494.11	992.5	48843.3	48843.3
494.21	992.4	48710.3	48710.3
494.31	992.3	48546.7	48546.7
494.41	992.2	48670.3	48670.3
494.51	992.1	48582.5	48582.5
494.61	992	48671.8	48671.8
494.71	991.9	48800.8	48800.8
494.81	991.8	48847	48847
494.91	991.7	48819.6	48819.6
495.01	991.6	48588.4	48588.4
495.11	991.5	48653.2	48653.2
495.21	991.4	48568.7	48568.7
495.31	991.3	48422	48422
495.41	991.2	48785.2	48785.2
495.51	991.1	48918.4	48918.4
495.61	991	48723.8	48723.8
495.71	990.9	48696.1	48696.1
495.81	990.8	48695.8	48695.8
495.91	990.7	48651.7	48651.7
496.01	990.6	48904.7	48904.7
496.11	990.5	48772.4	48772.4
496.21	990.4	48685.4	48685.4
496.31	990.3	48805.6	48805.6
496.41	990.2	48906.6	48906.6
496.51	990.1	48977.6	48977.6
496.61	990	48835.6	48835.6
496.71	989.9	48921.8	48921.8
496.81	989.8	48688.8	48688.8
496.91	989.7	48647.5	48647.5
497.01	989.6	48811.4	48811.4
497.11	989.5	48828.6	48828.6
497.21	989.4	48945.6	48945.6
497.31	989.3	49048.4	49048.4
497.41	989.2	49008.1	49008.1
497.51	989.1	49086.9	49086.9
497.61	989	49250.8	49250.8
497.71	988.9	49063.1	49063.1
497.81	988.8	49031.1	49031.1
497.91	988.7	49022.9	49022.9
498.01	988.6	48808.7	48808.7
498.11	988.5	48975.4	48975.4
498.21	988.4	48854.2	48854.2
498.31	988.3	48945.4	48945.4
498.41	988.2	48901	48901
498.51	988.1	48944.8	48944.8
498.61	988	49049.2	49049.2
498.71	987.9	48998.2	48998.2
498.81	987.8	48943.6	48943.6
498.91	987.7	49188.2	49188.2
499.01	987.6	49036.1	49036.1
499.11	987.5	49306.5	49306.5
499.21	987.4	49118.6	49118.6
499.31	987.3	49294.4	49294.4
499.41	987.2	49209	49209
499.51	987.1	49105	49105
499.61	987	49157	49157
499.71	986.9	49268.3	49268.3
499.81	986.8	49132.5	49132.5
499.91	986.7	48978.8	48978.8
500.01	986.6	48977.5	48977.5
500.11	986.5	49172.6	49172.6
500.21	986.4	49142.9	49142.9
500.31	986.3	48973.1	48973.1
500.41	986.2	49122.9	49122.9
500.51	986.1	49213	49213
500.61	986	49148.8	49148.8
500.71	985.9	49224.2	49224.2
500.81	985.8	49311.2	49311.2
500.91	985.7	49302.7	49302.7
501.01	985.6	49454.8	49454.8
501.11	985.5	49442.7	49442.7
501.21	985.4	49383.5	49383.5
501.31	985.3	49238.3	49238.3
501.41	985.2	49296.5	49296.5
501.51	985.1	49502.8	49502.8
501.61	985	49417.2	49417.2
501.71	984.9	49267.6	49267.6
501.81	984.8	49110.4	49110.4
501.91	984.7	49453.7	49453.7
502.01	984.6	49345.3	49345.3
502.11	984.5	49434.4	49434.4
502.21	984.4	49588.7	49588.7
502.31	984.3	49350.7	49350.7
502.41	984.2	49038.5	49038.5
502.51	984.1	49222.4	49222.4
502.61	984	49557.9	49557.9
502.71	983.9	49547.6	49547.6
502.81	983.8	49432.5	49432.5
502.91	983.7	49461.5	49461.5
503.01	983.6	49590.3	49590.3
503.11	983.5	49652.2	49652.2
503.21	983.4	49519.5	49519.5
503.31	983.3	49807.4	49807.4
503.41	983.2	49614.8	49614.8
503.51	983.1	49518.9	49518.9
503.61	983	49541.3	49541.3
503.71	982.9	49631.3	49631.3
503.81	982.8	49718.1	49718.1
503.91	982.7	49680.1	49680.1
504.01	982.6	49902.1	49902.1
504.11	982.5	49882.1	49882.1
504.21	982.4	49839.8	49839.8
504.31	982.3	49933.3	49933.3
504.41	982.2	49951.5	49951.5
504.51	982.1	50014.4	50014.4
504.61	982	49907.1	49907.1
504.71	981.9	49810.5	49810.5
504.81	981.8	49759.1	49759.1
504.91	981.7	49827.8	49827.8
505.01	981.6	49857.5	49857.5
505.11	981.5	49878.2	49878.2
505.21	981.4	50118	50118
505.31	981.3	50020.2	50020.2
505.41	981.2	50087.8	50087.8
505.51	981.1	50056.7	50056.7
505.61	981	49946.3	49946.3
505.71	980.9	50065.2	50065.2
505.81	980.8	50219.7	50219.7
505.91	980.7	50026.5	50026.5
506.01	980.6	50134.6	50134.6
506.11	980.5	50149.4	50149.4
506.21	980.4	50309.2	50309.2
506.31	980.3	50403.2	50403.2
506.41	980.2	50521.2	50521.2
506.51	980.1	50453.5	50453.5
506.61	980	50396.3	50396.3
506.71	979.9	50486.9	50486.9
506.81	979.8	50550.6	50550.6
506.91	979.7	50506.3	50506.3
507.01	979.6	50565.8	50565.8
507.11	979.5	50742.3	50742.3
507.21	979.4	50625.2	50625.2
507.31	979.3	50919.9	50919.9
507.41	979.2	50776.8	50776.8
507.51	979.1	50609.1	50609.1
507.61	979	50757	50757
507.71	978.9	50760.1	50760.1
507.81	978.8	50950.4	50950.4
507.91	978.7	51101.8	51101.8
508.01	978.6	51068.7	51068.7
508.11	978.5	51081.9	51081.9
508.21	978.4	51164.1	51164.1
508.31	978.3	51306.7	51306.7
508.41	978.2	51214	51214
508.51	978.1	51485.2	51485.2
508.61	978	51628.9	51628.9
508.71	977.9	51784.3	51784.3
508.81	977.8	51678.5	51678.5
508.91	977.7	51619.6	51619.6
509.01	977.6	51840.3	51840.3
509.11	977.5	51826.3	51826.3
509.21	977.4	52046.2	52046.2
509.31	977.3	51992.4	51992.4
509.41	977.2	51902.5	51902.5
509.51	977.1	52274.9	52274.9
509.61	977	52452.5	52452.5
509.71	976.9	52446.6	52446.6
509.81	976.8	52247.6	52247.6
509.91	976.7	52352	52352
510.01	976.6	52361.5	52361.5
510.11	976.5	52798.1	52798.1
510.21	976.4	52950	52950
510.31	976.3	53053.2	53053.2
510.41	976.2	53138.3	53138.3
510.51	976.1	53026.1	53026.1
510.61	976	53155.2	53155.2
510.71	975.9	53153.6	53153.6
510.81	975.8	53510.4	53510.4
510.91	975.7	53339.7	53339.7
511.01	975.6	53610.9	53610.9
511.11	975.5	53702.4	53702.4
511.21	975.4	53757.2	53757.2
511.31	975.3	54046	54046
511.41	975.2	54028.8	54028.8
511.51	975.1	53909.8	53909.8
511.61	975	54205.8	54205.8
511.71	974.9	54317.6	54317.6
511.81	974.8	54561.7	54561.7
511.91	974.7	54518	54518
512.01	974.6	54346.2	54346.2
512.11	974.5	54548.2	54548.2
512.21	974.4	54546.3	54546.3
512.31	974.3	54617.8	54617.8
512.41	974.2	54465.8	54465.8
512.51	974.1	54341.4	54341.4
512.61	974	54390.6	54390.6
512.71	973.9	54215.3	54215.3
512.81	973.8	54075.3	54075.3
512.91	973.7	54034.1	54034.1
513.01	973.6	53821.1	53821.1
513.11	973.5	53701.9	53701.9
513.21	973.4	53830	53830
513.31	973.3	53689	53689
513.41	973.2	53300.5	53300.5
513.51	973.1	52947.2	52947.2
513.61	973	53117.8	53117.8
513.71	972.9	53212.5	53212.5
513.81	972.8	53162.1	53162.1
513.91	972.7	52980.6	52980.6
514.01	972.6	52954.1	52954.1
514.11	972.5	52865.3	52865.3
514.21	972.4	52828.5	52828.5
514.31	972.3	52794.3	52794.3
514.41	972.2	52770.6	52770.6
514.51	972.1	52688.3	52688.3
514.61	972	52502.6	52502.6
514.71	971.9	52311.5	52311.5
514.81	971.8	52704.7	52704.7
514.91	971.7	52717.5	52717.5
515.01	971.6	52509.8	52509.8
515.11	971.5	52406.1	52406.1
515.21	971.4	52323.7	52323.7
515.31	971.3	52362.9	52362.9
515.41	971.2	52337.6	52337.6
515.51	971.1	52084.4	52084.4
515.61	971	52115.6	52115.6
515.71	970.9	52102.1	52102.1
515.81	970.8	52196.5	52196.5
515.91	970.7	52037.1	52037.1
516.01	970.6	51882.3	51882.3
516.11	970.5	51936.9	51936.9
516.21	970.4	51886.7	51886.7
516.31	970.3	52236	52236
516.41	970.2	52091.1	52091.1
516.51	970.1	51937.3	51937.3
516.61	970	51662	51662
516.71	969.9	51752	51752
516.81	969.8	51645.9	51645.9
516.91	969.7	51617.8	51617.8
517.01	969.6	51340.5	51340.5
517.11	969.5	51349.9	51349.9
517.21	969.4	51480.2	51480.2
517.31	969.3	51690.8	51690.8
517.41	969.2	51595.5	51595.5
517.51	969.1	51541.7	51541.7
517.61	969	51409.2	51409.2
517.71	968.9	51536.2	51536.2
517.81	968.8	51499.2	51499.2
517.91	968.7	51201.9	51201.9
518.01	968.6	51281	51281
518.11	968.5	51413.5	51413.5
518.21	968.4	51559.1	51559.1
518.31	968.3	51439.3	51439.3
518.41	968.2	51400.7	51400.7
518.51	968.1	51381.4	51381.4
518.61	968	51178.1	51178.1
518.71	967.9	51366.6	51366.6
518.81	967.8	51364	51364
518.91	967.7	51367.8	51367.8
519.01	967.6	51546.6	51546.6
519.11	967.5	51618.1	51618.1
519.21	967.4	51646.7	51646.7
519.31	967.3	51419.5	51419.5
519.41	967.2	51450.3	51450.3
519.51	967.1	51406.9	51406.9
519.61	967	51430.5	51430.5
519.71	966.9	51555.5	51555.5
519.81	966.8	51339.3	51339.3
519.91	966.7	51640	51640
520.01	966.6	51806.6	51806.6
520.11	966.5	51951.9	51951.9
520.21	966.4	51907.9	51907.9
520.31	966.3	51956.6	51956.6
520.41	966.2	52154.5	52154.5
520.51	966.1	52159.3	52159.3
520.61	966	52348.6	52348.6
520.71	965.9	52605.6	52605.6
520.81	965.8	52707.8	52707.8
520.91	965.7	52819.7	52819.7
521.01	965.6	52793.8	52793.8
521.11	965.5	52669.5	52669.5
521.21	965.4	52788	52788
521.31	965.3	52971.1	52971.1
521.41	965.2	53272.2	53272.2
521.51	965.1	53238.8	53238.8
521.61	965	53227.9	53227.9
521.71	964.9	53377	53377
521.81	964.8	53245.1	53245.1
521.91	964.7	53257.7	53257.7
522.01	964.6	53074.5	53074.5
522.11	964.5	52820.4	52820.4
522.21	964.4	52863.5	52863.5
522.31	964.3	52760.9	52760.9
522.41	964.2	52650.9	52650.9
522.51	964.1	52751.8	52751.8
522.61	964	52672.7	52672.7
522.71	963.9	52746.5	52746.5
522.81	963.8	52659.7	52659.7
522.91	963.7	52746.2	52746.2
523.01	963.6	52964.9	52964.9
523.11	963.5	53135.3	53135.3
523.21	963.4	53116.7	53116.7
523.31	963.3	53492.5	53492.5
523.41	963.2	53765.2	53765.2
523.51	963.1	53908.7	53908.7
523.61	963	54210.6	54210.6
523.71	962.9	54462.7	54462.7
523.81	962.8	54372.7	54372.7
523.91	962.7	54647.8	54647.8
524.01	962.6	55030.1	55030.1
524.11	962.5	55120.3	55120.3
524.21	962.4	55199.6	55199.6
524.31	962.3	55306.5	55306.5
524.41	962.2	55289.8	55289.8
524.51	962.1	55161.1	55161.1
524.61	962	55160.4	55160.4
524.71	961.9	55105.6	55105.6
524.81	961.8	54969.9	54969.9
524.91	961.7	54494.4	54494.4
525.01	961.6	54298.5	54298.5
525.11	961.5	54247.6	54247.6
525.21	961.4	54019.2	54019.2
525.31	961.3	53604.3	53604.3
525.41	961.2	53308.7	53308.7
525.51	961.1	52908.6	52908.6
525.61	961	52791.4	52791.4
525.71	960.9	52356.9	52356.9
525.81	960.8	52204.7	52204.7
525.91	960.7	52058.9	52058.9
526.01	960.6	51599.7	51599.7
526.11	960.5	51253.4	51253.4
526.21	960.4	51268.7	51268.7
526.31	960.3	51048.8	51048.8
526.41	960.2	50731.5	50731.5
526.51	960.1	50555.5	50555.5
526.61	960	50342.5	50342.5
526.71	959.9	50154.9	50154.9
526.81	959.8	50113.2	50113.2
526.91	959.7	49675.2	49675.2
527.01	959.6	49547	49547
527.11	959.5	49484.5	49484.5
527.21	959.4	49548.5	49548.5
527.31	959.3	49262.8	49262.8
527.41	959.2	49423.4	49423.4
527.51	959.1	49377.9	49377.9
527.61	959	49290.9	49290.9
527.71	958.9	49132.4	49132.4
527.81	958.8	49049.1	49049.1
527.91	958.7	48836.3	48836.3
528.01	958.6	48971.1	48971.1
528.11	958.5	49072.2	49072.2
528.21	958.4	49186.1	49186.1
528.31	958.3	49167	49167
528.41	958.2	49020.8	49020.8
528.51	958.1	49104.9	49104.9
528.61	958	49007.5	49007.5
528.71	957.9	49096.7	49096.7
528.81	957.8	49216.7	49216.7
528.91	957.7	49129.8	49129.8
529.01	957.6	49492.2	49492.2
529.11	957.5	49509	49509
529.21	957.4	49580	49580
529.31	957.3	49891.7	49891.7
529.41	957.2	49967	49967
529.51	957.1	49976.8	49976.8
529.61	957	49894.6	49894.6
529.71	956.9	49827.2	49827.2
529.81	956.8	50115.3	50115.3
529.91	956.7	50327.2	50327.2
530.01	956.6	50536.1	50536.1
530.11	956.5	50678.3	50678.3
530.21	956.4	50815.3	50815.3
530.31	956.3	50965.6	50965.6
530.41	956.2	51213.8	51213.8
530.51	956.1	51498.2	51498.2
530.61	956	51513.3	51513.3
530.71	955.9	51818	51818
530.81	955.8	52308.9	52308.9
530.91	955.7	52765.3	52765.3
531.01	955.6	52891	52891
531.11	955.5	53064.7	53064.7
531.21	955.4	53681.7	53681.7
531.31	955.3	53869.9	53869.9
531.41	955.2	54115.6	54115.6
531.51	955.1	54415.4	54415.4
531.61	955	54825	54825
531.71	954.9	55396.4	55396.4
531.81	954.8	55768.6	55768.6
531.91	954.7	56453.6	56453.6
532.01	954.6	56845.6	56845.6
532.11	954.5	57316.7	57316.7
532.21	954.4	57863.5	57863.5
532.31	954.3	58455.7	58455.7
532.41	954.2	59350	59350
532.51	954.1	59926.1	59926.1
532.61	954	60798	60798
532.71	953.9	61714.6	61714.6
532.81	953.8	62888.5	62888.5
532.91	953.7	64191.7	64191.7
533.01	953.6	66064.2	66064.2
533.11	953.5	68023.9	68023.9
533.21	953.4	70348.3	70348.3
533.31	953.3	72979.7	72979.7
533.41	953.2	76047.5	76047.5
533.51	953.1	79624	79624
533.61	953	83478.2	83478.2
533.71	952.9	87972.8	87972.8
533.81	952.8	92525.2	92525.2
533.91	952.7	97238	97238
534.01	952.6	101124	101124
534.11	952.5	104010	104010
534.21	952.4	105676	105676
534.31	952.3	105248	105248
534.41	952.2	102787	102787
534.51	952.1	99356.1	99356.1
534.61	952	94815.7	94815.7
534.71	951.9	89974.1	89974.1
534.81	951.8	84424.4	84424.4
534.91	951.7	78980.5	78980.5
535.01	951.6	73935.4	73935.4
535.11	951.5	69741.2	69741.2
535.21	951.4	65968.2	65968.2
535.31	951.3	62678	62678
535.41	951.2	59829.1	59829.1
535.51	951.1	57210.4	57210.4
535.61	951	55127.7	55127.7
535.71	950.9	53580.9	53580.9
535.81	950.8	52204.7	52204.7
535.91	950.7	51294.7	51294.7
536.01	950.6	50116.7	50116.7
536.11	950.5	49071.3	49071.3
536.21	950.4	48689.1	48689.1
536.31	950.3	47948.6	47948.6
536.41	950.2	47422.9	47422.9
536.51	950.1	46914	46914
536.61	950	46756.8	46756.8
536.71	949.9	46334.6	46334.6
536.81	949.8	45620.8	45620.8
536.91	949.7	45634.6	45634.6
537.01	949.6	45536	45536
537.11	949.5	45241.2	45241.2
537.21	949.4	45036	45036
537.31	949.3	44881.1	44881.1
537.41	949.2	44856.2	44856.2
537.51	949.1	44603.9	44603.9
537.61	949	44332.7	44332.7
537.71	948.9	44298.1	44298.1
537.81	948.8	44089	44089
537.91	948.7	44232.8	44232.8
538.01	948.6	44112.4	44112.4
538.11	948.5	44029.4	44029.4
538.21	948.4	43954.4	43954.4
538.31	948.3	43812.9	43812.9
538.41	948.2	43841.8	43841.8
538.51	948.1	43722.6	43722.6
538.61	948	43757.2	43757.2
538.71	947.9	43625.7	43625.7
538.81	947.8	43724.1	43724.1
538.91	947.7	43899.8	43899.8
539.01	947.6	43952.4	43952.4
539.11	947.5	44188.6	44188.6
539.21	947.4	44230.3	44230.3
539.31	947.3	44434.5	44434.5
539.41	947.2	44563.8	44563.8
539.51	947.1	44708.1	44708.1
539.61	947	45044.7	45044.7
539.71	946.9	45429.4	45429.4
539.81	946.8	45541.4	45541.4
539.91	946.7	45543.1	45543.1
540.01	946.6	45696.8	45696.8
540.11	946.5	46036.8	46036.8
540.21	946.4	46110.3	46110.3
540.31	946.3	45881.5	45881.5
540.41	946.2	45714.7	45714.7
540.51	946.1	45296.3	45296.3
540.61	946	45137.2	45137.2
540.71	945.9	45167.4	45167.4
540.81	945.8	44954.1	44954.1
540.91	945.7	44622.2	44622.2
541.01	945.6	44605.5	44605.5
541.11	945.5	44439.1	44439.1
541.21	945.4	44550.2	44550.2
541.31	945.3	44593	44593
541.41	945.2	44634.2	44634.2
541.51	945.1	44822	44822
541.61	945	45023.1	45023.1
541.71	944.9	45043	45043
541.81	944.8	45555.6	45555.6
541.91	944.7	45986.3	45986.3
542.01	944.6	46306.3	46306.3
542.11	944.5	46733.6	46733.6
542.21	944.4	47218.3	47218.3
542.31	944.3	47769.1	47769.1
542.41	944.2	47711.3	47711.3
542.51	944.1	48273.8	48273.8
542.61	944	48701.1	48701.1
542.71	943.9	48871	48871
542.81	943.8	48960.9	48960.9
542.91	943.7	49038.7	49038.7
543.01	943.6	49224.6	49224.6
543.11	943.5	48986.5	48986.5
543.21	943.4	48510.5	48510.5
543.31	943.3	48168.5	48168.5
543.41	943.2	48025.4	48025.4
543.51	943.1	47466.8	47466.8
543.61	943	47140.9	47140.9
543.71	942.9	46774.7	46774.7
543.81	942.8	46569.1	46569.1
543.91	942.7	46454.7	46454.7
544.01	942.6	46233.9	46233.9
544.11	942.5	46002.1	46002.1
544.21	942.4	45928.3	45928.3
544.31	942.3	45671.4	45671.4
544.41	942.2	45540.3	45540.3
544.51	942.1	45557	45557
544.61	942	45308	45308
544.71	941.9	45187.4	45187.4
544.81	941.8	45285.5	45285.5
544.91	941.7	45179.3	45179.3
545.01	941.6	45054.9	45054.9
545.11	941.5	45003.1	45003.1
545.21	941.4	45080.8	45080.8
545.31	941.3	45128.9	45128.9
545.41	941.2	45092.5	45092.5
545.51	941.1	45263.3	45263.3
545.61	941	45295.8	45295.8
545.71	940.9	45343.2	45343.2
545.81	940.8	45327.8	45327.8
545.91	940.7	45154.5	45154.5
546.01	940.6	45105.3	45105.3
546.11	940.5	44849	44849
546.21	940.4	44744.8	44744.8
546.31	940.3	44520.5	44520.5
546.41	940.2	43959.2	43959.2
546.51	940.1	43642.9	43642.9
546.61	940	42997.6	42997.6
546.71	939.9	42661.7	42661.7
546.81	939.8	42320.5	42320.5
546.91	939.7	41685.2	41685.2
547.01	939.6	41144.2	41144.2
547.11	939.5	40821.7	40821.7
547.21	939.4	40288.7	40288.7
547.31	939.3	40092.9	40092.9
547.41	939.2	39785.5	39785.5
547.51	939.1	39486.6	39486.6
547.61	939	39468	39468
547.71	938.9	39224.3	39224.3
547.81	938.8	38987.7	38987.7
547.91	938.7	39022.5	39022.5
548.01	938.6	38877.4	38877.4
548.11	938.5	38902.4	38902.4
548.21	938.4	38812.6	38812.6
548.31	938.3	39035.3	39035.3
548.41	938.2	39041.9	39041.9
548.51	938.1	38942.6	38942.6
548.61	938	38999.4	38999.4
548.71	937.9	39283.1	39283.1
548.81	937.8	39397.4	39397.4
548.91	937.7	39424.5	39424.5
549.01	937.6	39477.3	39477.3
549.11	937.5	39651	39651
549.21	937.4	40079.3	40079.3
549.31	937.3	40200.4	40200.4
549.41	937.2	40377.6	40377.6
549.51	937.1	40499.5	40499.5
549.61	937	40555.7	40555.7
549.71	936.9	40860	40860
549.81	936.8	40945.9	40945.9
549.91	936.7	40983.2	40983.2
550.01	936.6	41320.5	41320.5
550.11	936.5	41795.8	41795.8
550.21	936.4	41870.9	41870.9
550.31	936.3	42321.7	42321.7
550.41	936.2	42597.8	42597.8
550.51	936.1	43178.5	43178.5
550.61	936	43658.4	43658.4
550.71	935.9	44223.4	44223.4
550.81	935.8	44873.1	44873.1
550.91	935.7	45461.5	45461.5
551.01	935.6	46160.3	46160.3
551.11	935.5	47081.4	47081.4
551.21	935.4	47643.6	47643.6
551.31	935.3	48290.1	48290.1
551.41	935.2	49082.3	49082.3
551.51	935.1	49864.9	49864.9
551.61	935	50427.2	50427.2
551.71	934.9	50917.5	50917.5
551.81	934.8	52032.6	52032.6
551.91	934.7	52474.8	52474.8
552.01	934.6	53229.1	53229.1
552.11	934.5	53811.6	53811.6
552.21	934.4	54896.6	54896.6
552.31	934.3	56018.9	56018.9
552.41	934.2	57066.6	57066.6
552.51	934.1	58402.2	58402.2
552.61	934	60252.3	60252.3
552.71	933.9	62567.7	62567.7
552.81	933.8	65104.6	65104.6
552.91	933.7	68107.5	68107.5
553.01	933.6	72518.4	72518.4
553.11	933.5	78090	78090
553.21	933.4	85434.3	85434.3
553.31	933.3	94949.4	94949.4
553.41	933.2	107466	107466
553.51	933.1	123015	123015
553.61	933	140577	140577
553.71	932.9	159170	159170
553.81	932.8	176632	176632
553.91	932.7	190575	190575
554.01	932.6	198409	198409
554.11	932.5	198325	198325
554.21	932.4	190891	190891
554.31	932.3	176949	176949
554.41	932.2	159197	159197
554.51	932.1	140150	140150
554.61	932	120733	120733
554.71	931.9	103457	103457
554.81	931.8	88591.4	88591.4
554.91	931.7	76288.6	76288.6
555.01	931.6	66524.8	66524.8
555.11	931.5	58844.9	58844.9
555.21	931.4	52881.7	52881.7
555.31	931.3	47996.4	47996.4
555.41	931.2	44348.5	44348.5
555.51	931.1	41187.7	41187.7
555.61	931	38859.1	38859.1
555.71	930.9	37186.1	37186.1
555.81	930.8	35623.4	35623.4
555.91	930.7	34540.2	34540.2
556.01	930.6	33526	33526
556.11	930.5	32347.6	32347.6
556.21	930.4	31876.5	31876.5
556.31	930.3	31195.3	31195.3
556.41	930.2	30596.1	30596.1
556.51	930.1	30268	30268
556.61	930	29689.9	29689.9
556.71	929.9	29268.5	29268.5
556.81	929.8	29192.3	29192.3
556.91	929.7	28964.9	28964.9
557.01	929.6	28486.3	28486.3
557.11	929.5	28233.7	28233.7
557.21	929.4	27948.8	27948.8
557.31	929.3	27868.2	27868.2
557.41	929.2	27775.1	27775.1
557.51	929.1	27746.8	27746.8
557.61	929	27442.9	27442.9
557.71	928.9	27186.5	27186.5
557.81	928.8	27069	27069
557.91	928.7	27103.9	27103.9
558.01	928.6	27004.1	27004.1
558.11	928.5	26913.4	26913.4
558.21	928.4	26695.1	26695.1
558.31	928.3	26664	26664
558.41	928.2	26747.7	26747.7
558.51	928.1	26755.9	26755.9
558.61	928	26505.7	26505.7
558.71	927.9	26568.9	26568.9
558.81	927.8	26508	26508
558.91	927.7	26447.2	26447.2
559.01	927.6	26304.4	26304.4
559.11	927.5	26300.4	26300.4
559.21	927.4	26098.9	26098.9
559.31	927.3	26023.6	26023.6
559.41	927.2	25990.3	25990.3
559.51	927.1	25960.2	25960.2
559.61	927	25880.5	25880.5
559.71	926.9	25903.4	25903.4
559.81	926.8	25901.9	25901.9
559.91	926.7	25989.3	25989.3
560.01	926.6	26013.9	26013.9
560.11	926.5	25967.7	25967.7
560.21	926.4	25840.6	25840.6
560.31	926.3	25802.2	25802.2
560.41	926.2	25806	25806
560.51	926.1	25887	25887
560.61	926	25875.5	25875.5
560.71	925.9	25684.2	25684.2
560.81	925.8	25696.9	25696.9
560.91	925.7	25750.9	25750.9
561.01	925.6	25597.9	25597.9
561.11	925.5	25580	25580
561.21	925.4	25673.6	25673.6
561.31	925.3	25568.5	25568.5
561.41	925.2	25524.7	25524.7
561.51	925.1	25518.7	25518.7
561.61	925	25479.5	25479.5
561.71	924.9	25654.4	25654.4
561.81	924.8	25637.9	25637.9
561.91	924.7	25520.6	25520.6
562.01	924.6	25565.4	25565.4
562.11	924.5	25498.9	25498.9
562.21	924.4	25467.2	25467.2
562.31	924.3	25435.7	25435.7
562.41	924.2	25485.3	25485.3
562.51	924.1	25524	25524
562.61	924	25619.3	25619.3
562.71	923.9	25401.2	25401.2
562.81	923.8	25310.1	25310.1
562.91	923.7	25412	25412
563.01	923.6	25505.1	25505.1
563.11	923.5	25567.7	25567.7
563.21	923.4	25637.6	25637.6
563.31	923.3	25384.3	25384.3
563.41	923.2	25334.1	25334.1
563.51	923.1	25374.9	25374.9
563.61	923	25408.8	25408.8
563.71	922.9	25547.7	25547.7
563.81	922.8	25485.1	25485.1
563.91	922.7	25380.4	25380.4
564.01	922.6	25287.4	25287.4
564.11	922.5	25423.4	25423.4
564.21	922.4	25489.3	25489.3
564.31	922.3	25483.8	25483.8
564.41	922.2	25384.3	25384.3
564.51	922.1	25320.4	25320.4
564.61	922	25410.8	25410.8
564.71	921.9	25484.2	25484.2
564.81	921.8	25529	25529
564.91	921.7	25438.7	25438.7
565.01	921.6	25395.3	25395.3
565.11	921.5	25348.3	25348.3
565.21	921.4	25262.7	25262.7
565.31	921.3	25483.5	25483.5
565.41	921.2	25255.4	25255.4
565.51	921.1	25446.6	25446.6
565.61	921	25595.7	25595.7
565.71	920.9	25522.7	25522.7
565.81	920.8	25456.5	25456.5
565.91	920.7	25393.1	25393.1
566.01	920.6	25442.7	25442.7
566.11	920.5	25530.8	25530.8
566.21	920.4	25421.4	25421.4
566.31	920.3	25437.6	25437.6
566.41	920.2	25241.6	25241.6
566.51	920.1	25408	25408
566.61	920	25558.5	25558.5