C:\Users\Mark\ownCloud\Muelheim Group\Projects\Gas phase background\EX321_CEC356_Au Ag and Cu in O2.vms
Pr:Cu2p
	Characteristic Energy eV	1486.61	Acquisition Time s	1
KE_Pr:Cu2p	BE_Pr:Cu2p	CPS_Pr:Cu2p
456.61	1030	2432.34
456.71	1029.9	2417.95
456.81	1029.8	2406.3
456.91	1029.7	2444.06
457.01	1029.6	2463.51
457.11	1029.5	2465.5
457.21	1029.4	2463.9
457.31	1029.3	2486.27
457.41	1029.2	2439.82
457.51	1029.1	2475.73
457.61	1029	2490.8
457.71	1028.9	2457.99
457.81	1028.8	2460.8
457.91	1028.7	2414.8
458.01	1028.6	2414.38
458.11	1028.5	2432.14
458.21	1028.4	2443.92
458.31	1028.3	2474.86
458.41	1028.2	2515.89
458.51	1028.1	2486.09
458.61	1028	2461.03
458.71	1027.9	2474.92
458.81	1027.8	2504.84
458.91	1027.7	2472.6
459.01	1027.6	2457.72
459.11	1027.5	2487.9
459.21	1027.4	2514.6
459.31	1027.3	2481.45
459.41	1027.2	2488.51
459.51	1027.1	2503.19
459.61	1027	2486.3
459.71	1026.9	2497.71
459.81	1026.8	2489.64
459.91	1026.7	2477.74
460.01	1026.6	2470.43
460.11	1026.5	2460.96
460.21	1026.4	2442.9
460.31	1026.3	2445.66
460.41	1026.2	2460.65
460.51	1026.1	2445.15
460.61	1026	2461.69
460.71	1025.9	2479.97
460.81	1025.8	2490.48
460.91	1025.7	2487.9
461.01	1025.6	2465.5
461.11	1025.5	2490.41
461.21	1025.4	2475.83
461.31	1025.3	2491.48
461.41	1025.2	2512.95
461.51	1025.1	2509.48
461.61	1025	2511.22
461.71	1024.9	2547.7
461.81	1024.8	2552.36
461.91	1024.7	2530.6
462.01	1024.6	2502.46
462.11	1024.5	2502.48
462.21	1024.4	2511.13
462.31	1024.3	2526.73
462.41	1024.2	2520.5
462.51	1024.1	2515.13
462.61	1024	2509.12
462.71	1023.9	2503.22
462.81	1023.8	2532.23
462.91	1023.7	2515.81
463.01	1023.6	2522.08
463.11	1023.5	2528.45
463.21	1023.4	2542.2
463.31	1023.3	2514.38
463.41	1023.2	2527.1
463.51	1023.1	2516.85
463.61	1023	2506.96
463.71	1022.9	2467.16
463.81	1022.8	2509.84
463.91	1022.7	2503.16
464.01	1022.6	2499.54
464.11	1022.5	2507.83
464.21	1022.4	2506.22
464.31	1022.3	2511.93
464.41	1022.2	2524.31
464.51	1022.1	2512.47
464.61	1022	2508.26
464.71	1021.9	2502.77
464.81	1021.8	2499.27
464.91	1021.7	2509.37
465.01	1021.6	2541.17
465.11	1021.5	2531.49
465.21	1021.4	2508.62
465.31	1021.3	2511.39
465.41	1021.2	2526.54
465.51	1021.1	2515.15
465.61	1021	2540.72
465.71	1020.9	2516.4
465.81	1020.8	2551.99
465.91	1020.7	2499.79
466.01	1020.6	2537.53
466.11	1020.5	2536.28
466.21	1020.4	2522.97
466.31	1020.3	2547.93
466.41	1020.2	2538.63
466.51	1020.1	2520.88
466.61	1020	2539.59
466.71	1019.9	2545.34
466.81	1019.8	2536.45
466.91	1019.7	2555.79
467.01	1019.6	2557.05
467.11	1019.5	2580.07
467.21	1019.4	2567.59
467.31	1019.3	2582.82
467.41	1019.2	2591.93
467.51	1019.1	2579.76
467.61	1019	2566.05
467.71	1018.9	2562.09
467.81	1018.8	2551.82
467.91	1018.7	2572.58
468.01	1018.6	2599.85
468.11	1018.5	2566.67
468.21	1018.4	2544.42
468.31	1018.3	2585.42
468.41	1018.2	2571.54
468.51	1018.1	2571.12
468.61	1018	2568.1
468.71	1017.9	2566.17
468.81	1017.8	2554.39
468.91	1017.7	2538.03
469.01	1017.6	2592.51
469.11	1017.5	2574.77
469.21	1017.4	2592.93
469.31	1017.3	2546.86
469.41	1017.2	2580.54
469.51	1017.1	2551.39
469.61	1017	2588.02
469.71	1016.9	2576.66
469.81	1016.8	2581.87
469.91	1016.7	2581.29
470.01	1016.6	2556.49
470.11	1016.5	2565.93
470.21	1016.4	2575.76
470.31	1016.3	2584.04
470.41	1016.2	2584.23
470.51	1016.1	2629.97
470.61	1016	2591.77
470.71	1015.9	2559.12
470.81	1015.8	2618.2
470.91	1015.7	2603.59
471.01	1015.6	2593.82
471.11	1015.5	2592.79
471.21	1015.4	2615.71
471.31	1015.3	2569.19
471.41	1015.2	2602.5
471.51	1015.1	2579.24
471.61	1015	2586.78
471.71	1014.9	2619.65
471.81	1014.8	2629.57
471.91	1014.7	2607.69
472.01	1014.6	2572.58
472.11	1014.5	2598.06
472.21	1014.4	2586.54
472.31	1014.3	2593.7
472.41	1014.2	2594.33
472.51	1014.1	2616.43
472.61	1014	2607.4
472.71	1013.9	2572.75
472.81	1013.8	2585.42
472.91	1013.7	2570.66
473.01	1013.6	2601.64
473.11	1013.5	2601.99
473.21	1013.4	2607.83
473.31	1013.3	2626.96
473.41	1013.2	2635.11
473.51	1013.1	2643.07
473.61	1013	2629.54
473.71	1012.9	2610.44
473.81	1012.8	2642.09
473.91	1012.7	2598.59
474.01	1012.6	2624.86
474.11	1012.5	2626.38
474.21	1012.4	2643.52
474.31	1012.3	2620.64
474.41	1012.2	2653.23
474.51	1012.1	2656.67
474.61	1012	2655.35
474.71	1011.9	2637.65
474.81	1011.8	2604.79
474.91	1011.7	2622.92
475.01	1011.6	2626.36
475.11	1011.5	2640.91
475.21	1011.4	2647.96
475.31	1011.3	2641.92
475.41	1011.2	2656.51
475.51	1011.1	2626.14
475.61	1011	2617.99
475.71	1010.9	2661.48
475.81	1010.8	2625.79
475.91	1010.7	2651.1
476.01	1010.6	2610.06
476.11	1010.5	2636.31
476.21	1010.4	2636.42
476.31	1010.3	2653.59
476.41	1010.2	2602.52
476.51	1010.1	2611.45
476.61	1010	2623.97
476.71	1009.9	2608.47
476.81	1009.8	2628.23
476.91	1009.7	2652.82
477.01	1009.6	2621.55
477.11	1009.5	2639.15
477.21	1009.4	2669.14
477.31	1009.3	2655.98
477.41	1009.2	2659.5
477.51	1009.1	2643.16
477.61	1009	2626.2
477.71	1008.9	2650.3
477.81	1008.8	2651.11
477.91	1008.7	2650.18
478.01	1008.6	2651.11
478.11	1008.5	2640.79
478.21	1008.4	2613.79
478.31	1008.3	2644.44
478.41	1008.2	2615.76
478.51	1008.1	2649.88
478.61	1008	2658.54
478.71	1007.9	2660.97
478.81	1007.8	2629.49
478.91	1007.7	2637.43
479.01	1007.6	2621.91
479.11	1007.5	2640.89
479.21	1007.4	2639.73
479.31	1007.3	2644.61
479.41	1007.2	2674.43
479.51	1007.1	2686.09
479.61	1007	2665.19
479.71	1006.9	2679.03
479.81	1006.8	2689.25
479.91	1006.7	2668.42
480.01	1006.6	2639.9
480.11	1006.5	2688.16
480.21	1006.4	2680.57
480.31	1006.3	2658.89
480.41	1006.2	2665.99
480.51	1006.1	2681.2
480.61	1006	2683.57
480.71	1005.9	2698.99
480.81	1005.8	2696.21
480.91	1005.7	2655.14
481.01	1005.6	2685.43
481.11	1005.5	2687.18
481.21	1005.4	2663.94
481.31	1005.3	2660.13
481.41	1005.2	2679.24
481.51	1005.1	2665.23
481.61	1005	2683.64
481.71	1004.9	2685.51
481.81	1004.8	2682.64
481.91	1004.7	2712.45
482.01	1004.6	2703.71
482.11	1004.5	2647.89
482.21	1004.4	2679.47
482.31	1004.3	2682.72
482.41	1004.2	2664.75
482.51	1004.1	2697
482.61	1004	2649.76
482.71	1003.9	2669.96
482.81	1003.8	2683.64
482.91	1003.7	2677.82
483.01	1003.6	2679.09
483.11	1003.5	2679.81
483.21	1003.4	2685.53
483.31	1003.3	2700.3
483.41	1003.2	2653.51
483.51	1003.1	2662.4
483.61	1003	2683.74
483.71	1002.9	2693.23
483.81	1002.8	2701.33
483.91	1002.7	2669.2
484.01	1002.6	2642.94
484.11	1002.5	2641.33
484.21	1002.4	2701.48
484.31	1002.3	2672.31
484.41	1002.2	2653.21
484.51	1002.1	2648.14
484.61	1002	2679.01
484.71	1001.9	2660.12
484.81	1001.8	2681.83
484.91	1001.7	2669.75
485.01	1001.6	2713.45
485.11	1001.5	2693.08
485.21	1001.4	2686.26
485.31	1001.3	2687.05
485.41	1001.2	2712.14
485.51	1001.1	2693.58
485.61	1001	2698.58
485.71	1000.9	2723
485.81	1000.8	2699.68
485.91	1000.7	2664.22
486.01	1000.6	2683.89
486.11	1000.5	2681.7
486.21	1000.4	2711.25
486.31	1000.3	2717.25
486.41	1000.2	2707.02
486.51	1000.1	2704.29
486.61	1000	2700.65
486.71	999.9	2651.34
486.81	999.8	2674.92
486.91	999.7	2694.06
487.01	999.6	2703.11
487.11	999.5	2701.72
487.21	999.4	2699.9
487.31	999.3	2711.48
487.41	999.2	2719
487.51	999.1	2710.02
487.61	999	2722.03
487.71	998.9	2738.06
487.81	998.8	2723.15
487.91	998.7	2714.75
488.01	998.6	2692.89
488.11	998.5	2720.39
488.21	998.4	2717.93
488.31	998.3	2731.6
488.41	998.2	2754.99
488.51	998.1	2682.13
488.61	998	2723.14
488.71	997.9	2731.38
488.81	997.8	2692.09
488.91	997.7	2731.46
489.01	997.6	2732.32
489.11	997.5	2742.1
489.21	997.4	2694.35
489.31	997.3	2716.54
489.41	997.2	2731.76
489.51	997.1	2683.53
489.61	997	2693.48
489.71	996.9	2696.7
489.81	996.8	2725.34
489.91	996.7	2703.29
490.01	996.6	2684.62
490.11	996.5	2712.74
490.21	996.4	2695.82
490.31	996.3	2729.21
490.41	996.2	2721.17
490.51	996.1	2709.73
490.61	996	2728.33
490.71	995.9	2715.15
490.81	995.8	2724.49
490.91	995.7	2732.48
491.01	995.6	2721.64
491.11	995.5	2729.59
491.21	995.4	2696.53
491.31	995.3	2745.88
491.41	995.2	2753.52
491.51	995.1	2720.79
491.61	995	2744.28
491.71	994.9	2715.55
491.81	994.8	2733.02
491.91	994.7	2703.85
492.01	994.6	2712.52
492.11	994.5	2737.32
492.21	994.4	2768.51
492.31	994.3	2738.47
492.41	994.2	2751.08
492.51	994.1	2728.22
492.61	994	2708.58
492.71	993.9	2742.36
492.81	993.8	2732.64
492.91	993.7	2739.99
493.01	993.6	2749.2
493.11	993.5	2736.13
493.21	993.4	2725.29
493.31	993.3	2733.32
493.41	993.2	2744.82
493.51	993.1	2744.08
493.61	993	2755.51
493.71	992.9	2741.76
493.81	992.8	2743.37
493.91	992.7	2745.88
494.01	992.6	2758.85
494.11	992.5	2710.86
494.21	992.4	2742.66
494.31	992.3	2731.76
494.41	992.2	2741.04
494.51	992.1	2754.17
494.61	992	2741.84
494.71	991.9	2760.7
494.81	991.8	2759.14
494.91	991.7	2721.89
495.01	991.6	2737.91
495.11	991.5	2743.1
495.21	991.4	2749.99
495.31	991.3	2736.58
495.41	991.2	2759.65
495.51	991.1	2773.03
495.61	991	2756.81
495.71	990.9	2755.81
495.81	990.8	2763.92
495.91	990.7	2728.63
496.01	990.6	2779.25
496.11	990.5	2804.28
496.21	990.4	2810.87
496.31	990.3	2833.7
496.41	990.2	2807.77
496.51	990.1	2817.48
496.61	990	2821.54
496.71	989.9	2840.7
496.81	989.8	2796.79
496.91	989.7	2788.39
497.01	989.6	2816.71
497.11	989.5	2812.92
497.21	989.4	2773.55
497.31	989.3	2780.17
497.41	989.2	2782.88
497.51	989.1	2757.95
497.61	989	2775.4
497.71	988.9	2725.12
497.81	988.8	2748.8
497.91	988.7	2743.09
498.01	988.6	2740.38
498.11	988.5	2751.48
498.21	988.4	2752.66
498.31	988.3	2771.29
498.41	988.2	2734.55
498.51	988.1	2733.74
498.61	988	2758.56
498.71	987.9	2751.88
498.81	987.8	2717.2
498.91	987.7	2729.55
499.01	987.6	2773.46
499.11	987.5	2783.58
499.21	987.4	2783.49
499.31	987.3	2778.11
499.41	987.2	2777.42
499.51	987.1	2800.78
499.61	987	2810.77
499.71	986.9	2834.1
499.81	986.8	2750.69
499.91	986.7	2772.54
500.01	986.6	2767.75
500.11	986.5	2771.74
500.21	986.4	2775.65
500.31	986.3	2751.02
500.41	986.2	2768.99
500.51	986.1	2828.59
500.61	986	2820.09
500.71	985.9	2775.05
500.81	985.8	2761.73
500.91	985.7	2775.58
501.01	985.6	2760.03
501.11	985.5	2780.64
501.21	985.4	2804.43
501.31	985.3	2791.69
501.41	985.2	2769.22
501.51	985.1	2742.28
501.61	985	2761.48
501.71	984.9	2784.82
501.81	984.8	2782.44
501.91	984.7	2735.63
502.01	984.6	2688.5
502.11	984.5	2744.44
502.21	984.4	2720.62
502.31	984.3	2732.53
502.41	984.2	2744
502.51	984.1	2721.8
502.61	984	2712.28
502.71	983.9	2704.39
502.81	983.8	2726.12
502.91	983.7	2724.43
503.01	983.6	2726.68
503.11	983.5	2708.54
503.21	983.4	2717.69
503.31	983.3	2719.56
503.41	983.2	2774.21
503.51	983.1	2768.48
503.61	983	2768.75
503.71	982.9	2726.67
503.81	982.8	2749.84
503.91	982.7	2801.31
504.01	982.6	2793.32
504.11	982.5	2797.28
504.21	982.4	2819.69
504.31	982.3	2828.81
504.41	982.2	2845.94
504.51	982.1	2839.34
504.61	982	2859.81
504.71	981.9	2833.37
504.81	981.8	2831.64
504.91	981.7	2862.8
505.01	981.6	2884.83
505.11	981.5	2877.76
505.21	981.4	2925.14
505.31	981.3	2936.75
505.41	981.2	2885.35
505.51	981.1	2862.88
505.61	981	2872.27
505.71	980.9	2832.92
505.81	980.8	2800.19
505.91	980.7	2802.41
506.01	980.6	2755.87
506.11	980.5	2754.61
506.21	980.4	2785.26
506.31	980.3	2806.96
506.41	980.2	2825.31
506.51	980.1	2759.18
506.61	980	2758.22
506.71	979.9	2789.89
506.81	979.8	2744.58
506.91	979.7	2738.49
507.01	979.6	2757.54
507.11	979.5	2735.25
507.21	979.4	2738.02
507.31	979.3	2750.23
507.41	979.2	2767.3
507.51	979.1	2761.2
507.61	979	2754.9
507.71	978.9	2719.48
507.81	978.8	2696.36
507.91	978.7	2720.09
508.01	978.6	2744.08
508.11	978.5	2737.59
508.21	978.4	2737.82
508.31	978.3	2751.59
508.41	978.2	2745.61
508.51	978.1	2756.65
508.61	978	2696.71
508.71	977.9	2734.84
508.81	977.8	2730.73
508.91	977.7	2703.19
509.01	977.6	2739.9
509.11	977.5	2723.53
509.21	977.4	2736.58
509.31	977.3	2717.81
509.41	977.2	2710.74
509.51	977.1	2720.58
509.61	977	2760.97
509.71	976.9	2744.32
509.81	976.8	2741.09
509.91	976.7	2749.52
510.01	976.6	2744.13
510.11	976.5	2767.65
510.21	976.4	2744.93
510.31	976.3	2748.64
510.41	976.2	2774.2
510.51	976.1	2740.5
510.61	976	2797.33
510.71	975.9	2772.08
510.81	975.8	2745.44
510.91	975.7	2759.11
511.01	975.6	2734.7
511.11	975.5	2772.85
511.21	975.4	2763.55
511.31	975.3	2777.58
511.41	975.2	2747.81
511.51	975.1	2782.02
511.61	975	2795.9
511.71	974.9	2748.95
511.81	974.8	2725.69
511.91	974.7	2788.29
512.01	974.6	2756.56
512.11	974.5	2770.03
512.21	974.4	2762.06
512.31	974.3	2763.59
512.41	974.2	2788.94
512.51	974.1	2778.26
512.61	974	2743.82
512.71	973.9	2756.32
512.81	973.8	2750.86
512.91	973.7	2780.78
513.01	973.6	2760.12
513.11	973.5	2758.75
513.21	973.4	2733.72
513.31	973.3	2760.22
513.41	973.2	2739.41
513.51	973.1	2725.36
513.61	973	2725.1
513.71	972.9	2757.67
513.81	972.8	2746.31
513.91	972.7	2773.09
514.01	972.6	2708.92
514.11	972.5	2733.44
514.21	972.4	2759.2
514.31	972.3	2718.43
514.41	972.2	2734.44
514.51	972.1	2747.25
514.61	972	2754.23
514.71	971.9	2758.61
514.81	971.8	2727.54
514.91	971.7	2728.39
515.01	971.6	2709.63
515.11	971.5	2693.72
515.21	971.4	2715.85
515.31	971.3	2692.83
515.41	971.2	2710.78
515.51	971.1	2733.03
515.61	971	2722.24
515.71	970.9	2706.06
515.81	970.8	2727.02
515.91	970.7	2742.68
516.01	970.6	2751.69
516.11	970.5	2726.58
516.21	970.4	2722.88
516.31	970.3	2726.78
516.41	970.2	2717.46
516.51	970.1	2712.61
516.61	970	2701.19
516.71	969.9	2676.09
516.81	969.8	2672.39
516.91	969.7	2693.29
517.01	969.6	2737.6
517.11	969.5	2690.01
517.21	969.4	2685.97
517.31	969.3	2704.98
517.41	969.2	2720.25
517.51	969.1	2737.28
517.61	969	2704.8
517.71	968.9	2651.25
517.81	968.8	2681.14
517.91	968.7	2674.12
518.01	968.6	2668.45
518.11	968.5	2647.35
518.21	968.4	2679.92
518.31	968.3	2685.68
518.41	968.2	2695
518.51	968.1	2671.23
518.61	968	2689.67
518.71	967.9	2680.28
518.81	967.8	2665.43
518.91	967.7	2659.78
519.01	967.6	2651.55
519.11	967.5	2686.99
519.21	967.4	2688.5
519.31	967.3	2645.45
519.41	967.2	2660.02
519.51	967.1	2661.38
519.61	967	2638.38
519.71	966.9	2624.23
519.81	966.8	2640.6
519.91	966.7	2631.89
520.01	966.6	2665.03
520.11	966.5	2673.73
520.21	966.4	2670.58
520.31	966.3	2651.3
520.41	966.2	2630.28
520.51	966.1	2645.7
520.61	966	2603.81
520.71	965.9	2652.99
520.81	965.8	2663.15
520.91	965.7	2630.77
521.01	965.6	2649.32
521.11	965.5	2667.26
521.21	965.4	2641.99
521.31	965.3	2644.11
521.41	965.2	2667.33
521.51	965.1	2664.17
521.61	965	2641.17
521.71	964.9	2618.64
521.81	964.8	2615.95
521.91	964.7	2610.57
522.01	964.6	2600.55
522.11	964.5	2619.25
522.21	964.4	2597.2
522.31	964.3	2616.75
522.41	964.2	2622.22
522.51	964.1	2610.09
522.61	964	2658.7
522.71	963.9	2641.29
522.81	963.8	2632.8
522.91	963.7	2631.25
523.01	963.6	2619.45
523.11	963.5	2649.86
523.21	963.4	2656.1
523.31	963.3	2663.8
523.41	963.2	2660.33
523.51	963.1	2672.18
523.61	963	2691.69
523.71	962.9	2664.91
523.81	962.8	2703.46
523.91	962.7	2697.32
524.01	962.6	2689.74
524.11	962.5	2745.92
524.21	962.4	2722.42
524.31	962.3	2729.58
524.41	962.2	2748.98
524.51	962.1	2707.27
524.61	962	2744.8
524.71	961.9	2713.3
524.81	961.8	2722.09
524.91	961.7	2742.08
525.01	961.6	2733.37
525.11	961.5	2758.94
525.21	961.4	2713.49
525.31	961.3	2740.13
525.41	961.2	2714.69
525.51	961.1	2701.01
525.61	961	2689.78
525.71	960.9	2732.98
525.81	960.8	2681.05
525.91	960.7	2692.4
526.01	960.6	2667.5
526.11	960.5	2667.51
526.21	960.4	2681.22
526.31	960.3	2656.26
526.41	960.2	2618.5
526.51	960.1	2607.42
526.61	960	2608.72
526.71	959.9	2586.57
526.81	959.8	2600.94
526.91	959.7	2597.89
527.01	959.6	2583.19
527.11	959.5	2566.68
527.21	959.4	2542.08
527.31	959.3	2558.78
527.41	959.2	2560.63
527.51	959.1	2565.95
527.61	959	2552.11
527.71	958.9	2519.24
527.81	958.8	2544.55
527.91	958.7	2510.81
528.01	958.6	2522.8
528.11	958.5	2540.49
528.21	958.4	2526.89
528.31	958.3	2513.47
528.41	958.2	2544.8
528.51	958.1	2540.69
528.61	958	2540.96
528.71	957.9	2543.22
528.81	957.8	2514.56
528.91	957.7	2479.96
529.01	957.6	2513.56
529.11	957.5	2531.24
529.21	957.4	2517.97
529.31	957.3	2518.27
529.41	957.2	2501.27
529.51	957.1	2520.41
529.61	957	2516.62
529.71	956.9	2518.21
529.81	956.8	2549.51
529.91	956.7	2557
530.01	956.6	2513.49
530.11	956.5	2564.29
530.21	956.4	2551.82
530.31	956.3	2538.25
530.41	956.2	2555.82
530.51	956.1	2570.83
530.61	956	2558.75
530.71	955.9	2564.43
530.81	955.8	2569.74
530.91	955.7	2556.27
531.01	955.6	2597.34
531.11	955.5	2597.65
531.21	955.4	2614.51
531.31	955.3	2608.52
531.41	955.2	2614.67
531.51	955.1	2623.94
531.61	955	2617.98
531.71	954.9	2676.8
531.81	954.8	2650.41
531.91	954.7	2663.67
532.01	954.6	2667.78
532.11	954.5	2721.1
532.21	954.4	2730.55
532.31	954.3	2741
532.41	954.2	2755.92
532.51	954.1	2740.04
532.61	954	2769.05
532.71	953.9	2761.41
532.81	953.8	2802.37
532.91	953.7	2850.19
533.01	953.6	2872.08
533.11	953.5	2885.9
533.21	953.4	2948.24
533.31	953.3	2967.29
533.41	953.2	3040.34
533.51	953.1	3108.95
533.61	953	3190.19
533.71	952.9	3280.47
533.81	952.8	3387.41
533.91	952.7	3431.8
534.01	952.6	3518.31
534.11	952.5	3587.49
534.21	952.4	3631.1
534.31	952.3	3620.8
534.41	952.2	3601.46
534.51	952.1	3539.87
534.61	952	3421.17
534.71	951.9	3309.08
534.81	951.8	3224.62
534.91	951.7	3108.33
535.01	951.6	3022.49
535.11	951.5	2943.89
535.21	951.4	2831.29
535.31	951.3	2756.43
535.41	951.2	2683.05
535.51	951.1	2667.89
535.61	951	2651.2
535.71	950.9	2566.99
535.81	950.8	2557.16
535.91	950.7	2520.24
536.01	950.6	2523.79
536.11	950.5	2503.03
536.21	950.4	2455.42
536.31	950.3	2442.43
536.41	950.2	2457.99
536.51	950.1	2457.41
536.61	950	2472.95
536.71	949.9	2482.95
536.81	949.8	2447.24
536.91	949.7	2454.83
537.01	949.6	2435.78
537.11	949.5	2394.55
537.21	949.4	2433.09
537.31	949.3	2434.98
537.41	949.2	2445.22
537.51	949.1	2417.59
537.61	949	2401.52
537.71	948.9	2414.6
537.81	948.8	2406.2
537.91	948.7	2378
538.01	948.6	2375.88
538.11	948.5	2413.75
538.21	948.4	2400.61
538.31	948.3	2359.28
538.41	948.2	2366.5
538.51	948.1	2354.61
538.61	948	2365.72
538.71	947.9	2357.76
538.81	947.8	2335.28
538.91	947.7	2353.75
539.01	947.6	2364.47
539.11	947.5	2338.53
539.21	947.4	2295.01
539.31	947.3	2340.73
539.41	947.2	2303.65
539.51	947.1	2317.6
539.61	947	2306.36
539.71	946.9	2262.57
539.81	946.8	2282.95
539.91	946.7	2282.04
540.01	946.6	2273.4
540.11	946.5	2321.1
540.21	946.4	2301.95
540.31	946.3	2279.44
540.41	946.2	2293.74
540.51	946.1	2275.7
540.61	946	2295.88
540.71	945.9	2303.43
540.81	945.8	2282.52
540.91	945.7	2276.61
541.01	945.6	2261.88
541.11	945.5	2249.51
541.21	945.4	2271.35
541.31	945.3	2269.11
541.41	945.2	2274.17
541.51	945.1	2239.72
541.61	945	2256
541.71	944.9	2270.16
541.81	944.8	2255.06
541.91	944.7	2274.46
542.01	944.6	2274.1
542.11	944.5	2293.64
542.21	944.4	2268.4
542.31	944.3	2303.8
542.41	944.2	2308.46
542.51	944.1	2284.24
542.61	944	2341.9
542.71	943.9	2340.21
542.81	943.8	2337.94
542.91	943.7	2350.8
543.01	943.6	2367.26
543.11	943.5	2357.46
543.21	943.4	2373.48
543.31	943.3	2354.22
543.41	943.2	2334.35
543.51	943.1	2338.21
543.61	943	2302.29
543.71	942.9	2327.9
543.81	942.8	2324.25
543.91	942.7	2322.95
544.01	942.6	2313.78
544.11	942.5	2316.02
544.21	942.4	2295.24
544.31	942.3	2301.38
544.41	942.2	2333.54
544.51	942.1	2347.99
544.61	942	2356.21
544.71	941.9	2345.76
544.81	941.8	2339.05
544.91	941.7	2353.31
545.01	941.6	2361.9
545.11	941.5	2412.22
545.21	941.4	2418.97
545.31	941.3	2443.46
545.41	941.2	2454.34
545.51	941.1	2456.9
545.61	941	2424.31
545.71	940.9	2418.33
545.81	940.8	2436.74
545.91	940.7	2436.49
546.01	940.6	2426.35
546.11	940.5	2406.7
546.21	940.4	2414
546.31	940.3	2345.34
546.41	940.2	2324.1
546.51	940.1	2300.23
546.61	940	2281.03
546.71	939.9	2248.77
546.81	939.8	2231.31
546.91	939.7	2203.27
547.01	939.6	2192.51
547.11	939.5	2168.96
547.21	939.4	2132.91
547.31	939.3	2137.96
547.41	939.2	2106.87
547.51	939.1	2088.03
547.61	939	2078.45
547.71	938.9	2077.55
547.81	938.8	2086.11
547.91	938.7	2082.12
548.01	938.6	2061.73
548.11	938.5	2083.87
548.21	938.4	2074.96
548.31	938.3	2061.88
548.41	938.2	2074.44
548.51	938.1	2088.24
548.61	938	2063.59
548.71	937.9	2068.23
548.81	937.8	2076.14
548.91	937.7	2061.8
549.01	937.6	2070.54
549.11	937.5	2053.11
549.21	937.4	2086.07
549.31	937.3	2092.73
549.41	937.2	2130.71
549.51	937.1	2109.98
549.61	937	2139.87
549.71	936.9	2106
549.81	936.8	2112.26
549.91	936.7	2129.78
550.01	936.6	2134.71
550.11	936.5	2147.82
550.21	936.4	2133.45
550.31	936.3	2127.53
550.41	936.2	2184.88
550.51	936.1	2163.3
550.61	936	2165.08
550.71	935.9	2201.79
550.81	935.8	2217.03
550.91	935.7	2238.27
551.01	935.6	2263.5
551.11	935.5	2280.93
551.21	935.4	2292.13
551.31	935.3	2308.99
551.41	935.2	2335.52
551.51	935.1	2339.76
551.61	935	2369.65
551.71	934.9	2376.99
551.81	934.8	2351.26
551.91	934.7	2383.63
552.01	934.6	2444.95
552.11	934.5	2457.02
552.21	934.4	2479.3
552.31	934.3	2509.24
552.41	934.2	2585.04
552.51	934.1	2589.4
552.61	934	2602.15
552.71	933.9	2631.37
552.81	933.8	2708.91
552.91	933.7	2765.41
553.01	933.6	2866.12
553.11	933.5	2964.5
553.21	933.4	3096.27
553.31	933.3	3320.33
553.41	933.2	3531.91
553.51	933.1	3865.05
553.61	933	4233.16
553.71	932.9	4638.57
553.81	932.8	4927.3
553.91	932.7	5269.04
554.01	932.6	5441.07
554.11	932.5	5426.82
554.21	932.4	5270.41
554.31	932.3	5072.41
554.41	932.2	4676.33
554.51	932.1	4292.58
554.61	932	3911.27
554.71	931.9	3482.42
554.81	931.8	3203.1
554.91	931.7	2931.72
555.01	931.6	2700.49
555.11	931.5	2522.71
555.21	931.4	2413.95
555.31	931.3	2315.5
555.41	931.2	2182.5
555.51	931.1	2143.48
555.61	931	2086.72
555.71	930.9	2034.52
555.81	930.8	2001.35
555.91	930.7	1973.87
556.01	930.6	1961.95
556.11	930.5	1969.75
556.21	930.4	1925.42
556.31	930.3	1909.02
556.41	930.2	1908.99
556.51	930.1	1913.65
556.61	930	1887.52
556.71	929.9	1872.5
556.81	929.8	1853.72
556.91	929.7	1865.3
557.01	929.6	1864.57
557.11	929.5	1818.8
557.21	929.4	1820.14
557.31	929.3	1831.25
557.41	929.2	1850.91
557.51	929.1	1852.6
557.61	929	1842.99
557.71	928.9	1834.28
557.81	928.8	1823.79
557.91	928.7	1839.42
558.01	928.6	1856.36
558.11	928.5	1806.68
558.21	928.4	1854.23
558.31	928.3	1811.44
558.41	928.2	1805.92
558.51	928.1	1802.87
558.61	928	1787.68
558.71	927.9	1846.08
558.81	927.8	1855.36
558.91	927.7	1822.06
559.01	927.6	1823.41
559.11	927.5	1828.09
559.21	927.4	1825.93
559.31	927.3	1823.4
559.41	927.2	1810.38
559.51	927.1	1807.93
559.61	927	1804.73
559.71	926.9	1809.36
559.81	926.8	1797.57
559.91	926.7	1824.32
560.01	926.6	1822.23
560.11	926.5	1832.99
560.21	926.4	1805.78
560.31	926.3	1807.78
560.41	926.2	1793.35
560.51	926.1	1811.61
560.61	926	1816.94
560.71	925.9	1807.98
560.81	925.8	1798
560.91	925.7	1793.71
561.01	925.6	1796.11
561.11	925.5	1831.67
561.21	925.4	1808.15
561.31	925.3	1813.57
561.41	925.2	1846.87
561.51	925.1	1816.81
561.61	925	1840.83
561.71	924.9	1805.79
561.81	924.8	1826.16
561.91	924.7	1817.82
562.01	924.6	1807.3
562.11	924.5	1818.25
562.21	924.4	1794.41
562.31	924.3	1824.89
562.41	924.2	1846.96
562.51	924.1	1810.85
562.61	924	1825.92
562.71	923.9	1793.62
562.81	923.8	1828.13
562.91	923.7	1808.26
563.01	923.6	1802.02
563.11	923.5	1789.44
563.21	923.4	1842.19
563.31	923.3	1849.54
563.41	923.2	1832.92
563.51	923.1	1817.51
563.61	923	1809.05
563.71	922.9	1801.43
563.81	922.8	1802.8
563.91	922.7	1840.55
564.01	922.6	1824.9
564.11	922.5	1828.06
564.21	922.4	1828.38
564.31	922.3	1834.57
564.41	922.2	1805.45
564.51	922.1	1842.68
564.61	922	1818.95
564.71	921.9	1836.12
564.81	921.8	1836.25
564.91	921.7	1829.95
565.01	921.6	1854.5
565.11	921.5	1832.02
565.21	921.4	1815.59
565.31	921.3	1826.64
565.41	921.2	1834.73
565.51	921.1	1821.25
565.61	921	1835.14
565.71	920.9	1822.44
565.81	920.8	1851.41
565.91	920.7	1839.96
566.01	920.6	1840.09
566.11	920.5	1839.45
566.21	920.4	1854.07
566.31	920.3	1825.42
566.41	920.2	1844.46
566.51	920.1	1823.52
566.61	920	1816.05