CasaXP50
Cu2p
	Characteristic Energy eV	1486.61	Acquisition Time s	0.1
KE_Cu2p	BE_Cu2p	CPS_Cu2p
506.61	980	7994.63
506.66	979.95	7915.95
506.71	979.9	8086.32
506.76	979.85	8013.93
506.81	979.8	8067.94
506.86	979.75	7868.82
506.91	979.7	7877.68
506.96	979.65	7960.32
507.01	979.6	8134.22
507.06	979.55	7976.03
507.11	979.5	7964.68
507.16	979.45	7905.04
507.21	979.4	7788.39
507.26	979.35	7987.37
507.31	979.3	7880.45
507.36	979.25	7960.68
507.41	979.2	7741.69
507.46	979.15	8106.99
507.51	979.1	8022.77
507.56	979.05	8134.76
507.61	979	8217.75
507.66	978.95	7936.95
507.71	978.9	7929.85
507.76	978.85	7945.84
507.81	978.8	7918.65
507.86	978.75	7900.24
507.91	978.7	7896.91
507.96	978.65	7844.66
508.01	978.6	7814.11
508.06	978.55	7872.43
508.11	978.5	7953.07
508.16	978.45	7999.94
508.21	978.4	7901.88
508.26	978.35	7885.2
508.31	978.3	7867.24
508.36	978.25	7884.7
508.41	978.2	7854.32
508.46	978.15	7856.99
508.51	978.1	8013.51
508.56	978.05	7936.9
508.61	978	8004.79
508.66	977.95	7922.34
508.71	977.9	7998.29
508.76	977.85	7994.11
508.81	977.8	7837.49
508.86	977.75	8148.45
508.91	977.7	7938.21
508.96	977.65	8041.47
509.01	977.6	8164.95
509.06	977.55	7837.91
509.11	977.5	8035.25
509.16	977.45	8055.11
509.21	977.4	7827.09
509.26	977.35	7860.54
509.31	977.3	7890.33
509.36	977.25	8061.6
509.41	977.2	8021.58
509.46	977.15	7934.56
509.51	977.1	8117.98
509.56	977.05	8059.36
509.61	977	8026.58
509.66	976.95	8199.02
509.71	976.9	7903.01
509.76	976.85	8103.33
509.81	976.8	8254.34
509.86	976.75	8041.68
509.91	976.7	8053.14
509.96	976.65	7906.73
510.01	976.6	7963.11
510.06	976.55	7880.91
510.11	976.5	7956.27
510.16	976.45	8153.41
510.21	976.4	8086.5
510.26	976.35	8001.1
510.31	976.3	8090.72
510.36	976.25	8150.73
510.41	976.2	8097.31
510.46	976.15	8026.47
510.51	976.1	8133.15
510.56	976.05	8033.6
510.61	976	8001.26
510.66	975.95	8076.11
510.71	975.9	7986.58
510.76	975.85	8053.24
510.81	975.8	7943.23
510.86	975.75	8116.22
510.91	975.7	8002.93
510.96	975.65	8072.07
511.01	975.6	8068.13
511.06	975.55	8206.11
511.11	975.5	8159.47
511.16	975.45	8059.3
511.21	975.4	8250.18
511.26	975.35	8275.39
511.31	975.3	8275.95
511.36	975.25	8168.52
511.41	975.2	8021.95
511.46	975.15	7949.9
511.51	975.1	8078.26
511.56	975.05	8082.73
511.61	975	7929.2
511.66	974.95	8058
511.71	974.9	8207.5
511.76	974.85	8218.05
511.81	974.8	8190.47
511.86	974.75	8193.85
511.91	974.7	8252.76
511.96	974.65	8138.79
512.01	974.6	8313.44
512.06	974.55	8392.85
512.11	974.5	8205.08
512.16	974.45	8138.26
512.21	974.4	8353.82
512.26	974.35	8263.08
512.31	974.3	8207.23
512.36	974.25	8322.14
512.41	974.2	8402.86
512.46	974.15	8223.92
512.51	974.1	8074.23
512.56	974.05	8320.64
512.61	974	8222.48
512.66	973.95	8235.72
512.71	973.9	8105.51
512.76	973.85	8152.47
512.81	973.8	8215.59
512.86	973.75	8338.87
512.91	973.7	8204.45
512.96	973.65	8147
513.01	973.6	8201.72
513.06	973.55	8295.59
513.11	973.5	8281.05
513.16	973.45	8220.57
513.21	973.4	8300.61
513.26	973.35	8533.23
513.31	973.3	8287.8
513.36	973.25	8150.33
513.41	973.2	8366.46
513.46	973.15	8300.85
513.51	973.1	8335.86
513.56	973.05	8351.94
513.61	973	8097.24
513.66	972.95	8142.47
513.71	972.9	8291.92
513.76	972.85	8491.38
513.81	972.8	8412.04
513.86	972.75	8158.72
513.91	972.7	8210.75
513.96	972.65	8395.12
514.01	972.6	8297.64
514.06	972.55	8432.36
514.11	972.5	8487.2
514.16	972.45	8169.49
514.21	972.4	8394.57
514.26	972.35	8295.53
514.31	972.3	8397.03
514.36	972.25	8303.75
514.41	972.2	8287.54
514.46	972.15	8344.32
514.51	972.1	8364.1
514.56	972.05	8270.3
514.61	972	8473.46
514.66	971.95	8374.76
514.71	971.9	8350.57
514.76	971.85	8289.63
514.81	971.8	8408.02
514.86	971.75	8373.72
514.91	971.7	8401.78
514.96	971.65	8481.12
515.01	971.6	8324.26
515.06	971.55	8330.81
515.11	971.5	8292.08
515.16	971.45	8042.02
515.21	971.4	8420.43
515.26	971.35	8512.36
515.31	971.3	8420.3
515.36	971.25	8228.09
515.41	971.2	8283.87
515.46	971.15	8326.43
515.51	971.1	8454.19
515.56	971.05	8330.15
515.61	971	8279.62
515.66	970.95	8239.02
515.71	970.9	8110.59
515.76	970.85	8244.65
515.81	970.8	8187.52
515.86	970.75	8356.53
515.91	970.7	8295.27
515.96	970.65	8130.67
516.01	970.6	8227.62
516.06	970.55	8382.53
516.11	970.5	8423.81
516.16	970.45	8287.58
516.21	970.4	8300.17
516.26	970.35	8269.04
516.31	970.3	8420.67
516.36	970.25	8449.72
516.41	970.2	8468.52
516.46	970.15	8238.99
516.51	970.1	8342.76
516.56	970.05	8289.18
516.61	970	8254.29
516.66	969.95	8497.29
516.71	969.9	8302.28
516.76	969.85	8447.16
516.81	969.8	8435.68
516.86	969.75	8310.6
516.91	969.7	8345.46
516.96	969.65	8459.6
517.01	969.6	8437.69
517.06	969.55	8208.4
517.11	969.5	8348.02
517.16	969.45	8384.99
517.21	969.4	8253.62
517.26	969.35	8271.64
517.31	969.3	8354.01
517.36	969.25	8146.54
517.41	969.2	8239.35
517.46	969.15	8392.2
517.51	969.1	8341.88
517.56	969.05	8130.21
517.61	969	8149.26
517.66	968.95	8317.49
517.71	968.9	8391.77
517.76	968.85	8382.5
517.81	968.8	8580.91
517.86	968.75	8391.58
517.91	968.7	8245.44
517.96	968.65	8336.12
518.01	968.6	8381.71
518.06	968.55	8354.22
518.11	968.5	8296.74
518.16	968.45	8336.9
518.21	968.4	8275.78
518.26	968.35	8404.82
518.31	968.3	8425.82
518.36	968.25	8291.41
518.41	968.2	8223.48
518.46	968.15	8326.34
518.51	968.1	8531.56
518.56	968.05	8236.76
518.61	968	8301.44
518.66	967.95	8314.5
518.71	967.9	8337.56
518.76	967.85	8366.76
518.81	967.8	8406.58
518.86	967.75	8287.12
518.91	967.7	8245.5
518.96	967.65	8490.15
519.01	967.6	8425.71
519.06	967.55	8467.51
519.11	967.5	8580.51
519.16	967.45	8272.64
519.21	967.4	8156.92
519.26	967.35	8512.54
519.31	967.3	8425.02
519.36	967.25	8346.96
519.41	967.2	8304.04
519.46	967.15	8323.6
519.51	967.1	8363.6
519.56	967.05	8341.69
519.61	967	8299.29
519.66	966.95	8289.5
519.71	966.9	8493.62
519.76	966.85	8444.76
519.81	966.8	8466.23
519.86	966.75	8401.84
519.91	966.7	8417.24
519.96	966.65	8392.04
520.01	966.6	8654.03
520.06	966.55	8481.06
520.11	966.5	8534.25
520.16	966.45	8493.28
520.21	966.4	8562.51
520.26	966.35	8414.04
520.31	966.3	8614.41
520.36	966.25	8582.23
520.41	966.2	8519.37
520.46	966.15	8440.94
520.51	966.1	8498.46
520.56	966.05	8487.04
520.61	966	8545.72
520.66	965.95	8435.56
520.71	965.9	8544.56
520.76	965.85	8543.98
520.81	965.8	8648.99
520.86	965.75	8731.24
520.91	965.7	8537.2
520.96	965.65	8542.78
521.01	965.6	8455.84
521.06	965.55	8560.37
521.11	965.5	8642.11
521.16	965.45	8659.06
521.21	965.4	8608.7
521.26	965.35	8579.62
521.31	965.3	8598.95
521.36	965.25	8620.59
521.41	965.2	8613.12
521.46	965.15	8841.62
521.51	965.1	8629.68
521.56	965.05	8674.97
521.61	965	8709.78
521.66	964.95	8692.62
521.71	964.9	8542.1
521.76	964.85	8735.87
521.81	964.8	8479.01
521.86	964.75	8725.12
521.91	964.7	8735.97
521.96	964.65	8683.2
522.01	964.6	8715.74
522.06	964.55	8740.77
522.11	964.5	8430.2
522.16	964.45	8719.65
522.21	964.4	8720.15
522.26	964.35	8733.46
522.31	964.3	8591.05
522.36	964.25	8647.56
522.41	964.2	8718.89
522.46	964.15	8676.97
522.51	964.1	8679.56
522.56	964.05	8644.63
522.61	964	8646.88
522.66	963.95	8662.26
522.71	963.9	8589.72
522.76	963.85	8376.93
522.81	963.8	8460.82
522.86	963.75	8548.29
522.91	963.7	8591.62
522.96	963.65	8532.72
523.01	963.6	8572.98
523.06	963.55	8445.21
523.11	963.5	8453.89
523.16	963.45	8384.69
523.21	963.4	8313.19
523.26	963.35	8536.8
523.31	963.3	8455.04
523.36	963.25	8485.55
523.41	963.2	8485.1
523.46	963.15	8401.63
523.51	963.1	8488.09
523.56	963.05	8487.24
523.61	963	8380.52
523.66	962.95	8367.72
523.71	962.9	8379.99
523.76	962.85	8385.22
523.81	962.8	8340.97
523.86	962.75	8431.44
523.91	962.7	8395.56
523.96	962.65	8491.78
524.01	962.6	8304.74
524.06	962.55	8298.84
524.11	962.5	8401.55
524.16	962.45	8327.4
524.21	962.4	8284.97
524.26	962.35	8215.81
524.31	962.3	8340.5
524.36	962.25	8366.11
524.41	962.2	8267.58
524.46	962.15	8095.88
524.51	962.1	8096.32
524.56	962.05	8201.45
524.61	962	8310.46
524.66	961.95	8206.03
524.71	961.9	8337.27
524.76	961.85	8364.42
524.81	961.8	8347.18
524.86	961.75	8207.62
524.91	961.7	8219.05
524.96	961.65	8116.58
525.01	961.6	8161.86
525.06	961.55	8139.97
525.11	961.5	8171.3
525.16	961.45	8291.04
525.21	961.4	8046.34
525.26	961.35	8163.33
525.31	961.3	8186
525.36	961.25	8303.95
525.41	961.2	8227.01
525.46	961.15	8191.34
525.51	961.1	8239.24
525.56	961.05	8384.58
525.61	961	8287.17
525.66	960.95	8132.2
525.71	960.9	8296.62
525.76	960.85	8226.15
525.81	960.8	8275.96
525.86	960.75	8141.24
525.91	960.7	8255.91
525.96	960.65	8334.56
526.01	960.6	8359.17
526.06	960.55	8432.37
526.11	960.5	8279.83
526.16	960.45	8233.19
526.21	960.4	8250.61
526.26	960.35	8104.74
526.31	960.3	8072.73
526.36	960.25	8199.31
526.41	960.2	8263.83
526.46	960.15	8245.88
526.51	960.1	8280.08
526.56	960.05	8337.03
526.61	960	8201.93
526.66	959.95	8253.79
526.71	959.9	8283.23
526.76	959.85	8279.73
526.81	959.8	8250.55
526.86	959.75	8275.12
526.91	959.7	8354.06
526.96	959.65	8299.74
527.01	959.6	8284.68
527.06	959.55	8365.12
527.11	959.5	8314.34
527.16	959.45	8313.75
527.21	959.4	8395.54
527.26	959.35	8523.1
527.31	959.3	8259.84
527.36	959.25	8224.99
527.41	959.2	8386.23
527.46	959.15	8412.27
527.51	959.1	8294.9
527.56	959.05	7975.72
527.61	959	8333.71
527.66	958.95	8319.25
527.71	958.9	8396.1
527.76	958.85	8243.77
527.81	958.8	8377.99
527.86	958.75	8272.81
527.91	958.7	8414.74
527.96	958.65	8462.35
528.01	958.6	8365.33
528.06	958.55	8214.75
528.11	958.5	8422.48
528.16	958.45	8478.61
528.21	958.4	8252.2
528.26	958.35	8265.3
528.31	958.3	8271.18
528.36	958.25	8361.63
528.41	958.2	8378.89
528.46	958.15	8305.27
528.51	958.1	8296.28
528.56	958.05	8312.35
528.61	958	8333.74
528.66	957.95	8334.9
528.71	957.9	8447.72
528.76	957.85	8266.15
528.81	957.8	8414.27
528.86	957.75	8386.31
528.91	957.7	8439.06
528.96	957.65	8568.59
529.01	957.6	8515.8
529.06	957.55	8560.89
529.11	957.5	8323.09
529.16	957.45	8560.44
529.21	957.4	8458.3
529.26	957.35	8656.06
529.31	957.3	8515.69
529.36	957.25	8599.54
529.41	957.2	8545.26
529.46	957.15	8517.41
529.51	957.1	8560.9
529.56	957.05	8569.22
529.61	957	8649.21
529.66	956.95	8705.16
529.71	956.9	8436.82
529.76	956.85	8474.72
529.81	956.8	8528.86
529.86	956.75	8623.31
529.91	956.7	8477.17
529.96	956.65	8590.21
530.01	956.6	8607.82
530.06	956.55	8715.39
530.11	956.5	8776.78
530.16	956.45	8609.03
530.21	956.4	8683.66
530.26	956.35	8569.36
530.31	956.3	8780.58
530.36	956.25	8784.44
530.41	956.2	8669.94
530.46	956.15	8808.98
530.51	956.1	8887.95
530.56	956.05	8813.93
530.61	956	8659.46
530.66	955.95	8663.05
530.71	955.9	8822.68
530.76	955.85	8843.63
530.81	955.8	8829.51
530.86	955.75	8949.73
530.91	955.7	8926.12
530.96	955.65	8912.45
531.01	955.6	8886.67
531.06	955.55	8896.9
531.11	955.5	8872.84
531.16	955.45	9034.27
531.21	955.4	9154.54
531.26	955.35	9146.95
531.31	955.3	9180.19
531.36	955.25	9173.93
531.41	955.2	9258.23
531.46	955.15	9300.19
531.51	955.1	9249.37
531.56	955.05	9306.99
531.61	955	9260.23
531.66	954.95	9291.82
531.71	954.9	9603.58
531.76	954.85	9618.24
531.81	954.8	9523.81
531.86	954.75	9565.73
531.91	954.7	9575.81
531.96	954.65	9666.71
532.01	954.6	9768.07
532.06	954.55	9651.92
532.11	954.5	9777.31
532.16	954.45	10005.9
532.21	954.4	10096.1
532.26	954.35	10196.6
532.31	954.3	10270.3
532.36	954.25	10335.8
532.41	954.2	10626.9
532.46	954.15	10639.3
532.51	954.1	10744.7
532.56	954.05	11009.8
532.61	954	11030.2
532.66	953.95	11356
532.71	953.9	11408.9
532.76	953.85	11427.4
532.81	953.8	11767.5
532.86	953.75	12169
532.91	953.7	12375.8
532.96	953.65	12587.1
533.01	953.6	12879.2
533.06	953.55	13146.2
533.11	953.5	13527.5
533.16	953.45	13965.5
533.21	953.4	14302.7
533.26	953.35	14724.9
533.31	953.3	15173.9
533.36	953.25	15539.6
533.41	953.2	16128.4
533.46	953.15	16723.3
533.51	953.1	17162.1
533.56	953.05	18145.2
533.61	953	18340
533.66	952.95	18984.1
533.71	952.9	19687.2
533.76	952.85	20373.6
533.81	952.8	21051.6
533.86	952.75	21777
533.91	952.7	22296.9
533.96	952.65	23008.3
534.01	952.6	23369.1
534.06	952.55	23733.4
534.11	952.5	23763.4
534.16	952.45	24004.7
534.21	952.4	24150.8
534.26	952.35	24070.9
534.31	952.3	23556.7
534.36	952.25	23058.6
534.41	952.2	22787.8
534.46	952.15	22364.9
534.51	952.1	21859.1
534.56	952.05	21169.8
534.61	952	20441.4
534.66	951.95	19778
534.71	951.9	19072.5
534.76	951.85	18324.6
534.81	951.8	17514.2
534.86	951.75	16766.1
534.91	951.7	16068.2
534.96	951.65	15646.2
535.01	951.6	14945.8
535.06	951.55	14371.7
535.11	951.5	14007.1
535.16	951.45	13354.1
535.21	951.4	13035.8
535.26	951.35	12576.4
535.31	951.3	12125.4
535.36	951.25	11934.9
535.41	951.2	11452.5
535.46	951.15	11486.7
535.51	951.1	11130.7
535.56	951.05	10824.5
535.61	951	10722.5
535.66	950.95	10680.5
535.71	950.9	10345.4
535.76	950.85	10103.8
535.81	950.8	10024.8
535.86	950.75	10113
535.91	950.7	9769.37
535.96	950.65	9644.97
536.01	950.6	9594.28
536.06	950.55	9450.69
536.11	950.5	9442.41
536.16	950.45	9229.32
536.21	950.4	9124.3
536.26	950.35	9050.62
536.31	950.3	8959.74
536.36	950.25	8913.65
536.41	950.2	8998.31
536.46	950.15	8856.75
536.51	950.1	8819.76
536.56	950.05	8622.31
536.61	950	8668.25
536.66	949.95	8452.21
536.71	949.9	8301.97
536.76	949.85	8315.73
536.81	949.8	8420.84
536.86	949.75	8436.63
536.91	949.7	8648.7
536.96	949.65	8460.13
537.01	949.6	8381
537.06	949.55	8122.73
537.11	949.5	8145.58
537.16	949.45	8092.58
537.21	949.4	7988.97
537.26	949.35	7920.24
537.31	949.3	8036.1
537.36	949.25	8052.26
537.41	949.2	7989.82
537.46	949.15	7714.65
537.51	949.1	7960.35
537.56	949.05	7936.09
537.61	949	7980.6
537.66	948.95	7981.28
537.71	948.9	7995.28
537.76	948.85	7933.56
537.81	948.8	7849.26
537.86	948.75	7963.6
537.91	948.7	7932.69
537.96	948.65	7857.68
538.01	948.6	7871.52
538.06	948.55	7954.51
538.11	948.5	7851.24
538.16	948.45	7731.09
538.21	948.4	7758.48
538.26	948.35	7813.67
538.31	948.3	7938.62
538.36	948.25	7870.55
538.41	948.2	7657.21
538.46	948.15	7720.53
538.51	948.1	7720.73
538.56	948.05	7731.53
538.61	948	7559.92
538.66	947.95	7536.87
538.71	947.9	7709.23
538.76	947.85	7773.08
538.81	947.8	7723.3
538.86	947.75	7653.43
538.91	947.7	7666.7
538.96	947.65	7631.36
539.01	947.6	7676.68
539.06	947.55	7636.79
539.11	947.5	7746.25
539.16	947.45	7619.31
539.21	947.4	7670.46
539.26	947.35	7636.57
539.31	947.3	7673.23
539.36	947.25	7757.44
539.41	947.2	7589.14
539.46	947.15	7541.56
539.51	947.1	7654.83
539.56	947.05	7585.56
539.61	947	7645.29
539.66	946.95	7883.99
539.71	946.9	7625.06
539.76	946.85	7632.24
539.81	946.8	7599.82
539.86	946.75	7742.45
539.91	946.7	7760.41
539.96	946.65	7882.31
540.01	946.6	7632.72
540.06	946.55	7694.16
540.11	946.5	7644.02
540.16	946.45	7680.14
540.21	946.4	7815.94
540.26	946.35	7883.24
540.31	946.3	7684.69
540.36	946.25	7657.01
540.41	946.2	7706.23
540.46	946.15	7643.01
540.51	946.1	7783.05
540.56	946.05	7594.15
540.61	946	7613.73
540.66	945.95	7657.45
540.71	945.9	7758.71
540.76	945.85	7664.32
540.81	945.8	7646.21
540.86	945.75	7615.91
540.91	945.7	7624.33
540.96	945.65	7710.97
541.01	945.6	7725.35
541.06	945.55	7724.35
541.11	945.5	7619.38
541.16	945.45	7571.02
541.21	945.4	7524.56
541.26	945.35	7465.46
541.31	945.3	7584.96
541.36	945.25	7364.4
541.41	945.2	7413.15
541.46	945.15	7367.52
541.51	945.1	7336.45
541.56	945.05	7382.36
541.61	945	7446.78
541.66	944.95	7308.95
541.71	944.9	7432.78
541.76	944.85	7518.29
541.81	944.8	7421.74
541.86	944.75	7368.39
541.91	944.7	7352.37
541.96	944.65	7254.33
542.01	944.6	7254.67
542.06	944.55	7288.92
542.11	944.5	7285.45
542.16	944.45	7300.34
542.21	944.4	7437.19
542.26	944.35	7265.95
542.31	944.3	7470.56
542.36	944.25	7293.05
542.41	944.2	7329.79
542.46	944.15	7214.88
542.51	944.1	7255.63
542.56	944.05	7486.84
542.61	944	7493.97
542.66	943.95	7341.95
542.71	943.9	7286.16
542.76	943.85	7353.06
542.81	943.8	7259.89
542.86	943.75	7306.93
542.91	943.7	7286.44
542.96	943.65	7307.92
543.01	943.6	7372.07
543.06	943.55	7145.14
543.11	943.5	7114.43
543.16	943.45	7190.65
543.21	943.4	7154.06
543.26	943.35	7045.28
543.31	943.3	7173.05
543.36	943.25	7295.7
543.41	943.2	7222.99
543.46	943.15	7168.77
543.51	943.1	7109.64
543.56	943.05	7090.31
543.61	943	7074.14
543.66	942.95	7270.89
543.71	942.9	7199.92
543.76	942.85	7076.56
543.81	942.8	6988.51
543.86	942.75	6711.71
543.91	942.7	6913.89
543.96	942.65	6957.26
544.01	942.6	6824.49
544.06	942.55	7002.22
544.11	942.5	7068.27
544.16	942.45	6858.68
544.21	942.4	6923.49
544.26	942.35	6947.31
544.31	942.3	6833.46
544.36	942.25	6850.44
544.41	942.2	6804.81
544.46	942.15	6795.19
544.51	942.1	6860.96
544.56	942.05	6763.88
544.61	942	6781.09
544.66	941.95	6810.32
544.71	941.9	6751.77
544.76	941.85	6593.49
544.81	941.8	6609.39
544.86	941.75	6629.62
544.91	941.7	6587.26
544.96	941.65	6580.74
545.01	941.6	6479.74
545.06	941.55	6498.92
545.11	941.5	6539.17
545.16	941.45	6417.36
545.21	941.4	6494.48
545.26	941.35	6535.28
545.31	941.3	6377.68
545.36	941.25	6499.72
545.41	941.2	6480.11
545.46	941.15	6438.26
545.51	941.1	6511.43
545.56	941.05	6623.17
545.61	941	6590.33
545.66	940.95	6555.17
545.71	940.9	6443.04
545.76	940.85	6483.8
545.81	940.8	6412.62
545.86	940.75	6448.61
545.91	940.7	6449.15
545.96	940.65	6421.99
546.01	940.6	6409.5
546.06	940.55	6434.92
546.11	940.5	6477.37
546.16	940.45	6535.84
546.21	940.4	6477.63
546.26	940.35	6499.96
546.31	940.3	6428.3
546.36	940.25	6537.81
546.41	940.2	6444.82
546.46	940.15	6512.55
546.51	940.1	6600.19
546.56	940.05	6483.71
546.61	940	6360.43
546.66	939.95	6528.01
546.71	939.9	6509.45
546.76	939.85	6558.01
546.81	939.8	6529.49
546.86	939.75	6539.18
546.91	939.7	6484.37
546.96	939.65	6458.12
547.01	939.6	6394.16
547.06	939.55	6381.26
547.11	939.5	6513.75
547.16	939.45	6413.65
547.21	939.4	6462.59
547.26	939.35	6519.9
547.31	939.3	6424.39
547.36	939.25	6451.43
547.41	939.2	6417.81
547.46	939.15	6367.87
547.51	939.1	6256.35
547.56	939.05	6330.71
547.61	939	6308.88
547.66	938.95	6248.97
547.71	938.9	6323.75
547.76	938.85	6431.79
547.81	938.8	6407.29
547.86	938.75	6418.74
547.91	938.7	6417.93
547.96	938.65	6492.03
548.01	938.6	6393.15
548.06	938.55	6409.01
548.11	938.5	6303.25
548.16	938.45	6355.13
548.21	938.4	6207.35
548.26	938.35	6343.86
548.31	938.3	6308.65
548.36	938.25	6440.58
548.41	938.2	6475.7
548.46	938.15	6357.02
548.51	938.1	6382.92
548.56	938.05	6434.6
548.61	938	6583.4
548.66	937.95	6518.24
548.71	937.9	6543.01
548.76	937.85	6543.82
548.81	937.8	6518.92
548.86	937.75	6414.84
548.91	937.7	6620.48
548.96	937.65	6567.52
549.01	937.6	6510.84
549.06	937.55	6501.1
549.11	937.5	6444.77
549.16	937.45	6571.17
549.21	937.4	6708.1
549.26	937.35	6594
549.31	937.3	6611.68
549.36	937.25	6708.29
549.41	937.2	6630
549.46	937.15	6617.7
549.51	937.1	6741.84
549.56	937.05	6770.74
549.61	937	6701.92
549.66	936.95	6678.16
549.71	936.9	6797.18
549.76	936.85	6826.29
549.81	936.8	6754.65
549.86	936.75	6784.94
549.91	936.7	6780.6
549.96	936.65	6837.43
550.01	936.6	6714.84
550.06	936.55	6734.48
550.11	936.5	6851.96
550.16	936.45	6892.37
550.21	936.4	6632.32
550.26	936.35	6664.98
550.31	936.3	6859.82
550.36	936.25	6968.05
550.41	936.2	6805.73
550.46	936.15	6852.68
550.51	936.1	6855.48
550.56	936.05	6781.57
550.61	936	6827.2
550.66	935.95	6755.97
550.71	935.9	6961.8
550.76	935.85	7000.31
550.81	935.8	6770.86
550.86	935.75	6824.32
550.91	935.7	6935.8
550.96	935.65	7005.15
551.01	935.6	6817.85
551.06	935.55	6948
551.11	935.5	6891.75
551.16	935.45	6760.18
551.21	935.4	6974.01
551.26	935.35	7003.3
551.31	935.3	7006.66
551.36	935.25	7082.42
551.41	935.2	6942.26
551.46	935.15	7016.98
551.51	935.1	7036.7
551.56	935.05	7141.95
551.61	935	7276.63
551.66	934.95	7178.03
551.71	934.9	7200.53
551.76	934.85	7304.41
551.81	934.8	7396.91
551.86	934.75	7341.04
551.91	934.7	7525.8
551.96	934.65	7568.72
552.01	934.6	7577.74
552.06	934.55	7670.57
552.11	934.5	7711.62
552.16	934.45	8003.84
552.21	934.4	8117.9
552.26	934.35	8240.36
552.31	934.3	8438.29
552.36	934.25	8533.16
552.41	934.2	8792.2
552.46	934.15	8933.37
552.51	934.1	9282.25
552.56	934.05	9516.81
552.61	934	9800.09
552.66	933.95	10144.5
552.71	933.9	10463.7
552.76	933.85	10929.8
552.81	933.8	11448.5
552.86	933.75	11944
552.91	933.7	12447.7
552.96	933.65	13022.5
553.01	933.6	13686.9
553.06	933.55	14708.5
553.11	933.5	15775.7
553.16	933.45	16823.8
553.21	933.4	18087.2
553.26	933.35	19957.1
553.31	933.3	21597.1
553.36	933.25	23808
553.41	933.2	26159.9
553.46	933.15	29056.2
553.51	933.1	31814.2
553.56	933.05	35094.7
553.61	933	38443.9
553.66	932.95	41852.3
553.71	932.9	45652.6
553.76	932.85	48904.2
553.81	932.8	51448.5
553.86	932.75	53615.7
553.91	932.7	54845.8
553.96	932.65	55554.9
554.01	932.6	56595.1
554.06	932.55	55851.5
554.11	932.5	54240.1
554.16	932.45	52238.1
554.21	932.4	49820
554.26	932.35	46908.3
554.31	932.3	43640.9
554.36	932.25	40109
554.41	932.2	36651.4
554.46	932.15	33127.3
554.51	932.1	29932.7
554.56	932.05	26708.1
554.61	932	24262.1
554.66	931.95	22061.1
554.71	931.9	20032.3
554.76	931.85	18075.9
554.81	931.8	16401
554.86	931.75	15142.5
554.91	931.7	13576
554.96	931.65	12768.8
555.01	931.6	11824.2
555.06	931.55	11004.4
555.11	931.5	10630.8
555.16	931.45	9971.12
555.21	931.4	9349.07
555.26	931.35	8665.98
555.31	931.3	8483.48
555.36	931.25	7943.73
555.41	931.2	7700.79
555.46	931.15	7479.28
555.51	931.1	7308.44
555.56	931.05	7032.91
555.61	931	6771.73
555.66	930.95	6704.36
555.71	930.9	6513.52
555.76	930.85	6253.18
555.81	930.8	6234.42
555.86	930.75	6043.12
555.91	930.7	5971.66
555.96	930.65	5930.82
556.01	930.6	5761.28
556.06	930.55	5603.98
556.11	930.5	5623.5
556.16	930.45	5557.17
556.21	930.4	5374.94
556.26	930.35	5373.96
556.31	930.3	5227.1
556.36	930.25	5173.79
556.41	930.2	5231.49
556.46	930.15	5193.73
556.51	930.1	5077.44
556.56	930.05	4998.46
556.61	930	4892.08
556.66	929.95	4779.33
556.71	929.9	4783.88
556.76	929.85	4841.25
556.81	929.8	4839.85
556.86	929.75	4687.68
556.91	929.7	4611.96
556.96	929.65	4644.9
557.01	929.6	4718.59
557.06	929.55	4628.92
557.11	929.5	4566.49
557.16	929.45	4466.64
557.21	929.4	4427.61
557.26	929.35	4393.92
557.31	929.3	4463.37
557.36	929.25	4495.99
557.41	929.2	4585.5
557.46	929.15	4500.8
557.51	929.1	4308.58
557.56	929.05	4350.99
557.61	929	4545.95
557.66	928.95	4521.12
557.71	928.9	4395.62
557.76	928.85	4357.53
557.81	928.8	4320.96
557.86	928.75	4228.9
557.91	928.7	4301.15
557.96	928.65	4245.97
558.01	928.6	4289.17
558.06	928.55	4272.8
558.11	928.5	4212.29
558.16	928.45	4326.93
558.21	928.4	4335.74
558.26	928.35	4063.01
558.31	928.3	4228.58
558.36	928.25	4120.95
558.41	928.2	4183.22
558.46	928.15	4144.75
558.51	928.1	4042.7
558.56	928.05	4154.79
558.61	928	4247.14
558.66	927.95	4106.91
558.71	927.9	4155.82
558.76	927.85	4093.88
558.81	927.8	4138.54
558.86	927.75	4105.91
558.91	927.7	4186.43
558.96	927.65	4122.15
559.01	927.6	4147.6
559.06	927.55	4123.5
559.11	927.5	4179.36
559.16	927.45	4070.34
559.21	927.4	4222.33
559.26	927.35	4063.34
559.31	927.3	4025.36
559.36	927.25	4027.34
559.41	927.2	4095.97
559.46	927.15	4083.7
559.51	927.1	3996.42
559.56	927.05	4023.84
559.61	927	4078.85
559.66	926.95	4061.03
559.71	926.9	4049.53
559.76	926.85	3990.01
559.81	926.8	3986.12
559.86	926.75	4038.73
559.91	926.7	4056.34
559.96	926.65	3997.51
560.01	926.6	3922.61
560.06	926.55	4018.36
560.11	926.5	3976.74
560.16	926.45	3944.97
560.21	926.4	3992.74
560.26	926.35	4054.38
560.31	926.3	4111.54
560.36	926.25	4001.14
560.41	926.2	4055.05
560.46	926.15	4127.52
560.51	926.1	4127.01
560.56	926.05	4077.97
560.61	926	4029.89
560.66	925.95	3915.63
560.71	925.9	3942.51
560.76	925.85	3916.45
560.81	925.8	4119.29
560.86	925.75	4064.39
560.91	925.7	3972.44
560.96	925.65	3965.25
561.01	925.6	3946.94
561.06	925.55	3872.86
561.11	925.5	3977.91
561.16	925.45	3980.16
561.21	925.4	3963.52
561.26	925.35	4018.03
561.31	925.3	3982.21
561.36	925.25	3959.58
561.41	925.2	3997.33
561.46	925.15	3987.53
561.51	925.1	3978.86
561.56	925.05	3906.98
561.61	925	3904.57
561.66	924.95	3799.19
561.71	924.9	3940.33
561.76	924.85	3931.12
561.81	924.8	3904.17
561.86	924.75	3899.69
561.91	924.7	3805.84
561.96	924.65	3868.75
562.01	924.6	4026.98
562.06	924.55	3927.91
562.11	924.5	3902.53
562.16	924.45	3903.1
562.21	924.4	3934.54
562.26	924.35	3935.74
562.31	924.3	3856.12
562.36	924.25	3894.75
562.41	924.2	3974.52
562.46	924.15	3946.06
562.51	924.1	4031.6
562.56	924.05	3971.15
562.61	924	3874.91
562.66	923.95	3892.86
562.71	923.9	3886.66
562.76	923.85	3760
562.81	923.8	3840.77
562.86	923.75	3943.83
562.91	923.7	3901.78
562.96	923.65	3907.64
563.01	923.6	3846.29
563.06	923.55	3937.66
563.11	923.5	3979.49
563.16	923.45	3979.44
563.21	923.4	3952.03
563.26	923.35	4058.43
563.31	923.3	3987.94
563.36	923.25	3930.21
563.41	923.2	3890.04
563.46	923.15	3964.93
563.51	923.1	3871.58
563.56	923.05	3860.53
563.61	923	3862.23
563.66	922.95	3852.5
563.71	922.9	3911.25
563.76	922.85	3922.13
563.81	922.8	3875.29
563.86	922.75	3912.64
563.91	922.7	3887.26
563.96	922.65	3871.91
564.01	922.6	3940.98
564.06	922.55	3943.12
564.11	922.5	3937.59
564.16	922.45	3925.88
564.21	922.4	3962.38
564.26	922.35	3763.89
564.31	922.3	3747.12
564.36	922.25	3821.25
564.41	922.2	3905.5
564.46	922.15	3788.34
564.51	922.1	3843.59
564.56	922.05	3883.97
564.61	922	3947.35
564.66	921.95	3849.29
564.71	921.9	3855.38
564.76	921.85	3938.32
564.81	921.8	3938.15
564.86	921.75	3910.7
564.91	921.7	3859.32
564.96	921.65	3880.63
565.01	921.6	3845.38
565.06	921.55	3958.81
565.11	921.5	3835.69
565.16	921.45	3827.55
565.21	921.4	3833.52
565.26	921.35	3912.01
565.31	921.3	3838.41
565.36	921.25	3909.75
565.41	921.2	3866.91
565.46	921.15	3833.52
565.51	921.1	3922.8
565.56	921.05	3849.46
565.61	921	3977.32
565.66	920.95	3856.89
565.71	920.9	3846.81
565.76	920.85	3950.67
565.81	920.8	4088.5
565.86	920.75	4025.34
565.91	920.7	3854.51
565.96	920.65	3825.2
566.01	920.6	3943.4
566.06	920.55	3901.58
566.11	920.5	3930.03
566.16	920.45	3827.48
566.21	920.4	3963.22
566.26	920.35	3896.74
566.31	920.3	3903.42
566.36	920.25	3818.93
566.41	920.2	3968.23
566.46	920.15	3926.57
566.51	920.1	3846.42
566.56	920.05	3911.82
566.61	920	3887.64