C:\Users\Mark\ownCloud\Muelheim Group\Projects\Gas phase background\EX321_CEC356_Au Ag and Cu in O2.vms
Pr:Cu2p
	Characteristic Energy eV	1486.61	Acquisition Time s	1
KE_Pr:Cu2p	BE_Pr:Cu2p	CPS_Pr:Cu2p
456.61	1030	11008.3
456.71	1029.9	11001.2
456.81	1029.8	10976.1
456.91	1029.7	11024
457.01	1029.6	11016.4
457.11	1029.5	10996.6
457.21	1029.4	10964.6
457.31	1029.3	10985.5
457.41	1029.2	10974.8
457.51	1029.1	10956.1
457.61	1029	11014.4
457.71	1028.9	10973.8
457.81	1028.8	11037
457.91	1028.7	11036.1
458.01	1028.6	10975.5
458.11	1028.5	10934
458.21	1028.4	11032.3
458.31	1028.3	11052.6
458.41	1028.2	11018.2
458.51	1028.1	11025.6
458.61	1028	11015.8
458.71	1027.9	11034.1
458.81	1027.8	11009.6
458.91	1027.7	11042.2
459.01	1027.6	11043.4
459.11	1027.5	11058.2
459.21	1027.4	11069
459.31	1027.3	11079.4
459.41	1027.2	11058.9
459.51	1027.1	11031.5
459.61	1027	11073.8
459.71	1026.9	11095
459.81	1026.8	11066.2
459.91	1026.7	11053.2
460.01	1026.6	11108.3
460.11	1026.5	11103.9
460.21	1026.4	11098.2
460.31	1026.3	11076.8
460.41	1026.2	11073.1
460.51	1026.1	11117.3
460.61	1026	11102.8
460.71	1025.9	11066.5
460.81	1025.8	11107.5
460.91	1025.7	11060.9
461.01	1025.6	11089.9
461.11	1025.5	11108.5
461.21	1025.4	11118.1
461.31	1025.3	11096
461.41	1025.2	11157.2
461.51	1025.1	11110.9
461.61	1025	11152.2
461.71	1024.9	11065.1
461.81	1024.8	11135.8
461.91	1024.7	11128.1
462.01	1024.6	11136.9
462.11	1024.5	11202.7
462.21	1024.4	11119.6
462.31	1024.3	11145.1
462.41	1024.2	11155.3
462.51	1024.1	11133.3
462.61	1024	11127.3
462.71	1023.9	11128.3
462.81	1023.8	11103.7
462.91	1023.7	11121.5
463.01	1023.6	11179.5
463.11	1023.5	11213.8
463.21	1023.4	11207.4
463.31	1023.3	11194.9
463.41	1023.2	11189.7
463.51	1023.1	11212.9
463.61	1023	11151.9
463.71	1022.9	11137
463.81	1022.8	11173
463.91	1022.7	11179
464.01	1022.6	11211
464.11	1022.5	11230.3
464.21	1022.4	11172.3
464.31	1022.3	11166.3
464.41	1022.2	11175.2
464.51	1022.1	11203.1
464.61	1022	11237
464.71	1021.9	11228.5
464.81	1021.8	11228.8
464.91	1021.7	11202.8
465.01	1021.6	11160.9
465.11	1021.5	11189.4
465.21	1021.4	11250.5
465.31	1021.3	11268
465.41	1021.2	11262.8
465.51	1021.1	11274.5
465.61	1021	11269.8
465.71	1020.9	11265.4
465.81	1020.8	11258.6
465.91	1020.7	11245.6
466.01	1020.6	11269
466.11	1020.5	11298.9
466.21	1020.4	11256.9
466.31	1020.3	11284.1
466.41	1020.2	11311.5
466.51	1020.1	11266.2
466.61	1020	11283
466.71	1019.9	11279.1
466.81	1019.8	11272
466.91	1019.7	11287.3
467.01	1019.6	11310.5
467.11	1019.5	11308.5
467.21	1019.4	11323.5
467.31	1019.3	11323.2
467.41	1019.2	11313.1
467.51	1019.1	11299.1
467.61	1019	11363.5
467.71	1018.9	11330.8
467.81	1018.8	11350.3
467.91	1018.7	11316.4
468.01	1018.6	11314.2
468.11	1018.5	11320.4
468.21	1018.4	11350.4
468.31	1018.3	11359.4
468.41	1018.2	11366
468.51	1018.1	11410.1
468.61	1018	11359
468.71	1017.9	11339.6
468.81	1017.8	11325.2
468.91	1017.7	11353.4
469.01	1017.6	11353.9
469.11	1017.5	11329.5
469.21	1017.4	11372.8
469.31	1017.3	11335.8
469.41	1017.2	11362.5
469.51	1017.1	11372.4
469.61	1017	11341.7
469.71	1016.9	11356.2
469.81	1016.8	11303.9
469.91	1016.7	11346.3
470.01	1016.6	11376.8
470.11	1016.5	11411
470.21	1016.4	11431.8
470.31	1016.3	11364.5
470.41	1016.2	11380.5
470.51	1016.1	11387.6
470.61	1016	11402
470.71	1015.9	11413.9
470.81	1015.8	11377.3
470.91	1015.7	11445.9
471.01	1015.6	11414.3
471.11	1015.5	11419.2
471.21	1015.4	11468.4
471.31	1015.3	11439.8
471.41	1015.2	11521.1
471.51	1015.1	11479.7
471.61	1015	11428.1
471.71	1014.9	11461.5
471.81	1014.8	11476.4
471.91	1014.7	11474.6
472.01	1014.6	11515
472.11	1014.5	11483
472.21	1014.4	11458.4
472.31	1014.3	11507.6
472.41	1014.2	11529.4
472.51	1014.1	11479.1
472.61	1014	11499.7
472.71	1013.9	11540
472.81	1013.8	11479.8
472.91	1013.7	11541.9
473.01	1013.6	11550.5
473.11	1013.5	11540.4
473.21	1013.4	11537.4
473.31	1013.3	11525.8
473.41	1013.2	11537.3
473.51	1013.1	11535.4
473.61	1013	11522.6
473.71	1012.9	11486.5
473.81	1012.8	11542.4
473.91	1012.7	11572.3
474.01	1012.6	11574.7
474.11	1012.5	11558.4
474.21	1012.4	11508.5
474.31	1012.3	11553.1
474.41	1012.2	11604.1
474.51	1012.1	11628.6
474.61	1012	11583.9
474.71	1011.9	11562.9
474.81	1011.8	11543.6
474.91	1011.7	11588.1
475.01	1011.6	11615.4
475.11	1011.5	11600.4
475.21	1011.4	11641.2
475.31	1011.3	11683.8
475.41	1011.2	11613.2
475.51	1011.1	11629.7
475.61	1011	11621.4
475.71	1010.9	11611.4
475.81	1010.8	11689.6
475.91	1010.7	11663.2
476.01	1010.6	11640.7
476.11	1010.5	11663
476.21	1010.4	11664.7
476.31	1010.3	11664.9
476.41	1010.2	11622.1
476.51	1010.1	11657.8
476.61	1010	11679.1
476.71	1009.9	11678.6
476.81	1009.8	11633.9
476.91	1009.7	11642.7
477.01	1009.6	11693.4
477.11	1009.5	11718.4
477.21	1009.4	11683.5
477.31	1009.3	11763.9
477.41	1009.2	11733.1
477.51	1009.1	11681
477.61	1009	11690.6
477.71	1008.9	11712.9
477.81	1008.8	11717.6
477.91	1008.7	11704.2
478.01	1008.6	11707.2
478.11	1008.5	11741.7
478.21	1008.4	11761.6
478.31	1008.3	11756.1
478.41	1008.2	11733.3
478.51	1008.1	11812.5
478.61	1008	11776
478.71	1007.9	11730.8
478.81	1007.8	11762.8
478.91	1007.7	11773.4
479.01	1007.6	11707.5
479.11	1007.5	11723.9
479.21	1007.4	11763.5
479.31	1007.3	11762.5
479.41	1007.2	11758.8
479.51	1007.1	11758.2
479.61	1007	11751.8
479.71	1006.9	11677.6
479.81	1006.8	11711.3
479.91	1006.7	11733
480.01	1006.6	11752.2
480.11	1006.5	11772
480.21	1006.4	11749.4
480.31	1006.3	11758.4
480.41	1006.2	11766.9
480.51	1006.1	11805.5
480.61	1006	11764
480.71	1005.9	11736.6
480.81	1005.8	11730.9
480.91	1005.7	11711.8
481.01	1005.6	11724.8
481.11	1005.5	11722.8
481.21	1005.4	11735.9
481.31	1005.3	11731.7
481.41	1005.2	11794.2
481.51	1005.1	11800.3
481.61	1005	11763.1
481.71	1004.9	11786.7
481.81	1004.8	11782.5
481.91	1004.7	11833.5
482.01	1004.6	11736
482.11	1004.5	11762.4
482.21	1004.4	11785.1
482.31	1004.3	11763.6
482.41	1004.2	11766.1
482.51	1004.1	11770.4
482.61	1004	11841.7
482.71	1003.9	11833.2
482.81	1003.8	11829.7
482.91	1003.7	11844.9
483.01	1003.6	11820.1
483.11	1003.5	11785.4
483.21	1003.4	11826.6
483.31	1003.3	11784.5
483.41	1003.2	11830.1
483.51	1003.1	11850.2
483.61	1003	11870.7
483.71	1002.9	11850.4
483.81	1002.8	11882
483.91	1002.7	11858
484.01	1002.6	11870.9
484.11	1002.5	11872.2
484.21	1002.4	11891.1
484.31	1002.3	11878.1
484.41	1002.2	11913.6
484.51	1002.1	11924.7
484.61	1002	11916
484.71	1001.9	11965.6
484.81	1001.8	11905.5
484.91	1001.7	11957.9
485.01	1001.6	11898.6
485.11	1001.5	11972
485.21	1001.4	11909.9
485.31	1001.3	11934.9
485.41	1001.2	11951.5
485.51	1001.1	11921.4
485.61	1001	11954
485.71	1000.9	11994.9
485.81	1000.8	11998.1
485.91	1000.7	11977.7
486.01	1000.6	11943.7
486.11	1000.5	11941.5
486.21	1000.4	11984.5
486.31	1000.3	11991.2
486.41	1000.2	11959.7
486.51	1000.1	11987.4
486.61	1000	11957
486.71	999.9	12015.1
486.81	999.8	12005.3
486.91	999.7	12036.1
487.01	999.6	12053.2
487.11	999.5	12007.2
487.21	999.4	12010.4
487.31	999.3	12071.4
487.41	999.2	12058.5
487.51	999.1	12063.7
487.61	999	12065.4
487.71	998.9	12090
487.81	998.8	12098.5
487.91	998.7	12120.3
488.01	998.6	12054.2
488.11	998.5	12107.5
488.21	998.4	12096.2
488.31	998.3	12110.4
488.41	998.2	12122.5
488.51	998.1	12105.5
488.61	998	12087.7
488.71	997.9	12095.4
488.81	997.8	12128
488.91	997.7	12165.7
489.01	997.6	12156.6
489.11	997.5	12095.2
489.21	997.4	12140.9
489.31	997.3	12175.8
489.41	997.2	12181.8
489.51	997.1	12197.6
489.61	997	12199.6
489.71	996.9	12158.3
489.81	996.8	12229.8
489.91	996.7	12219.2
490.01	996.6	12200.8
490.11	996.5	12250.9
490.21	996.4	12246.8
490.31	996.3	12253.8
490.41	996.2	12243.2
490.51	996.1	12253.1
490.61	996	12284.4
490.71	995.9	12250.2
490.81	995.8	12233.3
490.91	995.7	12307.8
491.01	995.6	12300.8
491.11	995.5	12356.8
491.21	995.4	12357.2
491.31	995.3	12301.7
491.41	995.2	12296.1
491.51	995.1	12284.7
491.61	995	12325.4
491.71	994.9	12328.4
491.81	994.8	12345.9
491.91	994.7	12359.4
492.01	994.6	12395.8
492.11	994.5	12332.8
492.21	994.4	12368.7
492.31	994.3	12425
492.41	994.2	12415.6
492.51	994.1	12466.8
492.61	994	12426.3
492.71	993.9	12389.4
492.81	993.8	12417.2
492.91	993.7	12422
493.01	993.6	12396
493.11	993.5	12361.7
493.21	993.4	12386
493.31	993.3	12305.8
493.41	993.2	12327.9
493.51	993.1	12384.3
493.61	993	12350.3
493.71	992.9	12353.3
493.81	992.8	12304.3
493.91	992.7	12355.4
494.01	992.6	12363.8
494.11	992.5	12359.3
494.21	992.4	12338
494.31	992.3	12351
494.41	992.2	12378.9
494.51	992.1	12329.7
494.61	992	12337.9
494.71	991.9	12327.3
494.81	991.8	12303.5
494.91	991.7	12302.1
495.01	991.6	12339.5
495.11	991.5	12358.8
495.21	991.4	12272.6
495.31	991.3	12344.2
495.41	991.2	12298.4
495.51	991.1	12308.2
495.61	991	12277.4
495.71	990.9	12320
495.81	990.8	12264.5
495.91	990.7	12276.5
496.01	990.6	12299.9
496.11	990.5	12321.2
496.21	990.4	12309.7
496.31	990.3	12320.4
496.41	990.2	12282.5
496.51	990.1	12275.5
496.61	990	12273.8
496.71	989.9	12340.3
496.81	989.8	12332.8
496.91	989.7	12309.1
497.01	989.6	12312.2
497.11	989.5	12357.5
497.21	989.4	12340.2
497.31	989.3	12290.8
497.41	989.2	12321.3
497.51	989.1	12305.9
497.61	989	12327.3
497.71	988.9	12342.8
497.81	988.8	12372
497.91	988.7	12349.6
498.01	988.6	12364.7
498.11	988.5	12374.3
498.21	988.4	12352.6
498.31	988.3	12347.4
498.41	988.2	12408.1
498.51	988.1	12376.8
498.61	988	12336.5
498.71	987.9	12367.9
498.81	987.8	12457.8
498.91	987.7	12421.5
499.01	987.6	12399
499.11	987.5	12385.8
499.21	987.4	12459.6
499.31	987.3	12393.1
499.41	987.2	12417.3
499.51	987.1	12436.2
499.61	987	12372.4
499.71	986.9	12425.4
499.81	986.8	12359.5
499.91	986.7	12356.6
500.01	986.6	12357.8
500.11	986.5	12385.5
500.21	986.4	12431.1
500.31	986.3	12403.6
500.41	986.2	12422.2
500.51	986.1	12403.5
500.61	986	12404.8
500.71	985.9	12446.5
500.81	985.8	12401.7
500.91	985.7	12386.2
501.01	985.6	12431
501.11	985.5	12426.5
501.21	985.4	12423.7
501.31	985.3	12431.1
501.41	985.2	12432.7
501.51	985.1	12403
501.61	985	12415.4
501.71	984.9	12449.8
501.81	984.8	12422.3
501.91	984.7	12430.6
502.01	984.6	12402.1
502.11	984.5	12446.7
502.21	984.4	12425.5
502.31	984.3	12400.4
502.41	984.2	12419.2
502.51	984.1	12421.5
502.61	984	12410.4
502.71	983.9	12451.6
502.81	983.8	12446.4
502.91	983.7	12432.2
503.01	983.6	12464.1
503.11	983.5	12436.6
503.21	983.4	12494.7
503.31	983.3	12507.7
503.41	983.2	12513.5
503.51	983.1	12512.7
503.61	983	12512.7
503.71	982.9	12501
503.81	982.8	12511.1
503.91	982.7	12510.7
504.01	982.6	12493.3
504.11	982.5	12508.1
504.21	982.4	12466.1
504.31	982.3	12503.4
504.41	982.2	12545.8
504.51	982.1	12550.8
504.61	982	12525.6
504.71	981.9	12579.8
504.81	981.8	12611.2
504.91	981.7	12597.4
505.01	981.6	12585.3
505.11	981.5	12581.1
505.21	981.4	12579.8
505.31	981.3	12625
505.41	981.2	12607.5
505.51	981.1	12605.1
505.61	981	12606.9
505.71	980.9	12592.9
505.81	980.8	12634
505.91	980.7	12675.7
506.01	980.6	12676.7
506.11	980.5	12696.2
506.21	980.4	12655.5
506.31	980.3	12664.3
506.41	980.2	12706.3
506.51	980.1	12740.2
506.61	980	12727.4
506.71	979.9	12709.9
506.81	979.8	12719.8
506.91	979.7	12719
507.01	979.6	12759.5
507.11	979.5	12722.7
507.21	979.4	12792.3
507.31	979.3	12768.1
507.41	979.2	12751.8
507.51	979.1	12773.3
507.61	979	12833.7
507.71	978.9	12848.7
507.81	978.8	12809
507.91	978.7	12819.6
508.01	978.6	12794.8
508.11	978.5	12911
508.21	978.4	12862.8
508.31	978.3	12926.4
508.41	978.2	12925.7
508.51	978.1	12909.7
508.61	978	12920
508.71	977.9	12938.1
508.81	977.8	12982.2
508.91	977.7	13020.3
509.01	977.6	13008.1
509.11	977.5	13058.5
509.21	977.4	13053.8
509.31	977.3	13085.4
509.41	977.2	13120.6
509.51	977.1	13174.7
509.61	977	13193.1
509.71	976.9	13159.7
509.81	976.8	13189.9
509.91	976.7	13233.1
510.01	976.6	13209.5
510.11	976.5	13253.5
510.21	976.4	13294.7
510.31	976.3	13295.1
510.41	976.2	13356.5
510.51	976.1	13334.9
510.61	976	13316.8
510.71	975.9	13405.3
510.81	975.8	13480.5
510.91	975.7	13452.3
511.01	975.6	13441.6
511.11	975.5	13509.1
511.21	975.4	13574.5
511.31	975.3	13587
511.41	975.2	13648.3
511.51	975.1	13661.6
511.61	975	13680.7
511.71	974.9	13682.3
511.81	974.8	13732.9
511.91	974.7	13740.1
512.01	974.6	13712.8
512.11	974.5	13688.7
512.21	974.4	13744.1
512.31	974.3	13708.1
512.41	974.2	13691.1
512.51	974.1	13667.7
512.61	974	13653.8
512.71	973.9	13666.7
512.81	973.8	13627.7
512.91	973.7	13609.5
513.01	973.6	13568.7
513.11	973.5	13577.6
513.21	973.4	13525.2
513.31	973.3	13528.4
513.41	973.2	13393.8
513.51	973.1	13389.6
513.61	973	13363.7
513.71	972.9	13418.9
513.81	972.8	13363.6
513.91	972.7	13394.7
514.01	972.6	13291.4
514.11	972.5	13274.9
514.21	972.4	13294.3
514.31	972.3	13270
514.41	972.2	13242.4
514.51	972.1	13207.2
514.61	972	13180.5
514.71	971.9	13106.7
514.81	971.8	13177.9
514.91	971.7	13161.3
515.01	971.6	13141.5
515.11	971.5	13109
515.21	971.4	13095.8
515.31	971.3	13144.9
515.41	971.2	13078.9
515.51	971.1	13134.8
515.61	971	13076.1
515.71	970.9	13117.3
515.81	970.8	13014.7
515.91	970.7	12998.8
516.01	970.6	12979.6
516.11	970.5	13000.3
516.21	970.4	13013.8
516.31	970.3	13002.3
516.41	970.2	12969.4
516.51	970.1	12926.4
516.61	970	12926.8
516.71	969.9	12929.8
516.81	969.8	12957
516.91	969.7	12947.1
517.01	969.6	12887.5
517.11	969.5	12888.3
517.21	969.4	12915
517.31	969.3	12916.3
517.41	969.2	12887.4
517.51	969.1	12831.3
517.61	969	12835.1
517.71	968.9	12842
517.81	968.8	12869.1
517.91	968.7	12869.3
518.01	968.6	12839.9
518.11	968.5	12775.9
518.21	968.4	12852.8
518.31	968.3	12798
518.41	968.2	12775
518.51	968.1	12751.9
518.61	968	12811.8
518.71	967.9	12781
518.81	967.8	12829.6
518.91	967.7	12813.4
519.01	967.6	12844.9
519.11	967.5	12890.2
519.21	967.4	12857.5
519.31	967.3	12744
519.41	967.2	12768.3
519.51	967.1	12778.5
519.61	967	12782.5
519.71	966.9	12831.4
519.81	966.8	12867.8
519.91	966.7	12836.1
520.01	966.6	12893.8
520.11	966.5	12928.2
520.21	966.4	12963.8
520.31	966.3	12976.8
520.41	966.2	12981.3
520.51	966.1	12965
520.61	966	13009.4
520.71	965.9	13043.8
520.81	965.8	13065.1
520.91	965.7	13083.3
521.01	965.6	13050
521.11	965.5	13075.1
521.21	965.4	13132.6
521.31	965.3	13152.3
521.41	965.2	13144.6
521.51	965.1	13184.4
521.61	965	13202.8
521.71	964.9	13208.1
521.81	964.8	13204.1
521.91	964.7	13191.9
522.01	964.6	13145.5
522.11	964.5	13177.5
522.21	964.4	13174.8
522.31	964.3	13170.8
522.41	964.2	13134.3
522.51	964.1	13159.8
522.61	964	13183.7
522.71	963.9	13183.8
522.81	963.8	13243.3
522.91	963.7	13252.9
523.01	963.6	13273.2
523.11	963.5	13345.9
523.21	963.4	13417.6
523.31	963.3	13425.4
523.41	963.2	13497.2
523.51	963.1	13564.3
523.61	963	13634
523.71	962.9	13730.3
523.81	962.8	13812.4
523.91	962.7	13880.7
524.01	962.6	13928.7
524.11	962.5	13998.1
524.21	962.4	14075.3
524.31	962.3	14078.4
524.41	962.2	14084.4
524.51	962.1	14135.7
524.61	962	14124.3
524.71	961.9	14020.3
524.81	961.8	13986.5
524.91	961.7	13948.9
525.01	961.6	13830.8
525.11	961.5	13766.8
525.21	961.4	13697.6
525.31	961.3	13596.5
525.41	961.2	13503.9
525.51	961.1	13426.9
525.61	961	13328.5
525.71	960.9	13275.6
525.81	960.8	13169.9
525.91	960.7	13110.4
526.01	960.6	13084.4
526.11	960.5	12977.3
526.21	960.4	12897.8
526.31	960.3	12850.6
526.41	960.2	12751
526.51	960.1	12698.7
526.61	960	12651
526.71	959.9	12492.2
526.81	959.8	12456.4
526.91	959.7	12442.7
527.01	959.6	12346
527.11	959.5	12394.2
527.21	959.4	12418.4
527.31	959.3	12334.9
527.41	959.2	12338.8
527.51	959.1	12276.2
527.61	959	12224.9
527.71	958.9	12237.7
527.81	958.8	12252.5
527.91	958.7	12156
528.01	958.6	12174.9
528.11	958.5	12251.9
528.21	958.4	12170.7
528.31	958.3	12170.5
528.41	958.2	12208
528.51	958.1	12283.1
528.61	958	12260.8
528.71	957.9	12260.2
528.81	957.8	12313.3
528.91	957.7	12312.8
529.01	957.6	12280.3
529.11	957.5	12298.5
529.21	957.4	12364.6
529.31	957.3	12354.3
529.41	957.2	12389.5
529.51	957.1	12401.5
529.61	957	12420
529.71	956.9	12459.8
529.81	956.8	12502.4
529.91	956.7	12550.9
530.01	956.6	12555
530.11	956.5	12538.1
530.21	956.4	12606.2
530.31	956.3	12731.1
530.41	956.2	12739.3
530.51	956.1	12803.8
530.61	956	12887.9
530.71	955.9	12920.5
530.81	955.8	13028.5
530.91	955.7	13089.1
531.01	955.6	13180.9
531.11	955.5	13318.6
531.21	955.4	13402.8
531.31	955.3	13488.7
531.41	955.2	13599.1
531.51	955.1	13712.7
531.61	955	13771
531.71	954.9	13868.3
531.81	954.8	13977.3
531.91	954.7	14125.5
532.01	954.6	14251.2
532.11	954.5	14366.4
532.21	954.4	14579.9
532.31	954.3	14673.4
532.41	954.2	14830.4
532.51	954.1	15028.5
532.61	954	15174.4
532.71	953.9	15428.8
532.81	953.8	15667.4
532.91	953.7	15967.4
533.01	953.6	16329.1
533.11	953.5	16768.8
533.21	953.4	17176.1
533.31	953.3	17757.9
533.41	953.2	18432.6
533.51	953.1	19302.5
533.61	953	20121.9
533.71	952.9	21120.1
533.81	952.8	22110.2
533.91	952.7	23176
534.01	952.6	23998.9
534.11	952.5	24539.4
534.21	952.4	24854.7
534.31	952.3	24871.2
534.41	952.2	24432.5
534.51	952.1	23638.9
534.61	952	22686
534.71	951.9	21585
534.81	951.8	20238.3
534.91	951.7	19019.7
535.01	951.6	17857.2
535.11	951.5	16906.5
535.21	951.4	15974.6
535.31	951.3	15202.5
535.41	951.2	14527.8
535.51	951.1	13954
535.61	951	13447.2
535.71	950.9	13140.7
535.81	950.8	12794.1
535.91	950.7	12497.3
536.01	950.6	12274.5
536.11	950.5	12071.5
536.21	950.4	11954.5
536.31	950.3	11799.7
536.41	950.2	11628
536.51	950.1	11634.2
536.61	950	11489.2
536.71	949.9	11376
536.81	949.8	11286
536.91	949.7	11288.7
537.01	949.6	11245
537.11	949.5	11181.8
537.21	949.4	11130.4
537.31	949.3	11073.4
537.41	949.2	11039.9
537.51	949.1	10969.2
537.61	949	10983.9
537.71	948.9	10922.7
537.81	948.8	10922.2
537.91	948.7	10858.7
538.01	948.6	10875.6
538.11	948.5	10858.6
538.21	948.4	10815.6
538.31	948.3	10850.9
538.41	948.2	10849.4
538.51	948.1	10815.3
538.61	948	10794.3
538.71	947.9	10829
538.81	947.8	10746.8
538.91	947.7	10789.6
539.01	947.6	10816.9
539.11	947.5	10818.9
539.21	947.4	10902.5
539.31	947.3	10885.6
539.41	947.2	10913.1
539.51	947.1	11047.9
539.61	947	11093.9
539.71	946.9	11179.6
539.81	946.8	11198.5
539.91	946.7	11260.9
540.01	946.6	11198.2
540.11	946.5	11265.2
540.21	946.4	11309.8
540.31	946.3	11262.2
540.41	946.2	11185.1
540.51	946.1	11159
540.61	946	11151.2
540.71	945.9	11119.2
540.81	945.8	11097.7
540.91	945.7	11055.5
541.01	945.6	10994.3
541.11	945.5	10978
541.21	945.4	10992.6
541.31	945.3	11016.9
541.41	945.2	11099.8
541.51	945.1	11142.1
541.61	945	11196.8
541.71	944.9	11275.2
541.81	944.8	11397.5
541.91	944.7	11481.9
542.01	944.6	11610.6
542.11	944.5	11717.2
542.21	944.4	11886.5
542.31	944.3	11985.9
542.41	944.2	12070.2
542.51	944.1	12222.2
542.61	944	12399.2
542.71	943.9	12388.4
542.81	943.8	12473.8
542.91	943.7	12509.1
543.01	943.6	12462.1
543.11	943.5	12429.6
543.21	943.4	12391.3
543.31	943.3	12337.4
543.41	943.2	12304.8
543.51	943.1	12125
543.61	943	12064.1
543.71	942.9	12018.1
543.81	942.8	11901.7
543.91	942.7	11789.9
544.01	942.6	11759.6
544.11	942.5	11710.8
544.21	942.4	11682.5
544.31	942.3	11666.7
544.41	942.2	11673.8
544.51	942.1	11692.1
544.61	942	11649.4
544.71	941.9	11612.6
544.81	941.8	11617
544.91	941.7	11620.1
545.01	941.6	11593.3
545.11	941.5	11585.2
545.21	941.4	11596
545.31	941.3	11629.5
545.41	941.2	11660.2
545.51	941.1	11617.9
545.61	941	11649.8
545.71	940.9	11635.1
545.81	940.8	11678.4
545.91	940.7	11689.7
546.01	940.6	11621.9
546.11	940.5	11561
546.21	940.4	11537
546.31	940.3	11459.3
546.41	940.2	11349.4
546.51	940.1	11214.4
546.61	940	11040
546.71	939.9	10897.6
546.81	939.8	10756
546.91	939.7	10619.2
547.01	939.6	10450.5
547.11	939.5	10353.2
547.21	939.4	10253.7
547.31	939.3	10102
547.41	939.2	10013.6
547.51	939.1	9968.74
547.61	939	9912.96
547.71	938.9	9878.36
547.81	938.8	9852.82
547.91	938.7	9792.44
548.01	938.6	9793.33
548.11	938.5	9771.23
548.21	938.4	9765.47
548.31	938.3	9730.24
548.41	938.2	9769.25
548.51	938.1	9781.38
548.61	938	9817.44
548.71	937.9	9809.95
548.81	937.8	9842.38
548.91	937.7	9873.68
549.01	937.6	9913.58
549.11	937.5	9974.13
549.21	937.4	9996.57
549.31	937.3	10060.9
549.41	937.2	10105.3
549.51	937.1	10190.6
549.61	937	10183.5
549.71	936.9	10250
549.81	936.8	10275.6
549.91	936.7	10405.5
550.01	936.6	10520.6
550.11	936.5	10606.6
550.21	936.4	10663.5
550.31	936.3	10788.7
550.41	936.2	10847
550.51	936.1	11010.8
550.61	936	11113.7
550.71	935.9	11307
550.81	935.8	11495
550.91	935.7	11589.1
551.01	935.6	11768.8
551.11	935.5	12032.1
551.21	935.4	12149.8
551.31	935.3	12391.1
551.41	935.2	12624.9
551.51	935.1	12761.6
551.61	935	12901.3
551.71	934.9	13159.4
551.81	934.8	13319.9
551.91	934.7	13496.6
552.01	934.6	13711.7
552.11	934.5	13946.3
552.21	934.4	14245.8
552.31	934.3	14485.1
552.41	934.2	14812.4
552.51	934.1	15145.5
552.61	934	15535
552.71	933.9	16056.6
552.81	933.8	16655.3
552.91	933.7	17338.4
553.01	933.6	18344.9
553.11	933.5	19510.2
553.21	933.4	20997
553.31	933.3	23060.9
553.41	933.2	25715.7
553.51	933.1	28972.6
553.61	933	32900.1
553.71	932.9	36964.6
553.81	932.8	40901.3
553.91	932.7	44107
554.01	932.6	45802.4
554.11	932.5	45954.9
554.21	932.4	44402.4
554.31	932.3	41447.6
554.41	932.2	37468.5
554.51	932.1	33142.7
554.61	932	28856.4
554.71	931.9	24961.9
554.81	931.8	21552
554.91	931.7	18615.8
555.01	931.6	16235.8
555.11	931.5	14446.1
555.21	931.4	12932.3
555.31	931.3	11884.4
555.41	931.2	10946.2
555.51	931.1	10233.2
555.61	931	9656.76
555.71	930.9	9203.23
555.81	930.8	8806.13
555.91	930.7	8558.61
556.01	930.6	8333.26
556.11	930.5	8120.59
556.21	930.4	7962.53
556.31	930.3	7792.44
556.41	930.2	7673.74
556.51	930.1	7546.46
556.61	930	7476.8
556.71	929.9	7379.5
556.81	929.8	7282.71
556.91	929.7	7255.37
557.01	929.6	7146.93
557.11	929.5	7068.36
557.21	929.4	7082.51
557.31	929.3	7044.9
557.41	929.2	6999.1
557.51	929.1	6929.84
557.61	929	6928.71
557.71	928.9	6907.05
557.81	928.8	6887.19
557.91	928.7	6860.91
558.01	928.6	6794.16
558.11	928.5	6759.56
558.21	928.4	6755.78
558.31	928.3	6772.86
558.41	928.2	6729.45
558.51	928.1	6699.27
558.61	928	6701.44
558.71	927.9	6656.24
558.81	927.8	6655.18
558.91	927.7	6690.67
559.01	927.6	6676.19
559.11	927.5	6654.86
559.21	927.4	6606.37
559.31	927.3	6577.74
559.41	927.2	6561.48
559.51	927.1	6592.89
559.61	927	6603.95
559.71	926.9	6586.29
559.81	926.8	6574.15
559.91	926.7	6554.77
560.01	926.6	6552.38
560.11	926.5	6557.01
560.21	926.4	6513.14
560.31	926.3	6562.79
560.41	926.2	6587.63
560.51	926.1	6551.53
560.61	926	6508.45
560.71	925.9	6503.19
560.81	925.8	6484.94
560.91	925.7	6464.58
561.01	925.6	6478.06
561.11	925.5	6511.11
561.21	925.4	6516.75
561.31	925.3	6482.67
561.41	925.2	6494.26
561.51	925.1	6547.18
561.61	925	6528.77
561.71	924.9	6486.89
561.81	924.8	6457.23
561.91	924.7	6469.25
562.01	924.6	6454.35
562.11	924.5	6449.94
562.21	924.4	6481.29
562.31	924.3	6506.11
562.41	924.2	6497.13
562.51	924.1	6498.09
562.61	924	6503.75
562.71	923.9	6453.36
562.81	923.8	6478.92
562.91	923.7	6470.47
563.01	923.6	6471.94
563.11	923.5	6465.85
563.21	923.4	6490.18
563.31	923.3	6495.19
563.41	923.2	6489.44
563.51	923.1	6467.89
563.61	923	6487.91
563.71	922.9	6459.03
563.81	922.8	6420.47
563.91	922.7	6447.48
564.01	922.6	6444.11
564.11	922.5	6487.7
564.21	922.4	6455.77
564.31	922.3	6433.65
564.41	922.2	6461.39
564.51	922.1	6460.05
564.61	922	6481.06
564.71	921.9	6468.97
564.81	921.8	6436.22
564.91	921.7	6444.99
565.01	921.6	6470.1
565.11	921.5	6475.38
565.21	921.4	6473.29
565.31	921.3	6472.19
565.41	921.2	6441.79
565.51	921.1	6461.67
565.61	921	6453.27
565.71	920.9	6486.79
565.81	920.8	6474.62
565.91	920.7	6479.58
566.01	920.6	6508.44
566.11	920.5	6484.17
566.21	920.4	6461.77
566.31	920.3	6467.2
566.41	920.2	6469.15
566.51	920.1	6455.42
566.61	920	6471.37