C:\Users\Mark\ownCloud\Muelheim Group\Projects\Gas phase background\EX320_CEC356_Cu in He.vms
Pr:Cu2p
	Characteristic Energy eV	1486.61	Acquisition Time s	0.3
KE_Pr:Cu2p	BE_Pr:Cu2p	CPS_Pr:Cu2p	Background_Pr:Cu2p
456.61	1030	142279	142279
456.71	1029.9	142556	142556
456.81	1029.8	143262	143262
456.91	1029.7	143408	143408
457.01	1029.6	143282	143282
457.11	1029.5	143235	143235
457.21	1029.4	143405	143405
457.31	1029.3	143084	143084
457.41	1029.2	142979	142979
457.51	1029.1	143693	143693
457.61	1029	143079	143079
457.71	1028.9	142498	142498
457.81	1028.8	142446	142446
457.91	1028.7	143136	143136
458.01	1028.6	143423	143423
458.11	1028.5	142774	142774
458.21	1028.4	142646	142646
458.31	1028.3	143153	143153
458.41	1028.2	143612	143612
458.51	1028.1	143720	143720
458.61	1028	143817	143817
458.71	1027.9	143691	143691
458.81	1027.8	142969	142969
458.91	1027.7	143342	143342
459.01	1027.6	143749	143749
459.11	1027.5	143690	143690
459.21	1027.4	143314	143314
459.31	1027.3	143386	143386
459.41	1027.2	143495	143495
459.51	1027.1	143726	143726
459.61	1027	143156	143156
459.71	1026.9	143742	143742
459.81	1026.8	144276	144276
459.91	1026.7	144521	144521
460.01	1026.6	145474	145474
460.11	1026.5	144175	144175
460.21	1026.4	143975	143975
460.31	1026.3	144471	144471
460.41	1026.2	143651	143651
460.51	1026.1	143467	143467
460.61	1026	143860	143860
460.71	1025.9	143842	143842
460.81	1025.8	144047	144047
460.91	1025.7	144438	144438
461.01	1025.6	144434	144434
461.11	1025.5	144296	144296
461.21	1025.4	144269	144269
461.31	1025.3	145131	145131
461.41	1025.2	144908	144908
461.51	1025.1	144757	144757
461.61	1025	144441	144441
461.71	1024.9	144511	144511
461.81	1024.8	144655	144655
461.91	1024.7	144782	144782
462.01	1024.6	145124	145124
462.11	1024.5	145154	145154
462.21	1024.4	145195	145195
462.31	1024.3	145545	145545
462.41	1024.2	145116	145116
462.51	1024.1	145412	145412
462.61	1024	145298	145298
462.71	1023.9	145180	145180
462.81	1023.8	145611	145611
462.91	1023.7	145709	145709
463.01	1023.6	145505	145505
463.11	1023.5	145388	145388
463.21	1023.4	145581	145581
463.31	1023.3	145269	145269
463.41	1023.2	145291	145291
463.51	1023.1	145290	145290
463.61	1023	145402	145402
463.71	1022.9	145560	145560
463.81	1022.8	145615	145615
463.91	1022.7	145699	145699
464.01	1022.6	146051	146051
464.11	1022.5	146208	146208
464.21	1022.4	146052	146052
464.31	1022.3	145880	145880
464.41	1022.2	145403	145403
464.51	1022.1	145617	145617
464.61	1022	145957	145957
464.71	1021.9	146638	146638
464.81	1021.8	146772	146772
464.91	1021.7	146212	146212
465.01	1021.6	146117	146117
465.11	1021.5	145792	145792
465.21	1021.4	146484	146484
465.31	1021.3	146304	146304
465.41	1021.2	146787	146787
465.51	1021.1	146109	146109
465.61	1021	146114	146114
465.71	1020.9	146037	146037
465.81	1020.8	146531	146531
465.91	1020.7	146548	146548
466.01	1020.6	146727	146727
466.11	1020.5	146751	146751
466.21	1020.4	147385	147385
466.31	1020.3	147035	147035
466.41	1020.2	146652	146652
466.51	1020.1	146840	146840
466.61	1020	146680	146680
466.71	1019.9	147460	147460
466.81	1019.8	147262	147262
466.91	1019.7	147562	147562
467.01	1019.6	147471	147471
467.11	1019.5	147737	147737
467.21	1019.4	147780	147780
467.31	1019.3	147632	147632
467.41	1019.2	147415	147415
467.51	1019.1	147663	147663
467.61	1019	147421	147421
467.71	1018.9	147505	147505
467.81	1018.8	147877	147877
467.91	1018.7	147791	147791
468.01	1018.6	147620	147620
468.11	1018.5	147789	147789
468.21	1018.4	148246	148246
468.31	1018.3	147661	147661
468.41	1018.2	147453	147453
468.51	1018.1	148327	148327
468.61	1018	148324	148324
468.71	1017.9	148151	148151
468.81	1017.8	148243	148243
468.91	1017.7	149065	149065
469.01	1017.6	148587	148587
469.11	1017.5	148394	148394
469.21	1017.4	148454	148454
469.31	1017.3	148332	148332
469.41	1017.2	148742	148742
469.51	1017.1	148244	148244
469.61	1017	148173	148173
469.71	1016.9	148753	148753
469.81	1016.8	148866	148866
469.91	1016.7	148294	148294
470.01	1016.6	147954	147954
470.11	1016.5	148489	148489
470.21	1016.4	149064	149064
470.31	1016.3	149472	149472
470.41	1016.2	149832	149832
470.51	1016.1	149806	149806
470.61	1016	149120	149120
470.71	1015.9	148836	148836
470.81	1015.8	149813	149813
470.91	1015.7	149285	149285
471.01	1015.6	148675	148675
471.11	1015.5	149105	149105
471.21	1015.4	150247	150247
471.31	1015.3	149907	149907
471.41	1015.2	148553	148553
471.51	1015.1	148720	148720
471.61	1015	149447	149447
471.71	1014.9	148968	148968
471.81	1014.8	149106	149106
471.91	1014.7	149412	149412
472.01	1014.6	149290	149290
472.11	1014.5	149569	149569
472.21	1014.4	150119	150119
472.31	1014.3	150554	150554
472.41	1014.2	149955	149955
472.51	1014.1	149477	149477
472.61	1014	149876	149876
472.71	1013.9	150088	150088
472.81	1013.8	150086	150086
472.91	1013.7	149542	149542
473.01	1013.6	150158	150158
473.11	1013.5	150012	150012
473.21	1013.4	150041	150041
473.31	1013.3	150292	150292
473.41	1013.2	150596	150596
473.51	1013.1	150728	150728
473.61	1013	149775	149775
473.71	1012.9	150237	150237
473.81	1012.8	150454	150454
473.91	1012.7	150816	150816
474.01	1012.6	150784	150784
474.11	1012.5	150745	150745
474.21	1012.4	150526	150526
474.31	1012.3	150527	150527
474.41	1012.2	150965	150965
474.51	1012.1	150578	150578
474.61	1012	151159	151159
474.71	1011.9	151294	151294
474.81	1011.8	151742	151742
474.91	1011.7	151577	151577
475.01	1011.6	151365	151365
475.11	1011.5	151585	151585
475.21	1011.4	152169	152169
475.31	1011.3	152243	152243
475.41	1011.2	151649	151649
475.51	1011.1	151850	151850
475.61	1011	152104	152104
475.71	1010.9	152143	152143
475.81	1010.8	151703	151703
475.91	1010.7	151868	151868
476.01	1010.6	151893	151893
476.11	1010.5	150942	150942
476.21	1010.4	151323	151323
476.31	1010.3	151637	151637
476.41	1010.2	151989	151989
476.51	1010.1	152786	152786
476.61	1010	152303	152303
476.71	1009.9	151971	151971
476.81	1009.8	151817	151817
476.91	1009.7	151333	151333
477.01	1009.6	151333	151333
477.11	1009.5	151890	151890
477.21	1009.4	153210	153210
477.31	1009.3	153221	153221
477.41	1009.2	152451	152451
477.51	1009.1	151852	151852
477.61	1009	152222	152222
477.71	1008.9	152212	152212
477.81	1008.8	152807	152807
477.91	1008.7	152888	152888
478.01	1008.6	152565	152565
478.11	1008.5	152593	152593
478.21	1008.4	153796	153796
478.31	1008.3	153017	153017
478.41	1008.2	152731	152731
478.51	1008.1	152889	152889
478.61	1008	152851	152851
478.71	1007.9	152739	152739
478.81	1007.8	153043	153043
478.91	1007.7	153582	153582
479.01	1007.6	152558	152558
479.11	1007.5	152876	152876
479.21	1007.4	153580	153580
479.31	1007.3	153402	153402
479.41	1007.2	153011	153011
479.51	1007.1	152629	152629
479.61	1007	153499	153499
479.71	1006.9	153854	153854
479.81	1006.8	153648	153648
479.91	1006.7	153589	153589
480.01	1006.6	153822	153822
480.11	1006.5	154148	154148
480.21	1006.4	154693	154693
480.31	1006.3	153948	153948
480.41	1006.2	154006	154006
480.51	1006.1	153761	153761
480.61	1006	153047	153047
480.71	1005.9	154069	154069
480.81	1005.8	154558	154558
480.91	1005.7	154340	154340
481.01	1005.6	154472	154472
481.11	1005.5	154533	154533
481.21	1005.4	153949	153949
481.31	1005.3	154050	154050
481.41	1005.2	154077	154077
481.51	1005.1	155086	155086
481.61	1005	154883	154883
481.71	1004.9	154715	154715
481.81	1004.8	154478	154478
481.91	1004.7	154309	154309
482.01	1004.6	155063	155063
482.11	1004.5	154829	154829
482.21	1004.4	155020	155020
482.31	1004.3	155584	155584
482.41	1004.2	156241	156241
482.51	1004.1	155703	155703
482.61	1004	155431	155431
482.71	1003.9	155783	155783
482.81	1003.8	155469	155469
482.91	1003.7	155423	155423
483.01	1003.6	155036	155036
483.11	1003.5	155533	155533
483.21	1003.4	155783	155783
483.31	1003.3	155531	155531
483.41	1003.2	156275	156275
483.51	1003.1	155491	155491
483.61	1003	155951	155951
483.71	1002.9	156383	156383
483.81	1002.8	155534	155534
483.91	1002.7	156243	156243
484.01	1002.6	155132	155132
484.11	1002.5	156243	156243
484.21	1002.4	157104	157104
484.31	1002.3	156999	156999
484.41	1002.2	157105	157105
484.51	1002.1	156189	156189
484.61	1002	156928	156928
484.71	1001.9	156621	156621
484.81	1001.8	156413	156413
484.91	1001.7	157552	157552
485.01	1001.6	158065	158065
485.11	1001.5	157260	157260
485.21	1001.4	157376	157376
485.31	1001.3	157224	157224
485.41	1001.2	157849	157849
485.51	1001.1	157224	157224
485.61	1001	156997	156997
485.71	1000.9	157533	157533
485.81	1000.8	157007	157007
485.91	1000.7	157623	157623
486.01	1000.6	158751	158751
486.11	1000.5	158765	158765
486.21	1000.4	157913	157913
486.31	1000.3	158093	158093
486.41	1000.2	158026	158026
486.51	1000.1	156955	156955
486.61	1000	157153	157153
486.71	999.9	157196	157196
486.81	999.8	158017	158017
486.91	999.7	159341	159341
487.01	999.6	158746	158746
487.11	999.5	158412	158412
487.21	999.4	158821	158821
487.31	999.3	158490	158490
487.41	999.2	158189	158189
487.51	999.1	159094	159094
487.61	999	158579	158579
487.71	998.9	158238	158238
487.81	998.8	158950	158950
487.91	998.7	158993	158993
488.01	998.6	159431	159431
488.11	998.5	159545	159545
488.21	998.4	159103	159103
488.31	998.3	159164	159164
488.41	998.2	159027	159027
488.51	998.1	158591	158591
488.61	998	159062	159062
488.71	997.9	159515	159515
488.81	997.8	159571	159571
488.91	997.7	160137	160137
489.01	997.6	160497	160497
489.11	997.5	160214	160214
489.21	997.4	159588	159588
489.31	997.3	159881	159881
489.41	997.2	160267	160267
489.51	997.1	160789	160789
489.61	997	160369	160369
489.71	996.9	161005	161005
489.81	996.8	159679	159679
489.91	996.7	160115	160115
490.01	996.6	160340	160340
490.11	996.5	159992	159992
490.21	996.4	160005	160005
490.31	996.3	160338	160338
490.41	996.2	160192	160192
490.51	996.1	160095	160095
490.61	996	160381	160381
490.71	995.9	161067	161067
490.81	995.8	160750	160750
490.91	995.7	161501	161501
491.01	995.6	161533	161533
491.11	995.5	160706	160706
491.21	995.4	160917	160917
491.31	995.3	160334	160334
491.41	995.2	161023	161023
491.51	995.1	161548	161548
491.61	995	161596	161596
491.71	994.9	161377	161377
491.81	994.8	161613	161613
491.91	994.7	161866	161866
492.01	994.6	161784	161784
492.11	994.5	161530	161530
492.21	994.4	161163	161163
492.31	994.3	161073	161073
492.41	994.2	161265	161265
492.51	994.1	161670	161670
492.61	994	161341	161341
492.71	993.9	160747	160747
492.81	993.8	162183	162183
492.91	993.7	161862	161862
493.01	993.6	160458	160458
493.11	993.5	161390	161390
493.21	993.4	162151	162151
493.31	993.3	161995	161995
493.41	993.2	162243	162243
493.51	993.1	162672	162672
493.61	993	162167	162167
493.71	992.9	162005	162005
493.81	992.8	161672	161672
493.91	992.7	161917	161917
494.01	992.6	161856	161856
494.11	992.5	162401	162401
494.21	992.4	162751	162751
494.31	992.3	163684	163684
494.41	992.2	162590	162590
494.51	992.1	162111	162111
494.61	992	161907	161907
494.71	991.9	162902	162902
494.81	991.8	162992	162992
494.91	991.7	162535	162535
495.01	991.6	162478	162478
495.11	991.5	162583	162583
495.21	991.4	163258	163258
495.31	991.3	162995	162995
495.41	991.2	162423	162423
495.51	991.1	163267	163267
495.61	991	163955	163955
495.71	990.9	163373	163373
495.81	990.8	163136	163136
495.91	990.7	162930	162930
496.01	990.6	163014	163014
496.11	990.5	163549	163549
496.21	990.4	163413	163413
496.31	990.3	162890	162890
496.41	990.2	163279	163279
496.51	990.1	163484	163484
496.61	990	163905	163905
496.71	989.9	164087	164087
496.81	989.8	163185	163185
496.91	989.7	162788	162788
497.01	989.6	163897	163897
497.11	989.5	164109	164109
497.21	989.4	163668	163668
497.31	989.3	163289	163289
497.41	989.2	163730	163730
497.51	989.1	164133	164133
497.61	989	164244	164244
497.71	988.9	164788	164788
497.81	988.8	165236	165236
497.91	988.7	164558	164558
498.01	988.6	164352	164352
498.11	988.5	163987	163987
498.21	988.4	164241	164241
498.31	988.3	164530	164530
498.41	988.2	164781	164781
498.51	988.1	165453	165453
498.61	988	165395	165395
498.71	987.9	165613	165613
498.81	987.8	165291	165291
498.91	987.7	164799	164799
499.01	987.6	165553	165553
499.11	987.5	165657	165657
499.21	987.4	166276	166276
499.31	987.3	165001	165001
499.41	987.2	165648	165648
499.51	987.1	166150	166150
499.61	987	166295	166295
499.71	986.9	166395	166395
499.81	986.8	166569	166569
499.91	986.7	166379	166379
500.01	986.6	166654	166654
500.11	986.5	165966	165966
500.21	986.4	165913	165913
500.31	986.3	167021	167021
500.41	986.2	166849	166849
500.51	986.1	166284	166284
500.61	986	167226	167226
500.71	985.9	167004	167004
500.81	985.8	167216	167216
500.91	985.7	166898	166898
501.01	985.6	166661	166661
501.11	985.5	166785	166785
501.21	985.4	167633	167633
501.31	985.3	167105	167105
501.41	985.2	167888	167888
501.51	985.1	168053	168053
501.61	985	167477	167477
501.71	984.9	167387	167387
501.81	984.8	168167	168167
501.91	984.7	168368	168368
502.01	984.6	168135	168135
502.11	984.5	168118	168118
502.21	984.4	168073	168073
502.31	984.3	168316	168316
502.41	984.2	168589	168589
502.51	984.1	168667	168667
502.61	984	168947	168947
502.71	983.9	168652	168652
502.81	983.8	168826	168826
502.91	983.7	168920	168920
503.01	983.6	168277	168277
503.11	983.5	168697	168697
503.21	983.4	169110	169110
503.31	983.3	169928	169928
503.41	983.2	169450	169450
503.51	983.1	170005	170005
503.61	983	170042	170042
503.71	982.9	169760	169760
503.81	982.8	169082	169082
503.91	982.7	169532	169532
504.01	982.6	170537	170537
504.11	982.5	170489	170489
504.21	982.4	169800	169800
504.31	982.3	169910	169910
504.41	982.2	170228	170228
504.51	982.1	171234	171234
504.61	982	170835	170835
504.71	981.9	170702	170702
504.81	981.8	170609	170609
504.91	981.7	170541	170541
505.01	981.6	170414	170414
505.11	981.5	170517	170517
505.21	981.4	171671	171671
505.31	981.3	171300	171300
505.41	981.2	170775	170775
505.51	981.1	171059	171059
505.61	981	171184	171184
505.71	980.9	171557	171557
505.81	980.8	171781	171781
505.91	980.7	171486	171486
506.01	980.6	171792	171792
506.11	980.5	171196	171196
506.21	980.4	172170	172170
506.31	980.3	172761	172761
506.41	980.2	172837	172837
506.51	980.1	173076	173076
506.61	980	173218	173218
506.71	979.9	172985	172985
506.81	979.8	172858	172858
506.91	979.7	173493	173493
507.01	979.6	173099	173099
507.11	979.5	173654	173654
507.21	979.4	173530	173530
507.31	979.3	173380	173380
507.41	979.2	173241	173241
507.51	979.1	173844	173844
507.61	979	174342	174342
507.71	978.9	174234	174234
507.81	978.8	174884	174884
507.91	978.7	175406	175406
508.01	978.6	174315	174315
508.11	978.5	174473	174473
508.21	978.4	174466	174466
508.31	978.3	175025	175025
508.41	978.2	174435	174435
508.51	978.1	174836	174836
508.61	978	175504	175504
508.71	977.9	175742	175742
508.81	977.8	174944	174944
508.91	977.7	175459	175459
509.01	977.6	175702	175702
509.11	977.5	175908	175908
509.21	977.4	174850	174850
509.31	977.3	175350	175350
509.41	977.2	175326	175326
509.51	977.1	176557	176557
509.61	977	176665	176665
509.71	976.9	176270	176270
509.81	976.8	176725	176725
509.91	976.7	176626	176626
510.01	976.6	176656	176656
510.11	976.5	177026	177026
510.21	976.4	177724	177724
510.31	976.3	178149	178149
510.41	976.2	177428	177428
510.51	976.1	177363	177363
510.61	976	177837	177837
510.71	975.9	177635	177635
510.81	975.8	177540	177540
510.91	975.7	177181	177181
511.01	975.6	177972	177972
511.11	975.5	178158	178158
511.21	975.4	178347	178347
511.31	975.3	178124	178124
511.41	975.2	178547	178547
511.51	975.1	179025	179025
511.61	975	178858	178858
511.71	974.9	178709	178709
511.81	974.8	179041	179041
511.91	974.7	179620	179620
512.01	974.6	180203	180203
512.11	974.5	181027	181027
512.21	974.4	181688	181688
512.31	974.3	181955	181955
512.41	974.2	182147	182147
512.51	974.1	183749	183749
512.61	974	183142	183142
512.71	973.9	183922	183922
512.81	973.8	184834	184834
512.91	973.7	185654	185654
513.01	973.6	184985	184985
513.11	973.5	184644	184644
513.21	973.4	184201	184201
513.31	973.3	183500	183500
513.41	973.2	182459	182459
513.51	973.1	181366	181366
513.61	973	180768	180768
513.71	972.9	180063	180063
513.81	972.8	179765	179765
513.91	972.7	178290	178290
514.01	972.6	178068	178068
514.11	972.5	177749	177749
514.21	972.4	177607	177607
514.31	972.3	178002	178002
514.41	972.2	176831	176831
514.51	972.1	176469	176469
514.61	972	176742	176742
514.71	971.9	175972	175972
514.81	971.8	175926	175926
514.91	971.7	176040	176040
515.01	971.6	175483	175483
515.11	971.5	175481	175481
515.21	971.4	175357	175357
515.31	971.3	175637	175637
515.41	971.2	174717	174717
515.51	971.1	175596	175596
515.61	971	175612	175612
515.71	970.9	175284	175284
515.81	970.8	175803	175803
515.91	970.7	175447	175447
516.01	970.6	175316	175316
516.11	970.5	174894	174894
516.21	970.4	175232	175232
516.31	970.3	175351	175351
516.41	970.2	175603	175603
516.51	970.1	175592	175592
516.61	970	175224	175224
516.71	969.9	174857	174857
516.81	969.8	175355	175355
516.91	969.7	175494	175494
517.01	969.6	175310	175310
517.11	969.5	174868	174868
517.21	969.4	175402	175402
517.31	969.3	175705	175705
517.41	969.2	175587	175587
517.51	969.1	175446	175446
517.61	969	175768	175768
517.71	968.9	175348	175348
517.81	968.8	175075	175075
517.91	968.7	175100	175100
518.01	968.6	175641	175641
518.11	968.5	174930	174930
518.21	968.4	174883	174883
518.31	968.3	175622	175622
518.41	968.2	174586	174586
518.51	968.1	174393	174393
518.61	968	174355	174355
518.71	967.9	174815	174815
518.81	967.8	175004	175004
518.91	967.7	174797	174797
519.01	967.6	174610	174610
519.11	967.5	174943	174943
519.21	967.4	175092	175092
519.31	967.3	175072	175072
519.41	967.2	174921	174921
519.51	967.1	175010	175010
519.61	967	175283	175283
519.71	966.9	175102	175102
519.81	966.8	175008	175008
519.91	966.7	175958	175958
520.01	966.6	175308	175308
520.11	966.5	175555	175555
520.21	966.4	175435	175435
520.31	966.3	175541	175541
520.41	966.2	175531	175531
520.51	966.1	175972	175972
520.61	966	176598	176598
520.71	965.9	177124	177124
520.81	965.8	177241	177241
520.91	965.7	177390	177390
521.01	965.6	177422	177422
521.11	965.5	177486	177486
521.21	965.4	177475	177475
521.31	965.3	177788	177788
521.41	965.2	178744	178744
521.51	965.1	178191	178191
521.61	965	178108	178108
521.71	964.9	178424	178424
521.81	964.8	178574	178574
521.91	964.7	178571	178571
522.01	964.6	178516	178516
522.11	964.5	178454	178454
522.21	964.4	178173	178173
522.31	964.3	178011	178011
522.41	964.2	177802	177802
522.51	964.1	177397	177397
522.61	964	176919	176919
522.71	963.9	177357	177357
522.81	963.8	176290	176290
522.91	963.7	175696	175696
523.01	963.6	174842	174842
523.11	963.5	174736	174736
523.21	963.4	173809	173809
523.31	963.3	174240	174240
523.41	963.2	174412	174412
523.51	963.1	172963	172963
523.61	963	171995	171995
523.71	962.9	171531	171531
523.81	962.8	171123	171123
523.91	962.7	170908	170908
524.01	962.6	171663	171663
524.11	962.5	171827	171827
524.21	962.4	172215	172215
524.31	962.3	171308	171308
524.41	962.2	171389	171389
524.51	962.1	170803	170803
524.61	962	170844	170844
524.71	961.9	169729	169729
524.81	961.8	170083	170083
524.91	961.7	170540	170540
525.01	961.6	170836	170836
525.11	961.5	170818	170818
525.21	961.4	169881	169881
525.31	961.3	170032	170032
525.41	961.2	170317	170317
525.51	961.1	170433	170433
525.61	961	169779	169779
525.71	960.9	170781	170781
525.81	960.8	170726	170726
525.91	960.7	170393	170393
526.01	960.6	170700	170700
526.11	960.5	170589	170589
526.21	960.4	170617	170617
526.31	960.3	171626	171626
526.41	960.2	171807	171807
526.51	960.1	172222	172222
526.61	960	173719	173719
526.71	959.9	172656	172656
526.81	959.8	172425	172425
526.91	959.7	172280	172280
527.01	959.6	171446	171446
527.11	959.5	172878	172878
527.21	959.4	173401	173401
527.31	959.3	173382	173382
527.41	959.2	174000	174000
527.51	959.1	173253	173253
527.61	959	172657	172657
527.71	958.9	172461	172461
527.81	958.8	172844	172844
527.91	958.7	173405	173405
528.01	958.6	173739	173739
528.11	958.5	173671	173671
528.21	958.4	173915	173915
528.31	958.3	173357	173357
528.41	958.2	174055	174055
528.51	958.1	175192	175192
528.61	958	174429	174429
528.71	957.9	174826	174826
528.81	957.8	175590	175590
528.91	957.7	175679	175679
529.01	957.6	175667	175667
529.11	957.5	176250	176250
529.21	957.4	176787	176787
529.31	957.3	177784	177784
529.41	957.2	177185	177185
529.51	957.1	177776	177776
529.61	957	178281	178281
529.71	956.9	178066	178066
529.81	956.8	178683	178683
529.91	956.7	179242	179242
530.01	956.6	179511	179511
530.11	956.5	180414	180414
530.21	956.4	180782	180782
530.31	956.3	181718	181718
530.41	956.2	182061	182061
530.51	956.1	183458	183458
530.61	956	183788	183788
530.71	955.9	184588	184588
530.81	955.8	185430	185430
530.91	955.7	185401	185401
531.01	955.6	185427	185427
531.11	955.5	185850	185850
531.21	955.4	185855	185855
531.31	955.3	186249	186249
531.41	955.2	186418	186418
531.51	955.1	187263	187263
531.61	955	188246	188246
531.71	954.9	190865	190865
531.81	954.8	192386	192386
531.91	954.7	195790	195790
532.01	954.6	199073	199073
532.11	954.5	203163	203163
532.21	954.4	209598	209598
532.31	954.3	216871	216871
532.41	954.2	225131	225131
532.51	954.1	232429	232429
532.61	954	241043	241043
532.71	953.9	247892	247892
532.81	953.8	254521	254521
532.91	953.7	261213	261213
533.01	953.6	267856	267856
533.11	953.5	276116	276116
533.21	953.4	285546	285546
533.31	953.3	298648	298648
533.41	953.2	313033	313033
533.51	953.1	329088	329088
533.61	953	348578	348578
533.71	952.9	368392	368392
533.81	952.8	389158	389158
533.91	952.7	407479	407479
534.01	952.6	419344	419344
534.11	952.5	424410	424410
534.21	952.4	424337	424337
534.31	952.3	416860	416860
534.41	952.2	401584	401584
534.51	952.1	381495	381495
534.61	952	359466	359466
534.71	951.9	335998	335998
534.81	951.8	313002	313002
534.91	951.7	290877	290877
535.01	951.6	271444	271444
535.11	951.5	255308	255308
535.21	951.4	240720	240720
535.31	951.3	227743	227743
535.41	951.2	218107	218107
535.51	951.1	209493	209493
535.61	951	203011	203011
535.71	950.9	196513	196513
535.81	950.8	191021	191021
535.91	950.7	186946	186946
536.01	950.6	182926	182926
536.11	950.5	179687	179687
536.21	950.4	176813	176813
536.31	950.3	174407	174407
536.41	950.2	172139	172139
536.51	950.1	169844	169844
536.61	950	168502	168502
536.71	949.9	166695	166695
536.81	949.8	165150	165150
536.91	949.7	163607	163607
537.01	949.6	161611	161611
537.11	949.5	160517	160517
537.21	949.4	159534	159534
537.31	949.3	157814	157814
537.41	949.2	156828	156828
537.51	949.1	155702	155702
537.61	949	154893	154893
537.71	948.9	154282	154282
537.81	948.8	154459	154459
537.91	948.7	153571	153571
538.01	948.6	152935	152935
538.11	948.5	153133	153133
538.21	948.4	153103	153103
538.31	948.3	152920	152920
538.41	948.2	151949	151949
538.51	948.1	150989	150989
538.61	948	150876	150876
538.71	947.9	150449	150449
538.81	947.8	151541	151541
538.91	947.7	151598	151598
539.01	947.6	151116	151116
539.11	947.5	151116	151116
539.21	947.4	150901	150901
539.31	947.3	149933	149933
539.41	947.2	150061	150061
539.51	947.1	150679	150679
539.61	947	150235	150235
539.71	946.9	150500	150500
539.81	946.8	150527	150527
539.91	946.7	150480	150480
540.01	946.6	151132	151132
540.11	946.5	150948	150948
540.21	946.4	150130	150130
540.31	946.3	149989	149989
540.41	946.2	150566	150566
540.51	946.1	149680	149680
540.61	946	150241	150241
540.71	945.9	149927	149927
540.81	945.8	148799	148799
540.91	945.7	148653	148653
541.01	945.6	147438	147438
541.11	945.5	147150	147150
541.21	945.4	146056	146056
541.31	945.3	144978	144978
541.41	945.2	144640	144640
541.51	945.1	143848	143848
541.61	945	143886	143886
541.71	944.9	143321	143321
541.81	944.8	143481	143481
541.91	944.7	143316	143316
542.01	944.6	143513	143513
542.11	944.5	142854	142854
542.21	944.4	142589	142589
542.31	944.3	141976	141976
542.41	944.2	141686	141686
542.51	944.1	141234	141234
542.61	944	140880	140880
542.71	943.9	141084	141084
542.81	943.8	140886	140886
542.91	943.7	140214	140214
543.01	943.6	139838	139838
543.11	943.5	139230	139230
543.21	943.4	139255	139255
543.31	943.3	138987	138987
543.41	943.2	138268	138268
543.51	943.1	137747	137747
543.61	943	137954	137954
543.71	942.9	137053	137053
543.81	942.8	136102	136102
543.91	942.7	136035	136035
544.01	942.6	135578	135578
544.11	942.5	134896	134896
544.21	942.4	133256	133256
544.31	942.3	132756	132756
544.41	942.2	132267	132267
544.51	942.1	131258	131258
544.61	942	130890	130890
544.71	941.9	131023	131023
544.81	941.8	129397	129397
544.91	941.7	127694	127694
545.01	941.6	127805	127805
545.11	941.5	127299	127299
545.21	941.4	126522	126522
545.31	941.3	126253	126253
545.41	941.2	126050	126050
545.51	941.1	125975	125975
545.61	941	125618	125618
545.71	940.9	125662	125662
545.81	940.8	126028	126028
545.91	940.7	125212	125212
546.01	940.6	124921	124921
546.11	940.5	124990	124990
546.21	940.4	125064	125064
546.31	940.3	125247	125247
546.41	940.2	126056	126056
546.51	940.1	125473	125473
546.61	940	125237	125237
546.71	939.9	125103	125103
546.81	939.8	125474	125474
546.91	939.7	126321	126321
547.01	939.6	126520	126520
547.11	939.5	126573	126573
547.21	939.4	126084	126084
547.31	939.3	125299	125299
547.41	939.2	124723	124723
547.51	939.1	126178	126178
547.61	939	126569	126569
547.71	938.9	126576	126576
547.81	938.8	125999	125999
547.91	938.7	125475	125475
548.01	938.6	125662	125662
548.11	938.5	125706	125706
548.21	938.4	126228	126228
548.31	938.3	126045	126045
548.41	938.2	126656	126656
548.51	938.1	126236	126236
548.61	938	126394	126394
548.71	937.9	127216	127216
548.81	937.8	127691	127691
548.91	937.7	127582	127582
549.01	937.6	128295	128295
549.11	937.5	128822	128822
549.21	937.4	129281	129281
549.31	937.3	129711	129711
549.41	937.2	130552	130552
549.51	937.1	131306	131306
549.61	937	131535	131535
549.71	936.9	131692	131692
549.81	936.8	131485	131485
549.91	936.7	132194	132194
550.01	936.6	132816	132816
550.11	936.5	132594	132594
550.21	936.4	133164	133164
550.31	936.3	133117	133117
550.41	936.2	132888	132888
550.51	936.1	133772	133772
550.61	936	133857	133857
550.71	935.9	133569	133569
550.81	935.8	133729	133729
550.91	935.7	132980	132980
551.01	935.6	134288	134288
551.11	935.5	135388	135388
551.21	935.4	135943	135943
551.31	935.3	135687	135687
551.41	935.2	136053	136053
551.51	935.1	137160	137160
551.61	935	138852	138852
551.71	934.9	140032	140032
551.81	934.8	141534	141534
551.91	934.7	143840	143840
552.01	934.6	146269	146269
552.11	934.5	149703	149703
552.21	934.4	154025	154025
552.31	934.3	159230	159230
552.41	934.2	165296	165296
552.51	934.1	173261	173261
552.61	934	183734	183734
552.71	933.9	195803	195803
552.81	933.8	211787	211787
552.91	933.7	232343	232343
553.01	933.6	260297	260297
553.11	933.5	295713	295713
553.21	933.4	345147	345147
553.31	933.3	410110	410110
553.41	933.2	493949	493949
553.51	933.1	595870	595870
553.61	933	708061	708061
553.71	932.9	814373	814373
553.81	932.8	901920	901920
553.91	932.7	952082	952082
554.01	932.6	953438	953438
554.11	932.5	905679	905679
554.21	932.4	820728	820728
554.31	932.3	711814	711814
554.41	932.2	598369	598369
554.51	932.1	495019	495019
554.61	932	408957	408957
554.71	931.9	340433	340433
554.81	931.8	287157	287157
554.91	931.7	245782	245782
555.01	931.6	214750	214750
555.11	931.5	191011	191011
555.21	931.4	173894	173894
555.31	931.3	160190	160190
555.41	931.2	149084	149084
555.51	931.1	140641	140641
555.61	931	133975	133975
555.71	930.9	128789	128789
555.81	930.8	123549	123549
555.91	930.7	119150	119150
556.01	930.6	116007	116007
556.11	930.5	113004	113004
556.21	930.4	110129	110129
556.31	930.3	108474	108474
556.41	930.2	105973	105973
556.51	930.1	104337	104337
556.61	930	103033	103033
556.71	929.9	101935	101935
556.81	929.8	100337	100337
556.91	929.7	99529.9	99529.9
557.01	929.6	97464.9	97464.9
557.11	929.5	97182.8	97182.8
557.21	929.4	97142.4	97142.4
557.31	929.3	96201.1	96201.1
557.41	929.2	95682.3	95682.3
557.51	929.1	94410.1	94410.1
557.61	929	93496.8	93496.8
557.71	928.9	93108.1	93108.1
557.81	928.8	92756.2	92756.2
557.91	928.7	92135.8	92135.8
558.01	928.6	92359.1	92359.1
558.11	928.5	91932.1	91932.1
558.21	928.4	91280.7	91280.7
558.31	928.3	91104.8	91104.8
558.41	928.2	90334.5	90334.5
558.51	928.1	89814.4	89814.4
558.61	928	89757	89757
558.71	927.9	89855.8	89855.8
558.81	927.8	89709	89709
558.91	927.7	89272.4	89272.4
559.01	927.6	88980.7	88980.7
559.11	927.5	89102	89102
559.21	927.4	88829.6	88829.6
559.31	927.3	88605.6	88605.6
559.41	927.2	88387.3	88387.3
559.51	927.1	88193.7	88193.7
559.61	927	87638.1	87638.1
559.71	926.9	87580.5	87580.5
559.81	926.8	88028.1	88028.1
559.91	926.7	87967.5	87967.5
560.01	926.6	87482	87482
560.11	926.5	87644.9	87644.9
560.21	926.4	87279.4	87279.4
560.31	926.3	87148.7	87148.7
560.41	926.2	87224.4	87224.4
560.51	926.1	87361.5	87361.5
560.61	926	86942.1	86942.1
560.71	925.9	86725.3	86725.3
560.81	925.8	86790.3	86790.3
560.91	925.7	86376.2	86376.2
561.01	925.6	86515	86515
561.11	925.5	86801.5	86801.5
561.21	925.4	86593.1	86593.1
561.31	925.3	86153.5	86153.5
561.41	925.2	86784.7	86784.7
561.51	925.1	87035.7	87035.7
561.61	925	86297.6	86297.6
561.71	924.9	86163.8	86163.8
561.81	924.8	85870.6	85870.6
561.91	924.7	85714.5	85714.5
562.01	924.6	85880.3	85880.3
562.11	924.5	85899.4	85899.4
562.21	924.4	85708.4	85708.4
562.31	924.3	85969.7	85969.7
562.41	924.2	86134	86134
562.51	924.1	85991.7	85991.7
562.61	924	86056.1	86056.1
562.71	923.9	85690.2	85690.2
562.81	923.8	85275.4	85275.4
562.91	923.7	86222.1	86222.1
563.01	923.6	86255.3	86255.3
563.11	923.5	86164.1	86164.1
563.21	923.4	85898.7	85898.7
563.31	923.3	85954.6	85954.6
563.41	923.2	85236.1	85236.1
563.51	923.1	85172	85172
563.61	923	85779.6	85779.6
563.71	922.9	85433.3	85433.3
563.81	922.8	85581.1	85581.1
563.91	922.7	85474.9	85474.9
564.01	922.6	85668.2	85668.2
564.11	922.5	85605.4	85605.4
564.21	922.4	85515.6	85515.6
564.31	922.3	85227.4	85227.4
564.41	922.2	85310.9	85310.9
564.51	922.1	85447.9	85447.9
564.61	922	85709.9	85709.9
564.71	921.9	85757.8	85757.8
564.81	921.8	85555.8	85555.8
564.91	921.7	85231.1	85231.1
565.01	921.6	85491.7	85491.7
565.11	921.5	85676.5	85676.5
565.21	921.4	85401	85401
565.31	921.3	85270.5	85270.5
565.41	921.2	85532.7	85532.7
565.51	921.1	85995.4	85995.4
565.61	921	85797.1	85797.1
565.71	920.9	85562.6	85562.6
565.81	920.8	84710.6	84710.6
565.91	920.7	84871.8	84871.8
566.01	920.6	84897.1	84897.1
566.11	920.5	84961.6	84961.6
566.21	920.4	85693.3	85693.3
566.31	920.3	85555.7	85555.7
566.41	920.2	85383.5	85383.5
566.51	920.1	85283.1	85283.1
566.61	920	86050.7	86050.7