C:\Users\Mark\ownCloud\Muelheim Group\Projects\Gas phase background\EX320_CEC356_Cu in He.vms
Survey TF corrected
	Characteristic Energy eV	1486.61	Acquisition Time s	0.1
KE_Survey TF corrected	BE_Survey TF corrected	CPS_Survey TF corrected	Background_Survey TF corrected
295.61	1191	10374.7	10374.7
296.11	1190.5	10091.3	10091.3
296.61	1190	9590.71	9590.71
297.11	1189.5	9500.69	9500.69
297.61	1189	9965.86	9965.86
298.11	1188.5	10825.3	10825.3
298.61	1188	10378.7	10378.7
299.11	1187.5	9456.61	9456.61
299.61	1187	9048.11	9048.11
300.11	1186.5	10120.4	10120.4
300.61	1186	9676.65	9676.65
301.11	1185.5	9270.53	9270.53
301.61	1185	9564.96	9564.96
302.11	1184.5	9226.46	9226.46
302.61	1184	9897.82	9897.82
303.11	1183.5	10403	10403
303.61	1183	9449.13	9449.13
304.11	1182.5	9029.47	9029.47
304.61	1182	8095.22	8095.22
305.11	1181.5	9230.06	9230.06
305.61	1181	8841.24	8841.24
306.11	1180.5	7978.97	7978.97
306.61	1180	8512.81	8512.81
307.11	1179.5	9310.88	9310.88
307.61	1179	8156.75	8156.75
308.11	1178.5	9641.28	9641.28
308.61	1178	11009.4	11009.4
309.11	1177.5	9467.91	9467.91
309.61	1177	9068.53	9068.53
310.11	1176.5	8318.84	8318.84
310.61	1176	8809.49	8809.49
311.11	1175.5	9896.33	9896.33
311.61	1175	10405.8	10405.8
312.11	1174.5	9745.53	9745.53
312.61	1174	9773	9773
313.11	1173.5	9550.3	9550.3
313.61	1173	9748.48	9748.48
314.11	1172.5	8333.52	8333.52
314.61	1172	9797.68	9797.68
315.11	1171.5	8684.41	8684.41
315.61	1171	9811.38	9811.38
316.11	1170.5	9627.09	9627.09
316.61	1170	9202.27	9202.27
317.11	1169.5	9790.39	9790.39
317.61	1169	9325.69	9325.69
318.11	1168.5	9349.58	9349.58
318.61	1168	9734.19	9734.19
319.11	1167.5	10124.8	10124.8
319.61	1167	8963.15	8963.15
320.11	1166.5	9037.45	9037.45
320.61	1166	9290.64	9290.64
321.11	1165.5	9556.18	9556.18
321.61	1165	9695.81	9695.81
322.11	1164.5	10342	10342
322.61	1164	9144.47	9144.47
323.11	1163.5	9347.71	9347.71
323.61	1163	9570.95	9570.95
324.11	1162.5	10258.2	10258.2
324.61	1162	10288.3	10288.3
325.11	1161.5	8897.86	8897.86
325.61	1161	9958.69	9958.69
326.11	1160.5	9360.93	9360.93
326.61	1160	9647.91	9647.91
327.11	1159.5	9181.38	9181.38
327.61	1159	10047.4	10047.4
328.11	1158.5	10416.3	10416.3
328.61	1158	9061.45	9061.45
329.11	1157.5	9462.48	9462.48
329.61	1157	9495.66	9495.66
330.11	1156.5	9400.61	9400.61
330.61	1156	9579.89	9579.89
331.11	1155.5	10234.4	10234.4
331.61	1155	10553.3	10553.3
332.11	1154.5	10087.1	10087.1
332.61	1154	9369.56	9369.56
333.11	1153.5	8799.41	8799.41
333.61	1153	9314.6	9314.6
334.11	1152.5	9618.05	9618.05
334.61	1152	10518.8	10518.8
335.11	1151.5	9204.09	9204.09
335.61	1151	9494.23	9494.23
336.11	1150.5	9388.06	9388.06
336.61	1150	9385.21	9385.21
337.11	1149.5	9374.69	9374.69
337.61	1149	10043.7	10043.7
338.11	1148.5	10333.1	10333.1
338.61	1148	9173.29	9173.29
339.11	1147.5	9981.92	9981.92
339.61	1147	10209.6	10209.6
340.11	1146.5	10707.5	10707.5
340.61	1146	9936.31	9936.31
341.11	1145.5	9803.42	9803.42
341.61	1145	9523.24	9523.24
342.11	1144.5	10188.3	10188.3
342.61	1144	9740.84	9740.84
343.11	1143.5	9783.41	9783.41
343.61	1143	10402.1	10402.1
344.11	1142.5	9595.17	9595.17
344.61	1142	10441.3	10441.3
345.11	1141.5	9630.89	9630.89
345.61	1141	9473.97	9473.97
346.11	1140.5	9264.73	9264.73
346.61	1140	9657.48	9657.48
347.11	1139.5	10571.8	10571.8
347.61	1139	10284.4	10284.4
348.11	1138.5	11261	11261
348.61	1138	10674	10674
349.11	1137.5	9557.06	9557.06
349.61	1137	9791.7	9791.7
350.11	1136.5	10509.5	10509.5
350.61	1136	9379.78	9379.78
351.11	1135.5	9090.82	9090.82
351.61	1135	8662.08	8662.08
352.11	1134.5	10341.9	10341.9
352.61	1134	10224.1	10224.1
353.11	1133.5	9789.27	9789.27
353.61	1133	9519.47	9519.47
354.11	1132.5	10215.1	10215.1
354.61	1132	9382.77	9382.77
355.11	1131.5	10093	10093
355.61	1131	10733.7	10733.7
356.11	1130.5	11396	11396
356.61	1130	9779.04	9779.04
357.11	1129.5	10622.6	10622.6
357.61	1129	10466.7	10466.7
358.11	1128.5	10718.6	10718.6
358.61	1128	10471.9	10471.9
359.11	1127.5	10954.5	10954.5
359.61	1127	11433.4	11433.4
360.11	1126.5	10465.9	10465.9
360.61	1126	11274.9	11274.9
361.11	1125.5	11253.2	11253.2
361.61	1125	9917.62	9917.62
362.11	1124.5	11059.2	11059.2
362.61	1124	12217.6	12217.6
363.11	1123.5	11919.6	11919.6
363.61	1123	11702.2	11702.2
364.11	1122.5	10301.9	10301.9
364.61	1122	11052.9	11052.9
365.11	1121.5	10501	10501
365.61	1121	10910.7	10910.7
366.11	1120.5	11469.2	11469.2
366.61	1120	10994.3	10994.3
367.11	1119.5	10227.6	10227.6
367.61	1119	10234.1	10234.1
368.11	1118.5	10739.8	10739.8
368.61	1118	10948.2	10948.2
369.11	1117.5	11332.8	11332.8
369.61	1117	9652.85	9652.85
370.11	1116.5	10481.7	10481.7
370.61	1116	9349.41	9349.41
371.11	1115.5	9492.36	9492.36
371.61	1115	9477.85	9477.85
372.11	1114.5	10133.3	10133.3
372.61	1114	9664.61	9664.61
373.11	1113.5	8962.91	8962.91
373.61	1113	8329.46	8329.46
374.11	1112.5	8245.67	8245.67
374.61	1112	8310.49	8310.49
375.11	1111.5	9496.67	9496.67
375.61	1111	8950.05	8950.05
376.11	1110.5	8543.44	8543.44
376.61	1110	8661.19	8661.19
377.11	1109.5	8406.74	8406.74
377.61	1109	8541.06	8541.06
378.11	1108.5	8886.89	8886.89
378.61	1108	8223.04	8223.04
379.11	1107.5	7527.38	7527.38
379.61	1107	8347.23	8347.23
380.11	1106.5	8551.92	8551.92
380.61	1106	7817.56	7817.56
381.11	1105.5	7375.32	7375.32
381.61	1105	7184.47	7184.47
382.11	1104.5	7954.87	7954.87
382.61	1104	9612.56	9612.56
383.11	1103.5	9737.55	9737.55
383.61	1103	8528.42	8528.42
384.11	1102.5	9142.37	9142.37
384.61	1102	9700.22	9700.22
385.11	1101.5	10344.7	10344.7
385.61	1101	10237.5	10237.5
386.11	1100.5	10883.1	10883.1
386.61	1100	11725.2	11725.2
387.11	1099.5	12676.2	12676.2
387.61	1099	15229.9	15229.9
388.11	1098.5	16907.3	16907.3
388.61	1098	18006	18006
389.11	1097.5	19100.5	19100.5
389.61	1097	19518.8	19518.8
390.11	1096.5	19330.5	19330.5
390.61	1096	19400.7	19400.7
391.11	1095.5	18363.8	18363.8
391.61	1095	15657.3	15657.3
392.11	1094.5	13508.5	13508.5
392.61	1094	12402.4	12402.4
393.11	1093.5	11004.4	11004.4
393.61	1093	8723.64	8723.64
394.11	1092.5	7046.06	7046.06
394.61	1092	6809.66	6809.66
395.11	1091.5	5238.96	5238.96
395.61	1091	5387.33	5387.33
396.11	1090.5	3764.09	3764.09
396.61	1090	3442.05	3442.05
397.11	1089.5	2849.51	2849.51
397.61	1089	3785.43	3785.43
398.11	1088.5	3439.47	3439.47
398.61	1088	2097.78	2097.78
399.11	1087.5	2530.87	2530.87
399.61	1087	2274	2274
400.11	1086.5	1952.25	1952.25
400.61	1086	1419.81	1419.81
401.11	1085.5	1557.52	1557.52
401.61	1085	1310.94	1310.94
402.11	1084.5	320.951	320.951
402.61	1084	365.628	365.628
403.11	1083.5	768.601	768.601
403.61	1083	698.621	698.621
404.11	1082.5	1736.77	1736.77
404.61	1082	1213.26	1213.26
405.11	1081.5	370.116	370.116
405.61	1081	494.844	494.844