C:\Users\Mark\ownCloud\Muelheim Group\Projects\Gas phase background\EX320_CEC356_Cu in He.vms
Survey TF corrected
	Characteristic Energy eV	1486.61	Acquisition Time s	0.1
KE_Survey TF corrected	BE_Survey TF corrected	CPS_Survey TF corrected
1250.11	236.5	27199.7
1250.61	236	27370.8
1251.11	235.5	27205.5
1251.61	235	27024.4
1252.11	234.5	27334.8
1252.61	234	27319.3
1253.11	233.5	27533.8
1253.61	233	27999.8
1254.11	232.5	27724.6
1254.61	232	27470.6
1255.11	231.5	27612.9
1255.61	231	27674
1256.11	230.5	27779.3
1256.61	230	27976.7
1257.11	229.5	27977.9
1257.61	229	27596.9
1258.11	228.5	27646.5
1258.61	228	27966.2
1259.11	227.5	27947.4
1259.61	227	28010.4
1260.11	226.5	28161.9
1260.61	226	28314.7
1261.11	225.5	28004.4
1261.61	225	28019.3
1262.11	224.5	27895
1262.61	224	28111.9
1263.11	223.5	28354.2
1263.61	223	27964.4
1264.11	222.5	28235.1
1264.61	222	28016.2
1265.11	221.5	28163.5
1265.61	221	27909.6
1266.11	220.5	28179.4
1266.61	220	28255.6
1267.11	219.5	28190.4
1267.61	219	28219.6
1268.11	218.5	28185.7
1268.61	218	28187.8
1269.11	217.5	28544.4
1269.61	217	28426.8
1270.11	216.5	28720.3
1270.61	216	28559.1
1271.11	215.5	28631.7
1271.61	215	28726.3
1272.11	214.5	28276.3
1272.61	214	28388.5
1273.11	213.5	28380.6
1273.61	213	28792
1274.11	212.5	29035.3
1274.61	212	28749.7
1275.11	211.5	28717
1275.61	211	28694.4
1276.11	210.5	29024.5
1276.61	210	29305.3
1277.11	209.5	29107.4
1277.61	209	29089.2
1278.11	208.5	29060.2
1278.61	208	28833.9
1279.11	207.5	28741.6
1279.61	207	29085.5
1280.11	206.5	29495.7
1280.61	206	29305.9
1281.11	205.5	29450.6
1281.61	205	29402.8
1282.11	204.5	29201.6
1282.61	204	29220.7
1283.11	203.5	28952.4
1283.61	203	28946.3
1284.11	202.5	29535.2
1284.61	202	29566.6
1285.11	201.5	29739.2
1285.61	201	29788.1
1286.11	200.5	29822.9
1286.61	200	29566.9
1287.11	199.5	29421.7
1287.61	199	29860.5
1288.11	198.5	29692.3
1288.61	198	29907.1
1289.11	197.5	29797.2
1289.61	197	30055.1
1290.11	196.5	30055.5
1290.61	196	29867.1
1291.11	195.5	30097.6
1291.61	195	30142.6
1292.11	194.5	29820.4
1292.61	194	29949.6
1293.11	193.5	30049.2
1293.61	193	30111.1
1294.11	192.5	30361.3
1294.61	192	30792.5
1295.11	191.5	30089.3
1295.61	191	30050.3
1296.11	190.5	30338.1
1296.61	190	30453.8
1297.11	189.5	30729.6
1297.61	189	30525.9
1298.11	188.5	30410.3
1298.61	188	30514.1
1299.11	187.5	30865.6
1299.61	187	30932.6
1300.11	186.5	30841.4
1300.61	186	30778.2
1301.11	185.5	31015.2
1301.61	185	30989.2
1302.11	184.5	30913.5
1302.61	184	30872.5
1303.11	183.5	31303.9
1303.61	183	31481.2
1304.11	182.5	31339.2
1304.61	182	31249.5
1305.11	181.5	31588.4
1305.61	181	31750.9
1306.11	180.5	31524
1306.61	180	31553.4
1307.11	179.5	31602.3
1307.61	179	31513.5
1308.11	178.5	31336.4
1308.61	178	31725
1309.11	177.5	31990.5
1309.61	177	31700.9
1310.11	176.5	31975.1
1310.61	176	32318.3
1311.11	175.5	32031.5
1311.61	175	32199.1
1312.11	174.5	32182.4
1312.61	174	32181.6
1313.11	173.5	32339.2
1313.61	173	32952.2
1314.11	172.5	32592.5
1314.61	172	32735
1315.11	171.5	32849.4
1315.61	171	32614.1
1316.11	170.5	33272.9
1316.61	170	32987.5
1317.11	169.5	33133.8
1317.61	169	33216.9
1318.11	168.5	33440.4
1318.61	168	33405
1319.11	167.5	33260.9
1319.61	167	33294.5
1320.11	166.5	33363.5
1320.61	166	33002.9
1321.11	165.5	33615.9
1321.61	165	33723.5
1322.11	164.5	33694.9
1322.61	164	33577.1
1323.11	163.5	33786.8
1323.61	163	33953.1
1324.11	162.5	33852.9
1324.61	162	33984
1325.11	161.5	34149.6
1325.61	161	34260.5
1326.11	160.5	34583.4
1326.61	160	34454.6
1327.11	159.5	34387.4
1327.61	159	34519.3
1328.11	158.5	34926.3
1328.61	158	34848.8
1329.11	157.5	34731.5
1329.61	157	34948.2
1330.11	156.5	34908
1330.61	156	35312.6
1331.11	155.5	35200.3
1331.61	155	35460.5
1332.11	154.5	35733.8
1332.61	154	35820.8
1333.11	153.5	36060.8
1333.61	153	35714
1334.11	152.5	36256.4
1334.61	152	36274.9
1335.11	151.5	36513.6
1335.61	151	35861.9
1336.11	150.5	36584.4
1336.61	150	36656.6
1337.11	149.5	36623
1337.61	149	36957.5
1338.11	148.5	37124.1
1338.61	148	37166.3
1339.11	147.5	37395.3
1339.61	147	37538.8
1340.11	146.5	37392.4
1340.61	146	37533.6
1341.11	145.5	37794.6
1341.61	145	37770
1342.11	144.5	38218.2
1342.61	144	38726.1
1343.11	143.5	38490.9
1343.61	143	38653.1
1344.11	142.5	38608.4
1344.61	142	39115.2
1345.11	141.5	39390.4
1345.61	141	39075.4
1346.11	140.5	38982
1346.61	140	39314.8
1347.11	139.5	39642.1
1347.61	139	39482.5
1348.11	138.5	39354
1348.61	138	39489.7
1349.11	137.5	39193.6
1349.61	137	39426.5
1350.11	136.5	39633.6
1350.61	136	39820.3
1351.11	135.5	39711.1
1351.61	135	39919.5
1352.11	134.5	39786.6
1352.61	134	40039.8
1353.11	133.5	39838.2
1353.61	133	39904.3
1354.11	132.5	40329.1
1354.61	132	40626.9
1355.11	131.5	39783
1355.61	131	39902.7
1356.11	130.5	39792.1
1356.61	130	39701.7
1357.11	129.5	39937.8
1357.61	129	40257.2
1358.11	128.5	40725.3
1358.61	128	41189.4
1359.11	127.5	41866.3
1359.61	127	42276.9
1360.11	126.5	43904.5
1360.61	126	45573.9
1361.11	125.5	48433.8
1361.61	125	52670.2
1362.11	124.5	57990.7
1362.61	124	65457
1363.11	123.5	74273.3
1363.61	123	82073.4
1364.11	122.5	85759
1364.61	122	82942.6
1365.11	121.5	75096.7
1365.61	121	64439.3
1366.11	120.5	54462.1
1366.61	120	47294
1367.11	119.5	42876.9
1367.61	119	40238.5
1368.11	118.5	38334.3
1368.61	118	37314.9
1369.11	117.5	36440.4
1369.61	117	35789.2
1370.11	116.5	35218.4
1370.61	116	34860.9
1371.11	115.5	34111.1
1371.61	115	34456.6
1372.11	114.5	34541.5
1372.61	114	34156.5
1373.11	113.5	34552.2
1373.61	113	33984.6
1374.11	112.5	34139.6
1374.61	112	34656.4
1375.11	111.5	34635.1
1375.61	111	34596.8
1376.11	110.5	34730.4
1376.61	110	34907.5
1377.11	109.5	35025.2
1377.61	109	35053.7
1378.11	108.5	35147.1
1378.61	108	35285.1
1379.11	107.5	35830.4
1379.61	107	36332
1380.11	106.5	36400.5
1380.61	106	36904.8
1381.11	105.5	36767.2
1381.61	105	37661.1
1382.11	104.5	37983
1382.61	104	38159.3
1383.11	103.5	38555.4
1383.61	103	37983.8
1384.11	102.5	38472.4
1384.61	102	38604.6
1385.11	101.5	38497.2
1385.61	101	38692.5
1386.11	100.5	38853.9
1386.61	100	39062.1
1387.11	99.5	39167.4
1387.61	99	39843.3
1388.11	98.5	39759.6
1388.61	98	40002.6
1389.11	97.5	40391.5
1389.61	97	40525.1
1390.11	96.5	40833.8
1390.61	96	41034.3
1391.11	95.5	41002.2
1391.61	95	41123.4
1392.11	94.5	41154.4
1392.61	94	40488.6
1393.11	93.5	39577
1393.61	93	38897.2
1394.11	92.5	38298.6
1394.61	92	37831.4
1395.11	91.5	37467
1395.61	91	36957.1
1396.11	90.5	36896
1396.61	90	37085.8
1397.11	89.5	37048.4
1397.61	89	37503
1398.11	88.5	37309.8
1398.61	88	37174.8
1399.11	87.5	37277.6
1399.61	87	37042.3
1400.11	86.5	37453.5
1400.61	86	37081.5
1401.11	85.5	37204.8
1401.61	85	37274.6
1402.11	84.5	36848.2
1402.61	84	37573.1
1403.11	83.5	37526.1
1403.61	83	38007.2
1404.11	82.5	38750.3
1404.61	82	39736.7
1405.11	81.5	40750.9
1405.61	81	42811
1406.11	80.5	46498.3
1406.61	80	51337.6
1407.11	79.5	59144.8
1407.61	79	69553.2
1408.11	78.5	82539.4
1408.61	78	94632.4
1409.11	77.5	106067
1409.61	77	114154
1410.11	76.5	119978
1410.61	76	126348
1411.11	75.5	131992
1411.61	75	131414
1412.11	74.5	119194
1412.61	74	97257.5
1413.11	73.5	72375
1413.61	73	52721.7
1414.11	72.5	39597.2
1414.61	72	31326.9
1415.11	71.5	25293.3
1415.61	71	21030.9
1416.11	70.5	18295.1
1416.61	70	16379.3
1417.11	69.5	14618.7
1417.61	69	13557.6
1418.11	68.5	12681.3
1418.61	68	11989
1419.11	67.5	11230.5
1419.61	67	10716.2
1420.11	66.5	10277.3
1420.61	66	9963.12
1421.11	65.5	9727.65
1421.61	65	9450.55
1422.11	64.5	9151.3
1422.61	64	8879.87
1423.11	63.5	8883.07
1423.61	63	8816.6
1424.11	62.5	8717.98
1424.61	62	8576.69
1425.11	61.5	8554.5
1425.61	61	8311.63
1426.11	60.5	8050.79
1426.61	60	8264.36
1427.11	59.5	8214.97
1427.61	59	7974.07
1428.11	58.5	7904.11
1428.61	58	8019.25
1429.11	57.5	7993.61
1429.61	57	7954.72
1430.11	56.5	8114.6
1430.61	56	8125.8
1431.11	55.5	7705.54
1431.61	55	7893.09
1432.11	54.5	8205.22
1432.61	54	8018.88
1433.11	53.5	8003.4
1433.61	53	7861.88
1434.11	52.5	7865.02
1434.61	52	8038.04
1435.11	51.5	7972.57
1435.61	51	7810.15
1436.11	50.5	7858.88
1436.61	50	8038.26
1437.11	49.5	8129.43
1437.61	49	7992.98
1438.11	48.5	8155.51
1438.61	48	8163.43
1439.11	47.5	8083.81
1439.61	47	7910.71
1440.11	46.5	8136.23
1440.61	46	8311.25