C:\Users\Mark\ownCloud\Muelheim Group\Projects\Gas phase background\EX320_CEC356_Cu in He.vms
Survey TF corrected
	Characteristic Energy eV	1486.61	Acquisition Time s	0.1
KE_Survey TF corrected	BE_Survey TF corrected	CPS_Survey TF corrected	Background_Survey TF corrected
1250.11	236.5	24359.5	24359.5
1250.61	236	24721.6	24721.6
1251.11	235.5	24580.2	24580.2
1251.61	235	24560.6	24560.6
1252.11	234.5	24442.9	24442.9
1252.61	234	24656.9	24656.9
1253.11	233.5	24219.9	24219.9
1253.61	233	24620.2	24620.2
1254.11	232.5	24404	24404
1254.61	232	24774.5	24774.5
1255.11	231.5	24495.7	24495.7
1255.61	231	24711.2	24711.2
1256.11	230.5	24958.7	24958.7
1256.61	230	24695.1	24695.1
1257.11	229.5	24516.2	24516.2
1257.61	229	24776.8	24776.8
1258.11	228.5	24573.3	24573.3
1258.61	228	24561	24561
1259.11	227.5	24752.5	24752.5
1259.61	227	24907.7	24907.7
1260.11	226.5	24871.4	24871.4
1260.61	226	24763.9	24763.9
1261.11	225.5	24851.9	24851.9
1261.61	225	24805.7	24805.7
1262.11	224.5	24989.7	24989.7
1262.61	224	24738.6	24738.6
1263.11	223.5	25087.6	25087.6
1263.61	223	24797.8	24797.8
1264.11	222.5	24993.3	24993.3
1264.61	222	25170.4	25170.4
1265.11	221.5	25596.7	25596.7
1265.61	221	25323.3	25323.3
1266.11	220.5	25248.2	25248.2
1266.61	220	25018	25018
1267.11	219.5	25113.2	25113.2
1267.61	219	25165.6	25165.6
1268.11	218.5	25340.4	25340.4
1268.61	218	24842.6	24842.6
1269.11	217.5	25065.1	25065.1
1269.61	217	25397.2	25397.2
1270.11	216.5	25659.4	25659.4
1270.61	216	25559.5	25559.5
1271.11	215.5	25677.9	25677.9
1271.61	215	25611.8	25611.8
1272.11	214.5	25263.5	25263.5
1272.61	214	25449	25449
1273.11	213.5	25768.7	25768.7
1273.61	213	25809.3	25809.3
1274.11	212.5	25360.4	25360.4
1274.61	212	25456.6	25456.6
1275.11	211.5	25687.4	25687.4
1275.61	211	25615.4	25615.4
1276.11	210.5	25513.8	25513.8
1276.61	210	25787.8	25787.8
1277.11	209.5	25652.9	25652.9
1277.61	209	25627.8	25627.8
1278.11	208.5	25679.3	25679.3
1278.61	208	26026.3	26026.3
1279.11	207.5	26576.7	26576.7
1279.61	207	26387	26387
1280.11	206.5	26163	26163
1280.61	206	26324.3	26324.3
1281.11	205.5	26391.4	26391.4
1281.61	205	26292.5	26292.5
1282.11	204.5	26199.8	26199.8
1282.61	204	26162.4	26162.4
1283.11	203.5	26240.6	26240.6
1283.61	203	26307.5	26307.5
1284.11	202.5	26720.8	26720.8
1284.61	202	26517.4	26517.4
1285.11	201.5	26487.3	26487.3
1285.61	201	26834.1	26834.1
1286.11	200.5	26867.3	26867.3
1286.61	200	26584	26584
1287.11	199.5	26387.2	26387.2
1287.61	199	26471.9	26471.9
1288.11	198.5	26320.1	26320.1
1288.61	198	26660.8	26660.8
1289.11	197.5	26528.5	26528.5
1289.61	197	26600.4	26600.4
1290.11	196.5	26811.3	26811.3
1290.61	196	26689.3	26689.3
1291.11	195.5	26792.6	26792.6
1291.61	195	27034.5	27034.5
1292.11	194.5	27093.4	27093.4
1292.61	194	27101.1	27101.1
1293.11	193.5	26989.3	26989.3
1293.61	193	27093.7	27093.7
1294.11	192.5	27277.1	27277.1
1294.61	192	27177.6	27177.6
1295.11	191.5	27290.9	27290.9
1295.61	191	27642	27642
1296.11	190.5	27479.4	27479.4
1296.61	190	27414.1	27414.1
1297.11	189.5	27502	27502
1297.61	189	27349.8	27349.8
1298.11	188.5	27730.7	27730.7
1298.61	188	27592.6	27592.6
1299.11	187.5	27817.6	27817.6
1299.61	187	27673.2	27673.2
1300.11	186.5	27548.5	27548.5
1300.61	186	27664.1	27664.1
1301.11	185.5	27967.6	27967.6
1301.61	185	27886.7	27886.7
1302.11	184.5	28291.5	28291.5
1302.61	184	27819.9	27819.9
1303.11	183.5	28208.9	28208.9
1303.61	183	28565.7	28565.7
1304.11	182.5	28470.9	28470.9
1304.61	182	28189.4	28189.4
1305.11	181.5	28113.9	28113.9
1305.61	181	28558	28558
1306.11	180.5	28396.5	28396.5
1306.61	180	28087.2	28087.2
1307.11	179.5	28181.6	28181.6
1307.61	179	28829.1	28829.1
1308.11	178.5	28745.1	28745.1
1308.61	178	28625.7	28625.7
1309.11	177.5	28558.1	28558.1
1309.61	177	28893.8	28893.8
1310.11	176.5	28939.4	28939.4
1310.61	176	28920.2	28920.2
1311.11	175.5	29218	29218
1311.61	175	29222.9	29222.9
1312.11	174.5	29022	29022
1312.61	174	28998.6	28998.6
1313.11	173.5	29601.2	29601.2
1313.61	173	29274.5	29274.5
1314.11	172.5	29288.4	29288.4
1314.61	172	29233.7	29233.7
1315.11	171.5	28942.8	28942.8
1315.61	171	29281.4	29281.4
1316.11	170.5	29476.9	29476.9
1316.61	170	29664.7	29664.7
1317.11	169.5	29605.5	29605.5
1317.61	169	30075.3	30075.3
1318.11	168.5	29978.3	29978.3
1318.61	168	29957.3	29957.3
1319.11	167.5	29981.1	29981.1
1319.61	167	30112.4	30112.4
1320.11	166.5	30221.2	30221.2
1320.61	166	29989.9	29989.9
1321.11	165.5	29959.3	29959.3
1321.61	165	30222.2	30222.2
1322.11	164.5	30333.4	30333.4
1322.61	164	30168	30168
1323.11	163.5	30843.5	30843.5
1323.61	163	30768.5	30768.5
1324.11	162.5	30861.4	30861.4
1324.61	162	30708.7	30708.7
1325.11	161.5	30885	30885
1325.61	161	30913.9	30913.9
1326.11	160.5	31129.1	31129.1
1326.61	160	31231.7	31231.7
1327.11	159.5	31793.8	31793.8
1327.61	159	30971.3	30971.3
1328.11	158.5	31141.2	31141.2
1328.61	158	31663.6	31663.6
1329.11	157.5	31611.1	31611.1
1329.61	157	31650	31650
1330.11	156.5	31256.7	31256.7
1330.61	156	31559.8	31559.8
1331.11	155.5	32042	32042
1331.61	155	31993	31993
1332.11	154.5	31927.5	31927.5
1332.61	154	32021.1	32021.1
1333.11	153.5	32630.1	32630.1
1333.61	153	32234.1	32234.1
1334.11	152.5	32248.8	32248.8
1334.61	152	32342.6	32342.6
1335.11	151.5	32775.1	32775.1
1335.61	151	32429.4	32429.4
1336.11	150.5	32862.5	32862.5
1336.61	150	33030.7	33030.7
1337.11	149.5	32972.6	32972.6
1337.61	149	33055.7	33055.7
1338.11	148.5	33344.3	33344.3
1338.61	148	33721.3	33721.3
1339.11	147.5	33672.4	33672.4
1339.61	147	33746.1	33746.1
1340.11	146.5	33398.2	33398.2
1340.61	146	33775.3	33775.3
1341.11	145.5	34219.7	34219.7
1341.61	145	34300.4	34300.4
1342.11	144.5	34528.3	34528.3
1342.61	144	34723.2	34723.2
1343.11	143.5	35053.2	35053.2
1343.61	143	34644.4	34644.4
1344.11	142.5	34399.4	34399.4
1344.61	142	34452.7	34452.7
1345.11	141.5	34254.6	34254.6
1345.61	141	34069.9	34069.9
1346.11	140.5	34146.5	34146.5
1346.61	140	33790.4	33790.4
1347.11	139.5	33576.8	33576.8
1347.61	139	33626	33626
1348.11	138.5	33871.5	33871.5
1348.61	138	33851.1	33851.1
1349.11	137.5	33879.1	33879.1
1349.61	137	34037	34037
1350.11	136.5	34037.8	34037.8
1350.61	136	34209.4	34209.4
1351.11	135.5	34263.2	34263.2
1351.61	135	33982.9	33982.9
1352.11	134.5	33964.5	33964.5
1352.61	134	33792.9	33792.9
1353.11	133.5	33982	33982
1353.61	133	34418.1	34418.1
1354.11	132.5	34544.1	34544.1
1354.61	132	34450.9	34450.9
1355.11	131.5	34538.4	34538.4
1355.61	131	34907.2	34907.2
1356.11	130.5	34420.2	34420.2
1356.61	130	33629.1	33629.1
1357.11	129.5	34146	34146
1357.61	129	34637.8	34637.8
1358.11	128.5	34571.8	34571.8
1358.61	128	35389.7	35389.7
1359.11	127.5	35877.9	35877.9
1359.61	127	36296.2	36296.2
1360.11	126.5	37159.7	37159.7
1360.61	126	38379.6	38379.6
1361.11	125.5	40421.7	40421.7
1361.61	125	43092.4	43092.4
1362.11	124.5	47297.7	47297.7
1362.61	124	52607.9	52607.9
1363.11	123.5	59117.2	59117.2
1363.61	123	64908.9	64908.9
1364.11	122.5	67697.1	67697.1
1364.61	122	65952.5	65952.5
1365.11	121.5	59827.5	59827.5
1365.61	121	51527.2	51527.2
1366.11	120.5	44299.6	44299.6
1366.61	120	40048.3	40048.3
1367.11	119.5	36587.4	36587.4
1367.61	119	35038.6	35038.6
1368.11	118.5	33498.6	33498.6
1368.61	118	32285.4	32285.4
1369.11	117.5	31504.9	31504.9
1369.61	117	30993.7	30993.7
1370.11	116.5	30938.7	30938.7
1370.61	116	30170.8	30170.8
1371.11	115.5	30642.3	30642.3
1371.61	115	30647.7	30647.7
1372.11	114.5	29727.8	29727.8
1372.61	114	30033.7	30033.7
1373.11	113.5	30427.5	30427.5
1373.61	113	29879.1	29879.1
1374.11	112.5	29653	29653
1374.61	112	29785.6	29785.6
1375.11	111.5	30301.7	30301.7
1375.61	111	30390.4	30390.4
1376.11	110.5	30856.8	30856.8
1376.61	110	30666.5	30666.5
1377.11	109.5	30627	30627
1377.61	109	30650.1	30650.1
1378.11	108.5	30764.8	30764.8
1378.61	108	30648.4	30648.4
1379.11	107.5	31727.9	31727.9
1379.61	107	31970.7	31970.7
1380.11	106.5	31988.2	31988.2
1380.61	106	32162.7	32162.7
1381.11	105.5	32735.1	32735.1
1381.61	105	32833.5	32833.5
1382.11	104.5	32744.3	32744.3
1382.61	104	33604.7	33604.7
1383.11	103.5	33738.5	33738.5
1383.61	103	33943.2	33943.2
1384.11	102.5	34000.4	34000.4
1384.61	102	34102.8	34102.8
1385.11	101.5	33856.4	33856.4
1385.61	101	34363.6	34363.6
1386.11	100.5	34309	34309
1386.61	100	34984.7	34984.7
1387.11	99.5	34974.1	34974.1
1387.61	99	34647.9	34647.9
1388.11	98.5	35863.1	35863.1
1388.61	98	35730.1	35730.1
1389.11	97.5	35458.4	35458.4
1389.61	97	35387.6	35387.6
1390.11	96.5	35127.6	35127.6
1390.61	96	35213.4	35213.4
1391.11	95.5	34506.3	34506.3
1391.61	95	33507.7	33507.7
1392.11	94.5	32414.2	32414.2
1392.61	94	31474.1	31474.1
1393.11	93.5	30622.2	30622.2
1393.61	93	30090.3	30090.3
1394.11	92.5	29461.1	29461.1
1394.61	92	29070.7	29070.7
1395.11	91.5	29156	29156
1395.61	91	28599.1	28599.1
1396.11	90.5	28191.9	28191.9
1396.61	90	28401.2	28401.2
1397.11	89.5	28269.4	28269.4
1397.61	89	28193.3	28193.3
1398.11	88.5	28308.2	28308.2
1398.61	88	28259	28259
1399.11	87.5	28479.9	28479.9
1399.61	87	28054.8	28054.8
1400.11	86.5	28288.3	28288.3
1400.61	86	27918.6	27918.6
1401.11	85.5	27918.5	27918.5
1401.61	85	28228.4	28228.4
1402.11	84.5	28195.9	28195.9
1402.61	84	28308.8	28308.8
1403.11	83.5	28727.1	28727.1
1403.61	83	28504.8	28504.8
1404.11	82.5	29193.8	29193.8
1404.61	82	29994.3	29994.3
1405.11	81.5	30900.6	30900.6
1405.61	81	32454.4	32454.4
1406.11	80.5	35258.1	35258.1
1406.61	80	38690.7	38690.7
1407.11	79.5	43545	43545
1407.61	79	51473.4	51473.4
1408.11	78.5	61011.7	61011.7
1408.61	78	70338.1	70338.1
1409.11	77.5	78140.4	78140.4
1409.61	77	84009.8	84009.8
1410.11	76.5	87870.5	87870.5
1410.61	76	92676.6	92676.6
1411.11	75.5	97495.8	97495.8
1411.61	75	95993	95993
1412.11	74.5	86999.3	86999.3
1412.61	74	71256.4	71256.4
1413.11	73.5	54981.2	54981.2
1413.61	73	40137.3	40137.3
1414.11	72.5	30296.2	30296.2
1414.61	72	23704.1	23704.1
1415.11	71.5	19328.1	19328.1
1415.61	71	16632.6	16632.6
1416.11	70.5	14642.4	14642.4
1416.61	70	12983.6	12983.6
1417.11	69.5	12133.4	12133.4
1417.61	69	11551.3	11551.3
1418.11	68.5	10539.1	10539.1
1418.61	68	9895.17	9895.17
1419.11	67.5	9401.66	9401.66
1419.61	67	8866.7	8866.7
1420.11	66.5	8694.79	8694.79
1420.61	66	8352.41	8352.41
1421.11	65.5	8415	8415
1421.61	65	8243.67	8243.67
1422.11	64.5	8130.47	8130.47
1422.61	64	7751.81	7751.81
1423.11	63.5	7695.55	7695.55
1423.61	63	7631.5	7631.5
1424.11	62.5	7555.83	7555.83
1424.61	62	7479.56	7479.56
1425.11	61.5	7553.22	7553.22
1425.61	61	7508.22	7508.22
1426.11	60.5	7479.96	7479.96
1426.61	60	7432.5	7432.5
1427.11	59.5	7324.74	7324.74
1427.61	59	7186.91	7186.91
1428.11	58.5	7077.11	7077.11
1428.61	58	7206.28	7206.28
1429.11	57.5	7162.8	7162.8
1429.61	57	7141.29	7141.29
1430.11	56.5	7249.86	7249.86
1430.61	56	7210.31	7210.31
1431.11	55.5	7106.18	7106.18
1431.61	55	7198.68	7198.68
1432.11	54.5	7171.24	7171.24
1432.61	54	7366.18	7366.18
1433.11	53.5	7254.1	7254.1
1433.61	53	7261.41	7261.41
1434.11	52.5	7279.78	7279.78
1434.61	52	7353.28	7353.28
1435.11	51.5	7433.09	7433.09
1435.61	51	7426.54	7426.54
1436.11	50.5	7182.65	7182.65
1436.61	50	7281.15	7281.15
1437.11	49.5	7346.98	7346.98
1437.61	49	7293.99	7293.99
1438.11	48.5	7436.16	7436.16
1438.61	48	7465.51	7465.51
1439.11	47.5	7300.46	7300.46
1439.61	47	7285.24	7285.24
1440.11	46.5	7317.32	7317.32
1440.61	46	7332.57	7332.57