VAMAS Surface Chemical Analysis Standard Data Transfer Format 1988 May 4
Not Specified
Not Specified
Not Specified
Not Specified
9
Casa Info Follows CasaXPS Version 2.3.20rev1.2G
0
Created by SpecsLab Prodigy, Version 4.63.4-r87993 
SourceAnalyserAngle: 56.500000 d
CasaRowLabel:Cu in vacuum
CasaRowLabel:Cu in vacuum, short shirley
CasaRowLabel:Cu in vacuum. long shirley
CasaRowLabel:Cu in vacuum, short shirley, background subtr.
CasaRowLabel:Cu in vacuum. long shirley, background subtr.
NORM
REGULAR
1
1
Exp Variable
d
0
0
0
0
5
Cu2p
Cu in vacuum
2020
3
8
23
38
57
0
14
Casa Info Follows
0
0
0
0
EX340_CEC356_effect of lens modes.sle
Group = Cu in vacuum
First of group = 0
Analyzer lens = LargeArea:1.5kV
Analyzer slit = 4:7x20c\C:mesh
Scan mode = FixedAnalyzerTransmission
Kinetic energy start = 456.61
Sum of 20 spectra in column containing 20 scans
C:\Users\pielsticker\Lukas\MPI-CEC\Projects\Gas phase background\inelasticscattering\data\N2\Au, Ag, Cu in N2.vms
XPS
1
Al
1486.61
0
0
0
54.5
180
FAT
20
1
4.156
0
0
0
0
0
Cu2p

-1
kinetic energy
eV
456.61
0.1
2
counts
d
Transmission
d
pulse counting
3
1
0
0
0
0
2
ESCAPE DEPTH TYPE
d
0
MFP Exponent
d
0
2202
1420.77
17475.4
3.64711
4.06635
49871.4
4.06635
49982.7
4.0659
50035.1
4.06545
49899.9
4.065
49667.9
4.06455
50024.1
4.0641
50455.1
4.06366
50225.6
4.06321
50118.8
4.06276
50213.5
4.06231
50049
4.06186
49901.7
4.06142
50164.6
4.06097
49865.2
4.06052
50278.7
4.06007
50161.8
4.05963
50177.1
4.05918
50251.3
4.05873
50010.9
4.05829
49955.2
4.05784
50059.5
4.05739
50395
4.05695
50456.6
4.0565
50442
4.05605
50430.4
4.05561
50288.6
4.05516
50315.1
4.05472
50534.3
4.05427
50194.5
4.05383
50403
4.05338
50175.4
4.05294
50232.9
4.05249
50577
4.05205
50750.1
4.0516
50169.7
4.05116
50497
4.05071
50617.4
4.05027
50524.8
4.04982
50397.6
4.04938
50408.3
4.04894
50441.3
4.04849
50313.3
4.04805
50414.1
4.04761
50470.6
4.04716
50837.2
4.04672
50530.4
4.04628
50238.9
4.04584
50318.1
4.04539
50471.4
4.04495
50700.5
4.04451
50673.4
4.04407
50869.6
4.04362
50784.8
4.04318
50672.4
4.04274
50492.2
4.0423
50322.6
4.04186
50763.2
4.04142
50762.7
4.04098
50853.5
4.04053
50924.3
4.04009
50625.3
4.03965
50764.7
4.03921
51011
4.03877
50706.6
4.03833
50797.5
4.03789
50987
4.03745
50858.6
4.03701
50959.7
4.03657
51051
4.03613
50821.1
4.03569
51057.6
4.03525
50534.8
4.03482
50732.4
4.03438
50756.7
4.03394
50870.5
4.0335
50824.3
4.03306
50952.4
4.03262
50775.6
4.03218
50592.7
4.03175
50852.4
4.03131
50740.3
4.03087
51098.6
4.03043
51262.9
4.03
51352.3
4.02956
51119.7
4.02912
51311.4
4.02868
51504.4
4.02825
51301.1
4.02781
51095.4
4.02737
51191.7
4.02694
51047.3
4.0265
51022
4.02606
50970.7
4.02563
50998
4.02519
51102.7
4.02476
51342.1
4.02432
51268.1
4.02389
51457.9
4.02345
51192.8
4.02301
50872
4.02258
50875.8
4.02214
51602.6
4.02171
51610.5
4.02128
51667.9
4.02084
51495.6
4.02041
51221
4.01997
51604.7
4.01954
51470.9
4.0191
51836.2
4.01867
51678.1
4.01824
51228.2
4.0178
51512.8
4.01737
51828.1
4.01694
51678.8
4.0165
51506.7
4.01607
51714.8
4.01564
51848.3
4.0152
51273.7
4.01477
51597.9
4.01434
51819.3
4.01391
51651.5
4.01348
51697.5
4.01304
51430.8
4.01261
51739.4
4.01218
51632.8
4.01175
51485.1
4.01132
51832.8
4.01089
51878.3
4.01045
51669.6
4.01002
51959.1
4.00959
51687.1
4.00916
51704.4
4.00873
51985.1
4.0083
52094.1
4.00787
51799.2
4.00744
51765.8
4.00701
52086.4
4.00658
51947.3
4.00615
51671.4
4.00572
52117.3
4.00529
52143.8
4.00486
51705.3
4.00443
51976.2
4.004
52133.1
4.00357
52085.1
4.00315
51913.7
4.00272
52216.8
4.00229
51902.1
4.00186
52020.1
4.00143
51838.8
4.001
51984
4.00058
52389.5
4.00015
51986.7
3.99972
52341
3.99929
52346
3.99887
52295.8
3.99844
52151.6
3.99801
51912.3
3.99758
52116.3
3.99716
52251.5
3.99673
52231.2
3.9963
52235.1
3.99588
52379.3
3.99545
52347.9
3.99502
52654.5
3.9946
52511.5
3.99417
52230.2
3.99375
52296.1
3.99332
52169.6
3.9929
52272.9
3.99247
52249.4
3.99204
52666.4
3.99162
52576.5
3.99119
52590.9
3.99077
52691.8
3.99035
52688.7
3.98992
52577.3
3.9895
52246.5
3.98907
52837.9
3.98865
52726.1
3.98822
52751.8
3.9878
52682.6
3.98738
53017.3
3.98695
52699.7
3.98653
52669.3
3.98611
52830.7
3.98568
52718.4
3.98526
52952.3
3.98484
52585.3
3.98441
52744.2
3.98399
53022.6
3.98357
52692.9
3.98315
52838.8
3.98272
52739.3
3.9823
52814.3
3.98188
53077.2
3.98146
52766
3.98104
52601.8
3.98061
52692.1
3.98019
52611.7
3.97977
52827.6
3.97935
52756.9
3.97893
53099.2
3.97851
53340.8
3.97809
52801
3.97767
53207.6
3.97725
53031.8
3.97683
53102.4
3.97641
53159.1
3.97599
53154
3.97557
53213.6
3.97515
53409.4
3.97473
53096.5
3.97431
52991.7
3.97389
53216.5
3.97347
53515.1
3.97305
53305.9
3.97263
53289.7
3.97221
53145.3
3.97179
53160.7
3.97137
53257.8
3.97095
53260.6
3.97054
53106.6
3.97012
53545.1
3.9697
53188.9
3.96928
53140.9
3.96886
53300.8
3.96845
53556.6
3.96803
53532.6
3.96761
53589.8
3.96719
53658.4
3.96678
53559.9
3.96636
53514.7
3.96594
53355
3.96553
53279
3.96511
53723.9
3.96469
53586
3.96428
53629.4
3.96386
53482.1
3.96344
53539.6
3.96303
53083.2
3.96261
53552.6
3.9622
53718.4
3.96178
53683
3.96136
53766.8
3.96095
53466.3
3.96053
53367
3.96012
53687.1
3.9597
53807.2
3.95929
53829.1
3.95887
53954.8
3.95846
53984.8
3.95804
54016.6
3.95763
53689.5
3.95722
53796.3
3.9568
54231.8
3.95639
53991
3.95597
54033.4
3.95556
54104.5
3.95515
54096.2
3.95473
53606.6
3.95432
53716.3
3.95391
54006.2
3.95349
54333
3.95308
54105.9
3.95267
54221.8
3.95226
54298
3.95184
53925
3.95143
54312.8
3.95102
54393.6
3.95061
54321.9
3.95019
54449
3.94978
54296
3.94937
54567.8
3.94896
54418.4
3.94855
54334.5
3.94814
54548.4
3.94773
54218.6
3.94731
54618.7
3.9469
54592.1
3.94649
54677.1
3.94608
54494.2
3.94567
54349.3
3.94526
54846.3
3.94485
54966.4
3.94444
54783.2
3.94403
54294.6
3.94362
54722.1
3.94321
54910.1
3.9428
54461
3.94239
54405.4
3.94198
54691.3
3.94157
54723.1
3.94116
54793.4
3.94075
54834.5
3.94034
54854.8
3.93994
54751.5
3.93953
55058.5
3.93912
55000.3
3.93871
55209.4
3.9383
55185.5
3.93789
55114.5
3.93749
54930.1
3.93708
54973.4
3.93667
54948.5
3.93626
54931.7
3.93585
54855.5
3.93545
55127.3
3.93504
55031.9
3.93463
55392.7
3.93423
55177.9
3.93382
55311.5
3.93341
55346.4
3.93301
55612.7
3.9326
55064.5
3.93219
55387.8
3.93179
55496.5
3.93138
55638.6
3.93097
55421.1
3.93057
55190.6
3.93016
55918.8
3.92976
55595.8
3.92935
55484.4
3.92895
55330.5
3.92854
55429.6
3.92814
55596.8
3.92773
55579.7
3.92733
55851.2
3.92692
55749.1
3.92652
55787
3.92611
55518.6
3.92571
55395.3
3.9253
55388.8
3.9249
55623.9
3.92449
55655.5
3.92409
55596.3
3.92369
55608.6
3.92328
55346.8
3.92288
55920.7
3.92248
56097.7
3.92207
56394.6
3.92167
55821.5
3.92127
55672.2
3.92086
55942.9
3.92046
56028.3
3.92006
56014.5
3.91966
56221.6
3.91925
56364.8
3.91885
56008.7
3.91845
56068.3
3.91805
56180.1
3.91765
55961.7
3.91724
56109.3
3.91684
56264.9
3.91644
56150.7
3.91604
55990.1
3.91564
55973.8
3.91524
56137.7
3.91484
55940.9
3.91443
56221.4
3.91403
56381
3.91363
56202.6
3.91323
56025.9
3.91283
56266
3.91243
56379.8
3.91203
56452.7
3.91163
56248.4
3.91123
56604
3.91083
56252.4
3.91043
55900.2
3.91003
56013.8
3.90963
55979.5
3.90923
56287.7
3.90883
56516.5
3.90844
56562.1
3.90804
56598.1
3.90764
56345.9
3.90724
56298
3.90684
55956.3
3.90644
56293.4
3.90604
56623.6
3.90565
56311.1
3.90525
56260
3.90485
56279.3
3.90445
56773.8
3.90405
56511.9
3.90366
56614.2
3.90326
56566.7
3.90286
56942.9
3.90246
56356.4
3.90207
56733.2
3.90167
56627.4
3.90127
56797.4
3.90088
56440
3.90048
56702.6
3.90008
56698.7
3.89969
57020.6
3.89929
56591.3
3.89889
56841
3.8985
57141.9
3.8981
57147.3
3.89771
56492.9
3.89731
56519.4
3.89692
56740
3.89652
57065.9
3.89612
56731.9
3.89573
56705.9
3.89533
57038.7
3.89494
56841.7
3.89454
57285.4
3.89415
57319.8
3.89375
56999.7
3.89336
56911.5
3.89297
57208.6
3.89257
57324.7
3.89218
57168.5
3.89178
57357.3
3.89139
56941.6
3.891
57215.6
3.8906
57241
3.89021
57394.4
3.88982
57155.2
3.88942
57417.3
3.88903
57063.7
3.88864
57191.2
3.88824
57247.7
3.88785
57084.8
3.88746
57292.8
3.88706
57173.4
3.88667
57624.1
3.88628
57537.3
3.88589
57682.9
3.8855
57838.2
3.8851
57799.1
3.88471
57718
3.88432
57570
3.88393
57642
3.88354
57910
3.88315
58048.9
3.88275
57691.6
3.88236
58456
3.88197
57541
3.88158
57758.4
3.88119
58123.1
3.8808
58131.6
3.88041
57693.3
3.88002
57963.1
3.87963
57975.7
3.87924
58007.3
3.87885
58210.8
3.87846
58107.4
3.87807
57728.3
3.87768
57985.6
3.87729
58259.6
3.8769
57820.5
3.87651
57683.2
3.87612
57816.9
3.87573
58302.7
3.87534
58328.5
3.87495
58397.9
3.87457
58191.3
3.87418
58162.8
3.87379
58226.3
3.8734
58943
3.87301
58563.2
3.87262
58433.7
3.87224
58584.2
3.87185
58687
3.87146
58801.5
3.87107
59178
3.87068
58980.3
3.8703
58743.9
3.86991
58785.1
3.86952
58779.1
3.86913
58929.1
3.86875
58846.4
3.86836
59303
3.86797
58589.8
3.86759
59031.4
3.8672
59224.1
3.86681
58982.9
3.86643
59095.1
3.86604
58841.6
3.86566
59481.6
3.86527
59552.8
3.86488
59333
3.8645
59232.5
3.86411
59381.1
3.86373
59512.6
3.86334
59381.3
3.86296
59578.8
3.86257
59658.6
3.86219
59656.5
3.8618
59672.4
3.86142
59674.3
3.86103
60199.9
3.86065
59657.4
3.86026
59506.4
3.85988
59870.3
3.85949
60032.3
3.85911
59955
3.85872
60039
3.85834
59970.7
3.85796
60027.4
3.85757
60036.3
3.85719
60121.4
3.85681
60325.7
3.85642
60354.2
3.85604
60196.8
3.85566
60338
3.85527
60108.1
3.85489
60122.8
3.85451
60259.9
3.85413
60615.1
3.85374
60482.1
3.85336
60346.9
3.85298
60619.5
3.8526
60481
3.85221
60597.5
3.85183
60654.3
3.85145
60386.7
3.85107
60221.5
3.85069
60672.6
3.8503
61046
3.84992
60939.5
3.84954
60598.4
3.84916
60746.8
3.84878
60904.6
3.8484
60343.6
3.84802
60870.7
3.84764
61031
3.84726
61231.2
3.84688
60674
3.8465
60922.7
3.84612
61015.4
3.84574
61271.4
3.84535
60986.4
3.84497
61283.4
3.8446
61288.4
3.84422
61035.6
3.84384
61383.9
3.84346
61245.3
3.84308
61404
3.8427
61370.1
3.84232
61461.1
3.84194
61588.3
3.84156
61651.1
3.84118
61597.3
3.8408
61721.3
3.84042
61897.5
3.84005
61544.3
3.83967
61931.4
3.83929
61782.6
3.83891
61594.4
3.83853
61870.2
3.83815
62295.3
3.83778
62221.4
3.8374
61605.4
3.83702
61729
3.83664
62179.5
3.83627
62066.9
3.83589
62534.2
3.83551
62397.5
3.83514
62834
3.83476
62505.1
3.83438
62637.6
3.83401
62008.2
3.83363
62437
3.83325
62341.4
3.83288
62371
3.8325
62292
3.83212
62294.1
3.83175
62490.5
3.83137
62240.4
3.831
62494.4
3.83062
62482.9
3.83024
62457
3.82987
62413.5
3.82949
62399.1
3.82912
62203
3.82874
62229.7
3.82837
62240
3.82799
62085.9
3.82762
62297.6
3.82724
61981.2
3.82687
62093.4
3.82649
62394.5
3.82612
62124.4
3.82575
62511.6
3.82537
62005.5
3.825
62248.5
3.82462
62101.7
3.82425
61942.8
3.82388
62267.4
3.8235
62241.3
3.82313
62229.9
3.82276
62053.7
3.82238
62152.4
3.82201
62224.1
3.82164
62106.3
3.82126
62267.9
3.82089
62121.5
3.82052
62334.7
3.82014
62144.3
3.81977
62200.3
3.8194
62185.8
3.81903
62487.2
3.81865
61822.6
3.81828
61778.9
3.81791
61994.9
3.81754
62227.2
3.81717
62292.3
3.8168
62185
3.81642
62014.7
3.81605
61965.4
3.81568
61970.2
3.81531
61800.9
3.81494
61717.9
3.81457
62077.1
3.8142
62040.1
3.81383
61873.6
3.81346
61582
3.81308
61726.3
3.81271
61726.3
3.81234
61564.6
3.81197
61514.4
3.8116
61809
3.81123
61731.8
3.81086
61578.7
3.81049
61376.5
3.81012
62006.8
3.80975
61754.9
3.80939
61849.4
3.80902
61934.7
3.80865
61854.6
3.80828
62223.8
3.80791
61929.4
3.80754
62185.1
3.80717
62039.2
3.8068
62176.5
3.80643
61813.2
3.80606
62238.1
3.8057
62265.6
3.80533
62215.5
3.80496
62284.7
3.80459
62597.7
3.80422
62589.7
3.80386
62443
3.80349
62785.6
3.80312
62553.9
3.80275
62722.3
3.80238
62618
3.80202
62583
3.80165
62537.1
3.80128
62562.5
3.80092
62638.9
3.80055
62398.3
3.80018
62526
3.79982
62428.7
3.79945
62082.6
3.79908
61917.3
3.79872
61625.6
3.79835
61456.9
3.79798
61508
3.79762
60908.3
3.79725
60582.9
3.79689
60233.4
3.79652
60799.1
3.79615
60613.8
3.79579
60147.2
3.79542
60227.3
3.79506
60307.8
3.79469
60250.2
3.79433
60138.3
3.79396
59882.1
3.7936
59667
3.79323
59455.9
3.79287
59233.5
3.7925
59128.5
3.79214
59397.4
3.79177
59179.3
3.79141
59486.5
3.79105
59531
3.79068
59052.1
3.79032
59060
3.78995
59036.1
3.78959
58959.7
3.78923
59173.1
3.78886
59460.5
3.7885
59245.4
3.78814
59509.2
3.78777
59172.6
3.78741
59145.5
3.78705
59435.5
3.78668
59148.1
3.78632
59224.8
3.78596
59497.8
3.7856
59411.3
3.78523
59359.8
3.78487
60000.8
3.78451
59423.1
3.78415
59099.8
3.78378
59493.4
3.78342
59613.9
3.78306
60078.6
3.7827
59789
3.78234
60202.3
3.78198
60146
3.78161
60149.4
3.78125
60035.2
3.78089
59874.8
3.78053
59958.8
3.78017
59761.5
3.77981
59867.9
3.77945
60071.7
3.77909
60274.5
3.77873
59941.4
3.77837
59729.3
3.778
60588.6
3.77764
60669.8
3.77728
60972.1
3.77692
60589.8
3.77656
60778.9
3.7762
61079.3
3.77584
60954.4
3.77548
61117.7
3.77512
61178.8
3.77477
61134.8
3.77441
61306.5
3.77405
61660.8
3.77369
61686.7
3.77333
61815.5
3.77297
62225.3
3.77261
62350.6
3.77225
62405
3.77189
63019.7
3.77153
62461.7
3.77118
62705.6
3.77082
63268
3.77046
63468.3
3.7701
63314.3
3.76974
63809.4
3.76938
64154.3
3.76903
64395.6
3.76867
64785
3.76831
64770
3.76795
65307.1
3.7676
65767.7
3.76724
65936.8
3.76688
66466.5
3.76652
67093.9
3.76617
68108.2
3.76581
68518.1
3.76545
69088.5
3.7651
70245.9
3.76474
71248.8
3.76438
72744.5
3.76403
74002.1
3.76367
75598.9
3.76331
77504
3.76296
79516.1
3.7626
82299.6
3.76225
85202
3.76189
88426.5
3.76154
92339.5
3.76118
97553.3
3.76082
102792
3.76047
108508
3.76011
115259
3.75976
122717
3.7594
130148
3.75905
137668
3.75869
144860
3.75834
150147
3.75798
153183
3.75763
153494
3.75727
150980
3.75692
146231
3.75657
138923
3.75621
130651
3.75586
121474
3.7555
113463
3.75515
105680
3.7548
98548.3
3.75444
92385.2
3.75409
87271.9
3.75373
82906
3.75338
79039.7
3.75303
76242.8
3.75267
73065.3
3.75232
71456.4
3.75197
69701.6
3.75161
67880.1
3.75126
66309.9
3.75091
64734.3
3.75056
64071.4
3.7502
63462.4
3.74985
62204
3.7495
61525.2
3.74915
61242.2
3.7488
60604.7
3.74844
59990.7
3.74809
59186
3.74774
58813.3
3.74739
58797.7
3.74704
58263.9
3.74668
57604.9
3.74633
57016.1
3.74598
56624.4
3.74563
56493.8
3.74528
56170.7
3.74493
55711.5
3.74458
55539.5
3.74423
55814.3
3.74388
55340
3.74352
55233.9
3.74317
54897.5
3.74282
54705.3
3.74247
54955
3.74212
54937.3
3.74177
54655.8
3.74142
54409.6
3.74107
54574.1
3.74072
54171.2
3.74037
54402
3.74002
54403.3
3.73967
53998
3.73932
53861.3
3.73898
53976.1
3.73863
54162.2
3.73828
54047.3
3.73793
54104.6
3.73758
53636.6
3.73723
53576.6
3.73688
54073.3
3.73653
54088.9
3.73618
53930.7
3.73583
53661.4
3.73549
53361
3.73514
53623.9
3.73479
53386.1
3.73444
53175.5
3.73409
52963.8
3.73375
52499.5
3.7334
52206.5
3.73305
52268.4
3.7327
52106.8
3.73236
51467.2
3.73201
51768.7
3.73166
51009.6
3.73131
50834.6
3.73097
50872.5
3.73062
50816
3.73027
51069.4
3.72993
50597.4
3.72958
50618.6
3.72923
50347.4
3.72889
50216.4
3.72854
50428.9
3.72819
50030.5
3.72785
49862.4
3.7275
49738.8
3.72715
49795.5
3.72681
49490.9
3.72646
49445.7
3.72612
49239.4
3.72577
48843.3
3.72542
48386.9
3.72508
48206.4
3.72473
48216.9
3.72439
48008.6
3.72404
48080.5
3.7237
47471
3.72335
47362
3.72301
47612.8
3.72266
47144.1
3.72232
46647.2
3.72197
46412.3
3.72163
45770.8
3.72129
45751
3.72094
45338.9
3.7206
45032.6
3.72025
45067.5
3.71991
44659.1
3.71956
44137.7
3.71922
44258.1
3.71888
43677.5
3.71853
43762.3
3.71819
44133.2
3.71785
43545
3.7175
43394.4
3.71716
43680.1
3.71682
43545.6
3.71647
43406.7
3.71613
43531.2
3.71579
43633.8
3.71544
43830
3.7151
43454.5
3.71476
43621.2
3.71442
43468.3
3.71407
43712.5
3.71373
43670.9
3.71339
43727.7
3.71305
43989.9
3.7127
43966.3
3.71236
43695.4
3.71202
43680.2
3.71168
43798.5
3.71134
43656.2
3.711
43709.2
3.71065
43432.3
3.71031
43635.5
3.70997
43762.3
3.70963
43673
3.70929
43809.5
3.70895
43871.8
3.70861
43799.2
3.70827
44060.1
3.70793
44373.4
3.70759
44334.6
3.70724
44597.7
3.7069
44671.9
3.70656
44817.6
3.70622
45000.7
3.70588
45313.1
3.70554
45492.8
3.7052
45975.4
3.70486
46070.1
3.70452
45769.2
3.70418
45954.8
3.70384
46020.6
3.7035
46195
3.70317
46565.6
3.70283
46571.4
3.70249
47090.3
3.70215
47131.2
3.70181
47153.8
3.70147
47086.5
3.70113
46898.8
3.70079
47533
3.70045
47412.7
3.70011
47496.7
3.69978
47357.4
3.69944
47707.1
3.6991
47841.6
3.69876
48139.2
3.69842
48404
3.69808
48706.4
3.69775
49157.6
3.69741
49302.5
3.69707
49546.9
3.69673
50566.2
3.6964
51671
3.69606
52629.8
3.69572
53807.4
3.69538
55616.3
3.69505
57131.9
3.69471
59289.1
3.69437
62530.3
3.69404
66111.6
3.6937
70715.5
3.69336
76471.1
3.69303
83884.6
3.69269
94200.8
3.69235
106644
3.69202
123631
3.69168
145912
3.69134
173505
3.69101
206580
3.69067
244124
3.69034
282046
3.69
315608
3.68966
337808
3.68933
344743
3.68899
330940
3.68866
299442
3.68832
258132
3.68799
215194
3.68765
176652
3.68732
144843
3.68698
119940
3.68665
100628
3.68631
85839.1
3.68598
75196.7
3.68564
66940.4
3.68531
60736.5
3.68497
55916.9
3.68464
52067.2
3.6843
48900.1
3.68397
46421.4
3.68364
44750.5
3.6833
43323.9
3.68297
41634.9
3.68263
40553.8
3.6823
39500.2
3.68197
38516.7
3.68163
37520.7
3.6813
37090.7
3.68097
36353.1
3.68063
35773.1
3.6803
35100.7
3.67997
34675.2
3.67963
34420.9
3.6793
34024.8
3.67897
33737.2
3.67864
33427
3.6783
33276.9
3.67797
32784.7
3.67764
32759.7
3.67731
32420.6
3.67697
32139.6
3.67664
32070.9
3.67631
31836.5
3.67598
31757.6
3.67564
31549.9
3.67531
31500.9
3.67498
30947.6
3.67465
31092.4
3.67432
31307.2
3.67399
30953.9
3.67365
30944.5
3.67332
30603.4
3.67299
30643.9
3.67266
30908.5
3.67233
30572.4
3.672
30613.3
3.67167
30379.9
3.67134
30373.2
3.67101
30279
3.67068
30567.8
3.67035
30293.2
3.67002
30488.8
3.66969
30615.7
3.66936
30441.2
3.66902
30020
3.66869
29943.6
3.66836
30003.4
3.66804
30086.8
3.66771
29932
3.66738
29885.1
3.66705
30042.3
3.66672
29953.7
3.66639
29937.5
3.66606
29518.6
3.66573
29590.6
3.6654
29712.2
3.66507
29608.9
3.66474
29555.3
3.66441
29982.1
3.66408
29735.4
3.66375
29436.8
3.66343
29806.6
3.6631
29477.5
3.66277
29429.3
3.66244
29609.3
3.66211
29491.9
3.66178
29520.7
3.66146
29536.2
3.66113
29590.8
3.6608
29732.6
3.66047
29679.8
3.66014
29780.6
3.65982
29523.7
3.65949
29572
3.65916
29596.4
3.65883
29350.2
3.65851
29311.8
3.65818
29396.9
3.65785
29605.8
3.65753
29540.1
3.6572
29423.7
3.65687
29430.6
3.65655
29562.8
3.65622
29290
3.65589
29121
3.65557
29415.7
3.65524
29188.1
3.65491
29556
3.65459
29474.3
3.65426
29423.6
3.65393
29332.2
3.65361
29214
3.65328
29379.6
3.65296
29456.7
3.65263
29581.8
3.65231
29201.7
3.65198
29259
3.65165
29349
3.65133
29125.5
3.651
29160.9
3.65068
29434.7
3.65035
29468
3.65003
29370.3
3.6497
29529.1
3.64938
29379.2
3.64905
29289.6
3.64873
29334.4
3.6484
29295.3
3.64808
29098.5
3.64776
29133.1
3.64743
29334.8
3.64711
Cu2p
Cu in vacuum, short shirley
2020
3
8
23
38
57
0
17
Casa Info Follows
1
BackgroundSubtract
0
1
CASA region (*Cu 2p*) (*Shirley*) 502.3639 563.8457 25.081921 2 0 0 833.83732 -450 0 0 (*Cu 2p*) 63.549 0 25.39
0
EX340_CEC356_effect of lens modes.sle
Group = Cu in vacuum
First of group = 0
Analyzer lens = LargeArea:1.5kV
Analyzer slit = 4:7x20c\C:mesh
Scan mode = FixedAnalyzerTransmission
Kinetic energy start = 456.61
Sum of 20 spectra in column containing 20 scans
C:\Users\pielsticker\Lukas\MPI-CEC\Projects\Gas phase background\inelasticscattering\data\N2\Au, Ag, Cu in N2.vms
CasaXP4
XPS
1
Al
1486.61
0
0
0
54.5
180
FAT
20
1
4.156
0
0
0
0
0
Cu2p

-1
kinetic energy
eV
456.61
0.1
2
counts
d
Transmission
d
pulse counting
3
1
0
0
0
0
2
ESCAPE DEPTH TYPE
d
0
MFP Exponent
d
0
2202
1420.77
17475.4
3.64711
4.06635
49871.4
4.06635
49982.7
4.0659
50035.1
4.06545
49899.9
4.065
49667.9
4.06455
50024.1
4.0641
50455.1
4.06366
50225.6
4.06321
50118.8
4.06276
50213.5
4.06231
50049
4.06186
49901.7
4.06142
50164.6
4.06097
49865.2
4.06052
50278.7
4.06007
50161.8
4.05963
50177.1
4.05918
50251.3
4.05873
50010.9
4.05829
49955.2
4.05784
50059.5
4.05739
50395
4.05695
50456.6
4.0565
50442
4.05605
50430.4
4.05561
50288.6
4.05516
50315.1
4.05472
50534.3
4.05427
50194.5
4.05383
50403
4.05338
50175.4
4.05294
50232.9
4.05249
50577
4.05205
50750.1
4.0516
50169.7
4.05116
50497
4.05071
50617.4
4.05027
50524.8
4.04982
50397.6
4.04938
50408.3
4.04894
50441.3
4.04849
50313.3
4.04805
50414.1
4.04761
50470.6
4.04716
50837.2
4.04672
50530.4
4.04628
50238.9
4.04584
50318.1
4.04539
50471.4
4.04495
50700.5
4.04451
50673.4
4.04407
50869.6
4.04362
50784.8
4.04318
50672.4
4.04274
50492.2
4.0423
50322.6
4.04186
50763.2
4.04142
50762.7
4.04098
50853.5
4.04053
50924.3
4.04009
50625.3
4.03965
50764.7
4.03921
51011
4.03877
50706.6
4.03833
50797.5
4.03789
50987
4.03745
50858.6
4.03701
50959.7
4.03657
51051
4.03613
50821.1
4.03569
51057.6
4.03525
50534.8
4.03482
50732.4
4.03438
50756.7
4.03394
50870.5
4.0335
50824.3
4.03306
50952.4
4.03262
50775.6
4.03218
50592.7
4.03175
50852.4
4.03131
50740.3
4.03087
51098.6
4.03043
51262.9
4.03
51352.3
4.02956
51119.7
4.02912
51311.4
4.02868
51504.4
4.02825
51301.1
4.02781
51095.4
4.02737
51191.7
4.02694
51047.3
4.0265
51022
4.02606
50970.7
4.02563
50998
4.02519
51102.7
4.02476
51342.1
4.02432
51268.1
4.02389
51457.9
4.02345
51192.8
4.02301
50872
4.02258
50875.8
4.02214
51602.6
4.02171
51610.5
4.02128
51667.9
4.02084
51495.6
4.02041
51221
4.01997
51604.7
4.01954
51470.9
4.0191
51836.2
4.01867
51678.1
4.01824
51228.2
4.0178
51512.8
4.01737
51828.1
4.01694
51678.8
4.0165
51506.7
4.01607
51714.8
4.01564
51848.3
4.0152
51273.7
4.01477
51597.9
4.01434
51819.3
4.01391
51651.5
4.01348
51697.5
4.01304
51430.8
4.01261
51739.4
4.01218
51632.8
4.01175
51485.1
4.01132
51832.8
4.01089
51878.3
4.01045
51669.6
4.01002
51959.1
4.00959
51687.1
4.00916
51704.4
4.00873
51985.1
4.0083
52094.1
4.00787
51799.2
4.00744
51765.8
4.00701
52086.4
4.00658
51947.3
4.00615
51671.4
4.00572
52117.3
4.00529
52143.8
4.00486
51705.3
4.00443
51976.2
4.004
52133.1
4.00357
52085.1
4.00315
51913.7
4.00272
52216.8
4.00229
51902.1
4.00186
52020.1
4.00143
51838.8
4.001
51984
4.00058
52389.5
4.00015
51986.7
3.99972
52341
3.99929
52346
3.99887
52295.8
3.99844
52151.6
3.99801
51912.3
3.99758
52116.3
3.99716
52251.5
3.99673
52231.2
3.9963
52235.1
3.99588
52379.3
3.99545
52347.9
3.99502
52654.5
3.9946
52511.5
3.99417
52230.2
3.99375
52296.1
3.99332
52169.6
3.9929
52272.9
3.99247
52249.4
3.99204
52666.4
3.99162
52576.5
3.99119
52590.9
3.99077
52691.8
3.99035
52688.7
3.98992
52577.3
3.9895
52246.5
3.98907
52837.9
3.98865
52726.1
3.98822
52751.8
3.9878
52682.6
3.98738
53017.3
3.98695
52699.7
3.98653
52669.3
3.98611
52830.7
3.98568
52718.4
3.98526
52952.3
3.98484
52585.3
3.98441
52744.2
3.98399
53022.6
3.98357
52692.9
3.98315
52838.8
3.98272
52739.3
3.9823
52814.3
3.98188
53077.2
3.98146
52766
3.98104
52601.8
3.98061
52692.1
3.98019
52611.7
3.97977
52827.6
3.97935
52756.9
3.97893
53099.2
3.97851
53340.8
3.97809
52801
3.97767
53207.6
3.97725
53031.8
3.97683
53102.4
3.97641
53159.1
3.97599
53154
3.97557
53213.6
3.97515
53409.4
3.97473
53096.5
3.97431
52991.7
3.97389
53216.5
3.97347
53515.1
3.97305
53305.9
3.97263
53289.7
3.97221
53145.3
3.97179
53160.7
3.97137
53257.8
3.97095
53260.6
3.97054
53106.6
3.97012
53545.1
3.9697
53188.9
3.96928
53140.9
3.96886
53300.8
3.96845
53556.6
3.96803
53532.6
3.96761
53589.8
3.96719
53658.4
3.96678
53559.9
3.96636
53514.7
3.96594
53355
3.96553
53279
3.96511
53723.9
3.96469
53586
3.96428
53629.4
3.96386
53482.1
3.96344
53539.6
3.96303
53083.2
3.96261
53552.6
3.9622
53718.4
3.96178
53683
3.96136
53766.8
3.96095
53466.3
3.96053
53367
3.96012
53687.1
3.9597
53807.2
3.95929
53829.1
3.95887
53954.8
3.95846
53984.8
3.95804
54016.6
3.95763
53689.5
3.95722
53796.3
3.9568
54231.8
3.95639
53991
3.95597
54033.4
3.95556
54104.5
3.95515
54096.2
3.95473
53606.6
3.95432
53716.3
3.95391
54006.2
3.95349
54333
3.95308
54105.9
3.95267
54221.8
3.95226
54298
3.95184
53925
3.95143
54312.8
3.95102
54393.6
3.95061
54321.9
3.95019
54449
3.94978
54296
3.94937
54567.8
3.94896
54418.4
3.94855
54334.5
3.94814
54548.4
3.94773
54218.6
3.94731
54618.7
3.9469
54592.1
3.94649
54677.1
3.94608
54494.2
3.94567
54349.3
3.94526
54846.3
3.94485
54966.4
3.94444
54783.2
3.94403
54294.6
3.94362
54722.1
3.94321
54910.1
3.9428
54461
3.94239
54405.4
3.94198
54691.3
3.94157
54723.1
3.94116
54793.4
3.94075
54834.5
3.94034
54854.8
3.93994
54751.5
3.93953
55058.5
3.93912
55000.3
3.93871
55209.4
3.9383
55185.5
3.93789
55114.5
3.93749
54930.1
3.93708
54973.4
3.93667
54948.5
3.93626
54931.7
3.93585
54855.5
3.93545
55127.3
3.93504
55031.9
3.93463
55392.7
3.93423
55177.9
3.93382
55311.5
3.93341
55346.4
3.93301
55612.7
3.9326
55064.5
3.93219
55387.8
3.93179
55496.5
3.93138
55638.6
3.93097
55421.1
3.93057
55190.6
3.93016
55918.8
3.92976
55595.8
3.92935
55484.4
3.92895
55330.5
3.92854
55429.6
3.92814
55596.8
3.92773
55579.7
3.92733
55851.2
3.92692
55749.1
3.92652
55787
3.92611
55518.6
3.92571
55395.3
3.9253
55388.8
3.9249
55623.9
3.92449
55655.5
3.92409
55596.3
3.92369
55608.6
3.92328
55346.8
3.92288
55920.7
3.92248
56097.7
3.92207
56394.6
3.92167
55821.5
3.92127
55672.2
3.92086
55942.9
3.92046
56028.3
3.92006
56014.5
3.91966
56221.6
3.91925
56364.8
3.91885
56008.7
3.91845
56068.3
3.91805
56180.1
3.91765
55961.7
3.91724
56109.3
3.91684
56264.9
3.91644
56150.7
3.91604
55990.1
3.91564
55973.8
3.91524
56137.7
3.91484
55940.9
3.91443
56221.4
3.91403
56381
3.91363
56202.6
3.91323
56025.9
3.91283
56266
3.91243
56379.8
3.91203
56452.7
3.91163
56248.4
3.91123
56604
3.91083
56252.4
3.91043
55900.2
3.91003
56013.8
3.90963
55979.5
3.90923
56287.7
3.90883
56516.5
3.90844
56562.1
3.90804
56598.1
3.90764
56345.9
3.90724
56298
3.90684
55956.3
3.90644
56293.4
3.90604
56623.6
3.90565
56311.1
3.90525
56260
3.90485
56279.3
3.90445
56773.8
3.90405
56511.9
3.90366
56614.2
3.90326
56566.7
3.90286
56942.9
3.90246
56356.4
3.90207
56733.2
3.90167
56627.4
3.90127
56797.4
3.90088
56440
3.90048
56702.6
3.90008
56698.7
3.89969
57020.6
3.89929
56591.3
3.89889
56841
3.8985
57141.9
3.8981
57147.3
3.89771
56492.9
3.89731
56519.4
3.89692
56740
3.89652
57065.9
3.89612
56731.9
3.89573
56705.9
3.89533
57038.7
3.89494
56841.7
3.89454
57285.4
3.89415
57319.8
3.89375
56999.7
3.89336
56911.5
3.89297
57208.6
3.89257
57324.7
3.89218
57168.5
3.89178
57357.3
3.89139
56941.6
3.891
57215.6
3.8906
57241
3.89021
57394.4
3.88982
57155.2
3.88942
57417.3
3.88903
57063.7
3.88864
57191.2
3.88824
57247.7
3.88785
57084.8
3.88746
57292.8
3.88706
57173.4
3.88667
57624.1
3.88628
57537.3
3.88589
57682.9
3.8855
57838.2
3.8851
57799.1
3.88471
57718
3.88432
57570
3.88393
57642
3.88354
57910
3.88315
58048.9
3.88275
57691.6
3.88236
58456
3.88197
57541
3.88158
57758.4
3.88119
58123.1
3.8808
58131.6
3.88041
57693.3
3.88002
57963.1
3.87963
57975.7
3.87924
58007.3
3.87885
58210.8
3.87846
58107.4
3.87807
57728.3
3.87768
57985.6
3.87729
58259.6
3.8769
57820.5
3.87651
57683.2
3.87612
57816.9
3.87573
58302.7
3.87534
58328.5
3.87495
58397.9
3.87457
58191.3
3.87418
58162.8
3.87379
58226.3
3.8734
58943
3.87301
58563.2
3.87262
58433.7
3.87224
58584.2
3.87185
58687
3.87146
58801.5
3.87107
59178
3.87068
58980.3
3.8703
58743.9
3.86991
58785.1
3.86952
58779.1
3.86913
58929.1
3.86875
58846.4
3.86836
59303
3.86797
58589.8
3.86759
59031.4
3.8672
59224.1
3.86681
58982.9
3.86643
59095.1
3.86604
58841.6
3.86566
59481.6
3.86527
59552.8
3.86488
59333
3.8645
59232.5
3.86411
59381.1
3.86373
59512.6
3.86334
59381.3
3.86296
59578.8
3.86257
59658.6
3.86219
59656.5
3.8618
59672.4
3.86142
59674.3
3.86103
60199.9
3.86065
59657.4
3.86026
59506.4
3.85988
59870.3
3.85949
60032.3
3.85911
59955
3.85872
60039
3.85834
59970.7
3.85796
60027.4
3.85757
60036.3
3.85719
60121.4
3.85681
60325.7
3.85642
60354.2
3.85604
60196.8
3.85566
60338
3.85527
60108.1
3.85489
60122.8
3.85451
60259.9
3.85413
60615.1
3.85374
60482.1
3.85336
60346.9
3.85298
60619.5
3.8526
60481
3.85221
60597.5
3.85183
60654.3
3.85145
60386.7
3.85107
60221.5
3.85069
60672.6
3.8503
61046
3.84992
60939.5
3.84954
60598.4
3.84916
60746.8
3.84878
60904.6
3.8484
60343.6
3.84802
60870.7
3.84764
61031
3.84726
61231.2
3.84688
60674
3.8465
60922.7
3.84612
61015.4
3.84574
61271.4
3.84535
60986.4
3.84497
61283.4
3.8446
61288.4
3.84422
61035.6
3.84384
61383.9
3.84346
61245.3
3.84308
61404
3.8427
61370.1
3.84232
61461.1
3.84194
61588.3
3.84156
61651.1
3.84118
61597.3
3.8408
61721.3
3.84042
61897.5
3.84005
61544.3
3.83967
61931.4
3.83929
61782.6
3.83891
61594.4
3.83853
61870.2
3.83815
62295.3
3.83778
62221.4
3.8374
61605.4
3.83702
61729
3.83664
62179.5
3.83627
62066.9
3.83589
62534.2
3.83551
62397.5
3.83514
62834
3.83476
62505.1
3.83438
62637.6
3.83401
62008.2
3.83363
62437
3.83325
62341.4
3.83288
62371
3.8325
62292
3.83212
62294.1
3.83175
62490.5
3.83137
62240.4
3.831
62494.4
3.83062
62482.9
3.83024
62457
3.82987
62413.5
3.82949
62399.1
3.82912
62203
3.82874
62229.7
3.82837
62240
3.82799
62085.9
3.82762
62297.6
3.82724
61981.2
3.82687
62093.4
3.82649
62394.5
3.82612
62124.4
3.82575
62511.6
3.82537
62005.5
3.825
62248.5
3.82462
62101.7
3.82425
61942.8
3.82388
62267.4
3.8235
62241.3
3.82313
62229.9
3.82276
62053.7
3.82238
62152.4
3.82201
62224.1
3.82164
62106.3
3.82126
62267.9
3.82089
62121.5
3.82052
62334.7
3.82014
62144.3
3.81977
62200.3
3.8194
62185.8
3.81903
62487.2
3.81865
61822.6
3.81828
61778.9
3.81791
61994.9
3.81754
62227.2
3.81717
62292.3
3.8168
62185
3.81642
62014.7
3.81605
61965.4
3.81568
61970.2
3.81531
61800.9
3.81494
61717.9
3.81457
62077.1
3.8142
62040.1
3.81383
61873.6
3.81346
61582
3.81308
61726.3
3.81271
61726.3
3.81234
61564.6
3.81197
61514.4
3.8116
61809
3.81123
61731.8
3.81086
61578.7
3.81049
61376.5
3.81012
62006.8
3.80975
61754.9
3.80939
61849.4
3.80902
61934.7
3.80865
61854.6
3.80828
62223.8
3.80791
61929.4
3.80754
62185.1
3.80717
62039.2
3.8068
62176.5
3.80643
61813.2
3.80606
62238.1
3.8057
62265.6
3.80533
62215.5
3.80496
62284.7
3.80459
62597.7
3.80422
62589.7
3.80386
62443
3.80349
62785.6
3.80312
62553.9
3.80275
62722.3
3.80238
62618
3.80202
62583
3.80165
62537.1
3.80128
62562.5
3.80092
62638.9
3.80055
62398.3
3.80018
62526
3.79982
62428.7
3.79945
62082.6
3.79908
61917.3
3.79872
61625.6
3.79835
61456.9
3.79798
61508
3.79762
60908.3
3.79725
60582.9
3.79689
60233.4
3.79652
60799.1
3.79615
60613.8
3.79579
60147.2
3.79542
60227.3
3.79506
60307.8
3.79469
60250.2
3.79433
60138.3
3.79396
59882.1
3.7936
59667
3.79323
59455.9
3.79287
59233.5
3.7925
59128.5
3.79214
59397.4
3.79177
59179.3
3.79141
59486.5
3.79105
59531
3.79068
59052.1
3.79032
59060
3.78995
59036.1
3.78959
58959.7
3.78923
59173.1
3.78886
59460.5
3.7885
59245.4
3.78814
59509.2
3.78777
59172.6
3.78741
59145.5
3.78705
59435.5
3.78668
59148.1
3.78632
59224.8
3.78596
59497.8
3.7856
59411.3
3.78523
59359.8
3.78487
60000.8
3.78451
59423.1
3.78415
59099.8
3.78378
59493.4
3.78342
59613.9
3.78306
60078.6
3.7827
59789
3.78234
60202.3
3.78198
60146
3.78161
60149.4
3.78125
60035.2
3.78089
59874.8
3.78053
59958.8
3.78017
59761.5
3.77981
59867.9
3.77945
60071.7
3.77909
60274.5
3.77873
59941.4
3.77837
59729.3
3.778
60588.6
3.77764
60669.8
3.77728
60972.1
3.77692
60589.8
3.77656
60778.9
3.7762
61079.3
3.77584
60954.4
3.77548
61117.7
3.77512
61178.8
3.77477
61134.8
3.77441
61306.5
3.77405
61660.8
3.77369
61686.7
3.77333
61815.5
3.77297
62225.3
3.77261
62350.6
3.77225
62405
3.77189
63019.7
3.77153
62461.7
3.77118
62705.6
3.77082
63268
3.77046
63468.3
3.7701
63314.3
3.76974
63809.4
3.76938
64154.3
3.76903
64395.6
3.76867
64785
3.76831
64770
3.76795
65307.1
3.7676
65767.7
3.76724
65936.8
3.76688
66466.5
3.76652
67093.9
3.76617
68108.2
3.76581
68518.1
3.76545
69088.5
3.7651
70245.9
3.76474
71248.8
3.76438
72744.5
3.76403
74002.1
3.76367
75598.9
3.76331
77504
3.76296
79516.1
3.7626
82299.6
3.76225
85202
3.76189
88426.5
3.76154
92339.5
3.76118
97553.3
3.76082
102792
3.76047
108508
3.76011
115259
3.75976
122717
3.7594
130148
3.75905
137668
3.75869
144860
3.75834
150147
3.75798
153183
3.75763
153494
3.75727
150980
3.75692
146231
3.75657
138923
3.75621
130651
3.75586
121474
3.7555
113463
3.75515
105680
3.7548
98548.3
3.75444
92385.2
3.75409
87271.9
3.75373
82906
3.75338
79039.7
3.75303
76242.8
3.75267
73065.3
3.75232
71456.4
3.75197
69701.6
3.75161
67880.1
3.75126
66309.9
3.75091
64734.3
3.75056
64071.4
3.7502
63462.4
3.74985
62204
3.7495
61525.2
3.74915
61242.2
3.7488
60604.7
3.74844
59990.7
3.74809
59186
3.74774
58813.3
3.74739
58797.7
3.74704
58263.9
3.74668
57604.9
3.74633
57016.1
3.74598
56624.4
3.74563
56493.8
3.74528
56170.7
3.74493
55711.5
3.74458
55539.5
3.74423
55814.3
3.74388
55340
3.74352
55233.9
3.74317
54897.5
3.74282
54705.3
3.74247
54955
3.74212
54937.3
3.74177
54655.8
3.74142
54409.6
3.74107
54574.1
3.74072
54171.2
3.74037
54402
3.74002
54403.3
3.73967
53998
3.73932
53861.3
3.73898
53976.1
3.73863
54162.2
3.73828
54047.3
3.73793
54104.6
3.73758
53636.6
3.73723
53576.6
3.73688
54073.3
3.73653
54088.9
3.73618
53930.7
3.73583
53661.4
3.73549
53361
3.73514
53623.9
3.73479
53386.1
3.73444
53175.5
3.73409
52963.8
3.73375
52499.5
3.7334
52206.5
3.73305
52268.4
3.7327
52106.8
3.73236
51467.2
3.73201
51768.7
3.73166
51009.6
3.73131
50834.6
3.73097
50872.5
3.73062
50816
3.73027
51069.4
3.72993
50597.4
3.72958
50618.6
3.72923
50347.4
3.72889
50216.4
3.72854
50428.9
3.72819
50030.5
3.72785
49862.4
3.7275
49738.8
3.72715
49795.5
3.72681
49490.9
3.72646
49445.7
3.72612
49239.4
3.72577
48843.3
3.72542
48386.9
3.72508
48206.4
3.72473
48216.9
3.72439
48008.6
3.72404
48080.5
3.7237
47471
3.72335
47362
3.72301
47612.8
3.72266
47144.1
3.72232
46647.2
3.72197
46412.3
3.72163
45770.8
3.72129
45751
3.72094
45338.9
3.7206
45032.6
3.72025
45067.5
3.71991
44659.1
3.71956
44137.7
3.71922
44258.1
3.71888
43677.5
3.71853
43762.3
3.71819
44133.2
3.71785
43545
3.7175
43394.4
3.71716
43680.1
3.71682
43545.6
3.71647
43406.7
3.71613
43531.2
3.71579
43633.8
3.71544
43830
3.7151
43454.5
3.71476
43621.2
3.71442
43468.3
3.71407
43712.5
3.71373
43670.9
3.71339
43727.7
3.71305
43989.9
3.7127
43966.3
3.71236
43695.4
3.71202
43680.2
3.71168
43798.5
3.71134
43656.2
3.711
43709.2
3.71065
43432.3
3.71031
43635.5
3.70997
43762.3
3.70963
43673
3.70929
43809.5
3.70895
43871.8
3.70861
43799.2
3.70827
44060.1
3.70793
44373.4
3.70759
44334.6
3.70724
44597.7
3.7069
44671.9
3.70656
44817.6
3.70622
45000.7
3.70588
45313.1
3.70554
45492.8
3.7052
45975.4
3.70486
46070.1
3.70452
45769.2
3.70418
45954.8
3.70384
46020.6
3.7035
46195
3.70317
46565.6
3.70283
46571.4
3.70249
47090.3
3.70215
47131.2
3.70181
47153.8
3.70147
47086.5
3.70113
46898.8
3.70079
47533
3.70045
47412.7
3.70011
47496.7
3.69978
47357.4
3.69944
47707.1
3.6991
47841.6
3.69876
48139.2
3.69842
48404
3.69808
48706.4
3.69775
49157.6
3.69741
49302.5
3.69707
49546.9
3.69673
50566.2
3.6964
51671
3.69606
52629.8
3.69572
53807.4
3.69538
55616.3
3.69505
57131.9
3.69471
59289.1
3.69437
62530.3
3.69404
66111.6
3.6937
70715.5
3.69336
76471.1
3.69303
83884.6
3.69269
94200.8
3.69235
106644
3.69202
123631
3.69168
145912
3.69134
173505
3.69101
206580
3.69067
244124
3.69034
282046
3.69
315608
3.68966
337808
3.68933
344743
3.68899
330940
3.68866
299442
3.68832
258132
3.68799
215194
3.68765
176652
3.68732
144843
3.68698
119940
3.68665
100628
3.68631
85839.1
3.68598
75196.7
3.68564
66940.4
3.68531
60736.5
3.68497
55916.9
3.68464
52067.2
3.6843
48900.1
3.68397
46421.4
3.68364
44750.5
3.6833
43323.9
3.68297
41634.9
3.68263
40553.8
3.6823
39500.2
3.68197
38516.7
3.68163
37520.7
3.6813
37090.7
3.68097
36353.1
3.68063
35773.1
3.6803
35100.7
3.67997
34675.2
3.67963
34420.9
3.6793
34024.8
3.67897
33737.2
3.67864
33427
3.6783
33276.9
3.67797
32784.7
3.67764
32759.7
3.67731
32420.6
3.67697
32139.6
3.67664
32070.9
3.67631
31836.5
3.67598
31757.6
3.67564
31549.9
3.67531
31500.9
3.67498
30947.6
3.67465
31092.4
3.67432
31307.2
3.67399
30953.9
3.67365
30944.5
3.67332
30603.4
3.67299
30643.9
3.67266
30908.5
3.67233
30572.4
3.672
30613.3
3.67167
30379.9
3.67134
30373.2
3.67101
30279
3.67068
30567.8
3.67035
30293.2
3.67002
30488.8
3.66969
30615.7
3.66936
30441.2
3.66902
30020
3.66869
29943.6
3.66836
30003.4
3.66804
30086.8
3.66771
29932
3.66738
29885.1
3.66705
30042.3
3.66672
29953.7
3.66639
29937.5
3.66606
29518.6
3.66573
29590.6
3.6654
29712.2
3.66507
29608.9
3.66474
29555.3
3.66441
29982.1
3.66408
29735.4
3.66375
29436.8
3.66343
29806.6
3.6631
29477.5
3.66277
29429.3
3.66244
29609.3
3.66211
29491.9
3.66178
29520.7
3.66146
29536.2
3.66113
29590.8
3.6608
29732.6
3.66047
29679.8
3.66014
29780.6
3.65982
29523.7
3.65949
29572
3.65916
29596.4
3.65883
29350.2
3.65851
29311.8
3.65818
29396.9
3.65785
29605.8
3.65753
29540.1
3.6572
29423.7
3.65687
29430.6
3.65655
29562.8
3.65622
29290
3.65589
29121
3.65557
29415.7
3.65524
29188.1
3.65491
29556
3.65459
29474.3
3.65426
29423.6
3.65393
29332.2
3.65361
29214
3.65328
29379.6
3.65296
29456.7
3.65263
29581.8
3.65231
29201.7
3.65198
29259
3.65165
29349
3.65133
29125.5
3.651
29160.9
3.65068
29434.7
3.65035
29468
3.65003
29370.3
3.6497
29529.1
3.64938
29379.2
3.64905
29289.6
3.64873
29334.4
3.6484
29295.3
3.64808
29098.5
3.64776
29133.1
3.64743
29334.8
3.64711
Cu2p
Cu in vacuum. long shirley
2020
3
8
23
38
57
0
17
Casa Info Follows
1
BackgroundSubtract
0
1
CASA region (*Cu 2p*) (*Shirley*) 461.66199 563.8457 25.081921 2 0 0 833.83732 -450 0 0 (*Cu 2p*) 63.549 0 25.39
0
EX340_CEC356_effect of lens modes.sle
Group = Cu in vacuum
First of group = 0
Analyzer lens = LargeArea:1.5kV
Analyzer slit = 4:7x20c\C:mesh
Scan mode = FixedAnalyzerTransmission
Kinetic energy start = 456.61
Sum of 20 spectra in column containing 20 scans
C:\Users\pielsticker\Lukas\MPI-CEC\Projects\Gas phase background\inelasticscattering\data\N2\Au, Ag, Cu in N2.vms
CasaXP4
XPS
1
Al
1486.61
0
0
0
54.5
180
FAT
20
1
4.156
0
0
0
0
0
Cu2p

-1
kinetic energy
eV
456.61
0.1
2
counts
d
Transmission
d
pulse counting
3
1
0
0
0
0
2
ESCAPE DEPTH TYPE
d
0
MFP Exponent
d
0
2202
1420.77
17475.4
3.64711
4.06635
49871.4
4.06635
49982.7
4.0659
50035.1
4.06545
49899.9
4.065
49667.9
4.06455
50024.1
4.0641
50455.1
4.06366
50225.6
4.06321
50118.8
4.06276
50213.5
4.06231
50049
4.06186
49901.7
4.06142
50164.6
4.06097
49865.2
4.06052
50278.7
4.06007
50161.8
4.05963
50177.1
4.05918
50251.3
4.05873
50010.9
4.05829
49955.2
4.05784
50059.5
4.05739
50395
4.05695
50456.6
4.0565
50442
4.05605
50430.4
4.05561
50288.6
4.05516
50315.1
4.05472
50534.3
4.05427
50194.5
4.05383
50403
4.05338
50175.4
4.05294
50232.9
4.05249
50577
4.05205
50750.1
4.0516
50169.7
4.05116
50497
4.05071
50617.4
4.05027
50524.8
4.04982
50397.6
4.04938
50408.3
4.04894
50441.3
4.04849
50313.3
4.04805
50414.1
4.04761
50470.6
4.04716
50837.2
4.04672
50530.4
4.04628
50238.9
4.04584
50318.1
4.04539
50471.4
4.04495
50700.5
4.04451
50673.4
4.04407
50869.6
4.04362
50784.8
4.04318
50672.4
4.04274
50492.2
4.0423
50322.6
4.04186
50763.2
4.04142
50762.7
4.04098
50853.5
4.04053
50924.3
4.04009
50625.3
4.03965
50764.7
4.03921
51011
4.03877
50706.6
4.03833
50797.5
4.03789
50987
4.03745
50858.6
4.03701
50959.7
4.03657
51051
4.03613
50821.1
4.03569
51057.6
4.03525
50534.8
4.03482
50732.4
4.03438
50756.7
4.03394
50870.5
4.0335
50824.3
4.03306
50952.4
4.03262
50775.6
4.03218
50592.7
4.03175
50852.4
4.03131
50740.3
4.03087
51098.6
4.03043
51262.9
4.03
51352.3
4.02956
51119.7
4.02912
51311.4
4.02868
51504.4
4.02825
51301.1
4.02781
51095.4
4.02737
51191.7
4.02694
51047.3
4.0265
51022
4.02606
50970.7
4.02563
50998
4.02519
51102.7
4.02476
51342.1
4.02432
51268.1
4.02389
51457.9
4.02345
51192.8
4.02301
50872
4.02258
50875.8
4.02214
51602.6
4.02171
51610.5
4.02128
51667.9
4.02084
51495.6
4.02041
51221
4.01997
51604.7
4.01954
51470.9
4.0191
51836.2
4.01867
51678.1
4.01824
51228.2
4.0178
51512.8
4.01737
51828.1
4.01694
51678.8
4.0165
51506.7
4.01607
51714.8
4.01564
51848.3
4.0152
51273.7
4.01477
51597.9
4.01434
51819.3
4.01391
51651.5
4.01348
51697.5
4.01304
51430.8
4.01261
51739.4
4.01218
51632.8
4.01175
51485.1
4.01132
51832.8
4.01089
51878.3
4.01045
51669.6
4.01002
51959.1
4.00959
51687.1
4.00916
51704.4
4.00873
51985.1
4.0083
52094.1
4.00787
51799.2
4.00744
51765.8
4.00701
52086.4
4.00658
51947.3
4.00615
51671.4
4.00572
52117.3
4.00529
52143.8
4.00486
51705.3
4.00443
51976.2
4.004
52133.1
4.00357
52085.1
4.00315
51913.7
4.00272
52216.8
4.00229
51902.1
4.00186
52020.1
4.00143
51838.8
4.001
51984
4.00058
52389.5
4.00015
51986.7
3.99972
52341
3.99929
52346
3.99887
52295.8
3.99844
52151.6
3.99801
51912.3
3.99758
52116.3
3.99716
52251.5
3.99673
52231.2
3.9963
52235.1
3.99588
52379.3
3.99545
52347.9
3.99502
52654.5
3.9946
52511.5
3.99417
52230.2
3.99375
52296.1
3.99332
52169.6
3.9929
52272.9
3.99247
52249.4
3.99204
52666.4
3.99162
52576.5
3.99119
52590.9
3.99077
52691.8
3.99035
52688.7
3.98992
52577.3
3.9895
52246.5
3.98907
52837.9
3.98865
52726.1
3.98822
52751.8
3.9878
52682.6
3.98738
53017.3
3.98695
52699.7
3.98653
52669.3
3.98611
52830.7
3.98568
52718.4
3.98526
52952.3
3.98484
52585.3
3.98441
52744.2
3.98399
53022.6
3.98357
52692.9
3.98315
52838.8
3.98272
52739.3
3.9823
52814.3
3.98188
53077.2
3.98146
52766
3.98104
52601.8
3.98061
52692.1
3.98019
52611.7
3.97977
52827.6
3.97935
52756.9
3.97893
53099.2
3.97851
53340.8
3.97809
52801
3.97767
53207.6
3.97725
53031.8
3.97683
53102.4
3.97641
53159.1
3.97599
53154
3.97557
53213.6
3.97515
53409.4
3.97473
53096.5
3.97431
52991.7
3.97389
53216.5
3.97347
53515.1
3.97305
53305.9
3.97263
53289.7
3.97221
53145.3
3.97179
53160.7
3.97137
53257.8
3.97095
53260.6
3.97054
53106.6
3.97012
53545.1
3.9697
53188.9
3.96928
53140.9
3.96886
53300.8
3.96845
53556.6
3.96803
53532.6
3.96761
53589.8
3.96719
53658.4
3.96678
53559.9
3.96636
53514.7
3.96594
53355
3.96553
53279
3.96511
53723.9
3.96469
53586
3.96428
53629.4
3.96386
53482.1
3.96344
53539.6
3.96303
53083.2
3.96261
53552.6
3.9622
53718.4
3.96178
53683
3.96136
53766.8
3.96095
53466.3
3.96053
53367
3.96012
53687.1
3.9597
53807.2
3.95929
53829.1
3.95887
53954.8
3.95846
53984.8
3.95804
54016.6
3.95763
53689.5
3.95722
53796.3
3.9568
54231.8
3.95639
53991
3.95597
54033.4
3.95556
54104.5
3.95515
54096.2
3.95473
53606.6
3.95432
53716.3
3.95391
54006.2
3.95349
54333
3.95308
54105.9
3.95267
54221.8
3.95226
54298
3.95184
53925
3.95143
54312.8
3.95102
54393.6
3.95061
54321.9
3.95019
54449
3.94978
54296
3.94937
54567.8
3.94896
54418.4
3.94855
54334.5
3.94814
54548.4
3.94773
54218.6
3.94731
54618.7
3.9469
54592.1
3.94649
54677.1
3.94608
54494.2
3.94567
54349.3
3.94526
54846.3
3.94485
54966.4
3.94444
54783.2
3.94403
54294.6
3.94362
54722.1
3.94321
54910.1
3.9428
54461
3.94239
54405.4
3.94198
54691.3
3.94157
54723.1
3.94116
54793.4
3.94075
54834.5
3.94034
54854.8
3.93994
54751.5
3.93953
55058.5
3.93912
55000.3
3.93871
55209.4
3.9383
55185.5
3.93789
55114.5
3.93749
54930.1
3.93708
54973.4
3.93667
54948.5
3.93626
54931.7
3.93585
54855.5
3.93545
55127.3
3.93504
55031.9
3.93463
55392.7
3.93423
55177.9
3.93382
55311.5
3.93341
55346.4
3.93301
55612.7
3.9326
55064.5
3.93219
55387.8
3.93179
55496.5
3.93138
55638.6
3.93097
55421.1
3.93057
55190.6
3.93016
55918.8
3.92976
55595.8
3.92935
55484.4
3.92895
55330.5
3.92854
55429.6
3.92814
55596.8
3.92773
55579.7
3.92733
55851.2
3.92692
55749.1
3.92652
55787
3.92611
55518.6
3.92571
55395.3
3.9253
55388.8
3.9249
55623.9
3.92449
55655.5
3.92409
55596.3
3.92369
55608.6
3.92328
55346.8
3.92288
55920.7
3.92248
56097.7
3.92207
56394.6
3.92167
55821.5
3.92127
55672.2
3.92086
55942.9
3.92046
56028.3
3.92006
56014.5
3.91966
56221.6
3.91925
56364.8
3.91885
56008.7
3.91845
56068.3
3.91805
56180.1
3.91765
55961.7
3.91724
56109.3
3.91684
56264.9
3.91644
56150.7
3.91604
55990.1
3.91564
55973.8
3.91524
56137.7
3.91484
55940.9
3.91443
56221.4
3.91403
56381
3.91363
56202.6
3.91323
56025.9
3.91283
56266
3.91243
56379.8
3.91203
56452.7
3.91163
56248.4
3.91123
56604
3.91083
56252.4
3.91043
55900.2
3.91003
56013.8
3.90963
55979.5
3.90923
56287.7
3.90883
56516.5
3.90844
56562.1
3.90804
56598.1
3.90764
56345.9
3.90724
56298
3.90684
55956.3
3.90644
56293.4
3.90604
56623.6
3.90565
56311.1
3.90525
56260
3.90485
56279.3
3.90445
56773.8
3.90405
56511.9
3.90366
56614.2
3.90326
56566.7
3.90286
56942.9
3.90246
56356.4
3.90207
56733.2
3.90167
56627.4
3.90127
56797.4
3.90088
56440
3.90048
56702.6
3.90008
56698.7
3.89969
57020.6
3.89929
56591.3
3.89889
56841
3.8985
57141.9
3.8981
57147.3
3.89771
56492.9
3.89731
56519.4
3.89692
56740
3.89652
57065.9
3.89612
56731.9
3.89573
56705.9
3.89533
57038.7
3.89494
56841.7
3.89454
57285.4
3.89415
57319.8
3.89375
56999.7
3.89336
56911.5
3.89297
57208.6
3.89257
57324.7
3.89218
57168.5
3.89178
57357.3
3.89139
56941.6
3.891
57215.6
3.8906
57241
3.89021
57394.4
3.88982
57155.2
3.88942
57417.3
3.88903
57063.7
3.88864
57191.2
3.88824
57247.7
3.88785
57084.8
3.88746
57292.8
3.88706
57173.4
3.88667
57624.1
3.88628
57537.3
3.88589
57682.9
3.8855
57838.2
3.8851
57799.1
3.88471
57718
3.88432
57570
3.88393
57642
3.88354
57910
3.88315
58048.9
3.88275
57691.6
3.88236
58456
3.88197
57541
3.88158
57758.4
3.88119
58123.1
3.8808
58131.6
3.88041
57693.3
3.88002
57963.1
3.87963
57975.7
3.87924
58007.3
3.87885
58210.8
3.87846
58107.4
3.87807
57728.3
3.87768
57985.6
3.87729
58259.6
3.8769
57820.5
3.87651
57683.2
3.87612
57816.9
3.87573
58302.7
3.87534
58328.5
3.87495
58397.9
3.87457
58191.3
3.87418
58162.8
3.87379
58226.3
3.8734
58943
3.87301
58563.2
3.87262
58433.7
3.87224
58584.2
3.87185
58687
3.87146
58801.5
3.87107
59178
3.87068
58980.3
3.8703
58743.9
3.86991
58785.1
3.86952
58779.1
3.86913
58929.1
3.86875
58846.4
3.86836
59303
3.86797
58589.8
3.86759
59031.4
3.8672
59224.1
3.86681
58982.9
3.86643
59095.1
3.86604
58841.6
3.86566
59481.6
3.86527
59552.8
3.86488
59333
3.8645
59232.5
3.86411
59381.1
3.86373
59512.6
3.86334
59381.3
3.86296
59578.8
3.86257
59658.6
3.86219
59656.5
3.8618
59672.4
3.86142
59674.3
3.86103
60199.9
3.86065
59657.4
3.86026
59506.4
3.85988
59870.3
3.85949
60032.3
3.85911
59955
3.85872
60039
3.85834
59970.7
3.85796
60027.4
3.85757
60036.3
3.85719
60121.4
3.85681
60325.7
3.85642
60354.2
3.85604
60196.8
3.85566
60338
3.85527
60108.1
3.85489
60122.8
3.85451
60259.9
3.85413
60615.1
3.85374
60482.1
3.85336
60346.9
3.85298
60619.5
3.8526
60481
3.85221
60597.5
3.85183
60654.3
3.85145
60386.7
3.85107
60221.5
3.85069
60672.6
3.8503
61046
3.84992
60939.5
3.84954
60598.4
3.84916
60746.8
3.84878
60904.6
3.8484
60343.6
3.84802
60870.7
3.84764
61031
3.84726
61231.2
3.84688
60674
3.8465
60922.7
3.84612
61015.4
3.84574
61271.4
3.84535
60986.4
3.84497
61283.4
3.8446
61288.4
3.84422
61035.6
3.84384
61383.9
3.84346
61245.3
3.84308
61404
3.8427
61370.1
3.84232
61461.1
3.84194
61588.3
3.84156
61651.1
3.84118
61597.3
3.8408
61721.3
3.84042
61897.5
3.84005
61544.3
3.83967
61931.4
3.83929
61782.6
3.83891
61594.4
3.83853
61870.2
3.83815
62295.3
3.83778
62221.4
3.8374
61605.4
3.83702
61729
3.83664
62179.5
3.83627
62066.9
3.83589
62534.2
3.83551
62397.5
3.83514
62834
3.83476
62505.1
3.83438
62637.6
3.83401
62008.2
3.83363
62437
3.83325
62341.4
3.83288
62371
3.8325
62292
3.83212
62294.1
3.83175
62490.5
3.83137
62240.4
3.831
62494.4
3.83062
62482.9
3.83024
62457
3.82987
62413.5
3.82949
62399.1
3.82912
62203
3.82874
62229.7
3.82837
62240
3.82799
62085.9
3.82762
62297.6
3.82724
61981.2
3.82687
62093.4
3.82649
62394.5
3.82612
62124.4
3.82575
62511.6
3.82537
62005.5
3.825
62248.5
3.82462
62101.7
3.82425
61942.8
3.82388
62267.4
3.8235
62241.3
3.82313
62229.9
3.82276
62053.7
3.82238
62152.4
3.82201
62224.1
3.82164
62106.3
3.82126
62267.9
3.82089
62121.5
3.82052
62334.7
3.82014
62144.3
3.81977
62200.3
3.8194
62185.8
3.81903
62487.2
3.81865
61822.6
3.81828
61778.9
3.81791
61994.9
3.81754
62227.2
3.81717
62292.3
3.8168
62185
3.81642
62014.7
3.81605
61965.4
3.81568
61970.2
3.81531
61800.9
3.81494
61717.9
3.81457
62077.1
3.8142
62040.1
3.81383
61873.6
3.81346
61582
3.81308
61726.3
3.81271
61726.3
3.81234
61564.6
3.81197
61514.4
3.8116
61809
3.81123
61731.8
3.81086
61578.7
3.81049
61376.5
3.81012
62006.8
3.80975
61754.9
3.80939
61849.4
3.80902
61934.7
3.80865
61854.6
3.80828
62223.8
3.80791
61929.4
3.80754
62185.1
3.80717
62039.2
3.8068
62176.5
3.80643
61813.2
3.80606
62238.1
3.8057
62265.6
3.80533
62215.5
3.80496
62284.7
3.80459
62597.7
3.80422
62589.7
3.80386
62443
3.80349
62785.6
3.80312
62553.9
3.80275
62722.3
3.80238
62618
3.80202
62583
3.80165
62537.1
3.80128
62562.5
3.80092
62638.9
3.80055
62398.3
3.80018
62526
3.79982
62428.7
3.79945
62082.6
3.79908
61917.3
3.79872
61625.6
3.79835
61456.9
3.79798
61508
3.79762
60908.3
3.79725
60582.9
3.79689
60233.4
3.79652
60799.1
3.79615
60613.8
3.79579
60147.2
3.79542
60227.3
3.79506
60307.8
3.79469
60250.2
3.79433
60138.3
3.79396
59882.1
3.7936
59667
3.79323
59455.9
3.79287
59233.5
3.7925
59128.5
3.79214
59397.4
3.79177
59179.3
3.79141
59486.5
3.79105
59531
3.79068
59052.1
3.79032
59060
3.78995
59036.1
3.78959
58959.7
3.78923
59173.1
3.78886
59460.5
3.7885
59245.4
3.78814
59509.2
3.78777
59172.6
3.78741
59145.5
3.78705
59435.5
3.78668
59148.1
3.78632
59224.8
3.78596
59497.8
3.7856
59411.3
3.78523
59359.8
3.78487
60000.8
3.78451
59423.1
3.78415
59099.8
3.78378
59493.4
3.78342
59613.9
3.78306
60078.6
3.7827
59789
3.78234
60202.3
3.78198
60146
3.78161
60149.4
3.78125
60035.2
3.78089
59874.8
3.78053
59958.8
3.78017
59761.5
3.77981
59867.9
3.77945
60071.7
3.77909
60274.5
3.77873
59941.4
3.77837
59729.3
3.778
60588.6
3.77764
60669.8
3.77728
60972.1
3.77692
60589.8
3.77656
60778.9
3.7762
61079.3
3.77584
60954.4
3.77548
61117.7
3.77512
61178.8
3.77477
61134.8
3.77441
61306.5
3.77405
61660.8
3.77369
61686.7
3.77333
61815.5
3.77297
62225.3
3.77261
62350.6
3.77225
62405
3.77189
63019.7
3.77153
62461.7
3.77118
62705.6
3.77082
63268
3.77046
63468.3
3.7701
63314.3
3.76974
63809.4
3.76938
64154.3
3.76903
64395.6
3.76867
64785
3.76831
64770
3.76795
65307.1
3.7676
65767.7
3.76724
65936.8
3.76688
66466.5
3.76652
67093.9
3.76617
68108.2
3.76581
68518.1
3.76545
69088.5
3.7651
70245.9
3.76474
71248.8
3.76438
72744.5
3.76403
74002.1
3.76367
75598.9
3.76331
77504
3.76296
79516.1
3.7626
82299.6
3.76225
85202
3.76189
88426.5
3.76154
92339.5
3.76118
97553.3
3.76082
102792
3.76047
108508
3.76011
115259
3.75976
122717
3.7594
130148
3.75905
137668
3.75869
144860
3.75834
150147
3.75798
153183
3.75763
153494
3.75727
150980
3.75692
146231
3.75657
138923
3.75621
130651
3.75586
121474
3.7555
113463
3.75515
105680
3.7548
98548.3
3.75444
92385.2
3.75409
87271.9
3.75373
82906
3.75338
79039.7
3.75303
76242.8
3.75267
73065.3
3.75232
71456.4
3.75197
69701.6
3.75161
67880.1
3.75126
66309.9
3.75091
64734.3
3.75056
64071.4
3.7502
63462.4
3.74985
62204
3.7495
61525.2
3.74915
61242.2
3.7488
60604.7
3.74844
59990.7
3.74809
59186
3.74774
58813.3
3.74739
58797.7
3.74704
58263.9
3.74668
57604.9
3.74633
57016.1
3.74598
56624.4
3.74563
56493.8
3.74528
56170.7
3.74493
55711.5
3.74458
55539.5
3.74423
55814.3
3.74388
55340
3.74352
55233.9
3.74317
54897.5
3.74282
54705.3
3.74247
54955
3.74212
54937.3
3.74177
54655.8
3.74142
54409.6
3.74107
54574.1
3.74072
54171.2
3.74037
54402
3.74002
54403.3
3.73967
53998
3.73932
53861.3
3.73898
53976.1
3.73863
54162.2
3.73828
54047.3
3.73793
54104.6
3.73758
53636.6
3.73723
53576.6
3.73688
54073.3
3.73653
54088.9
3.73618
53930.7
3.73583
53661.4
3.73549
53361
3.73514
53623.9
3.73479
53386.1
3.73444
53175.5
3.73409
52963.8
3.73375
52499.5
3.7334
52206.5
3.73305
52268.4
3.7327
52106.8
3.73236
51467.2
3.73201
51768.7
3.73166
51009.6
3.73131
50834.6
3.73097
50872.5
3.73062
50816
3.73027
51069.4
3.72993
50597.4
3.72958
50618.6
3.72923
50347.4
3.72889
50216.4
3.72854
50428.9
3.72819
50030.5
3.72785
49862.4
3.7275
49738.8
3.72715
49795.5
3.72681
49490.9
3.72646
49445.7
3.72612
49239.4
3.72577
48843.3
3.72542
48386.9
3.72508
48206.4
3.72473
48216.9
3.72439
48008.6
3.72404
48080.5
3.7237
47471
3.72335
47362
3.72301
47612.8
3.72266
47144.1
3.72232
46647.2
3.72197
46412.3
3.72163
45770.8
3.72129
45751
3.72094
45338.9
3.7206
45032.6
3.72025
45067.5
3.71991
44659.1
3.71956
44137.7
3.71922
44258.1
3.71888
43677.5
3.71853
43762.3
3.71819
44133.2
3.71785
43545
3.7175
43394.4
3.71716
43680.1
3.71682
43545.6
3.71647
43406.7
3.71613
43531.2
3.71579
43633.8
3.71544
43830
3.7151
43454.5
3.71476
43621.2
3.71442
43468.3
3.71407
43712.5
3.71373
43670.9
3.71339
43727.7
3.71305
43989.9
3.7127
43966.3
3.71236
43695.4
3.71202
43680.2
3.71168
43798.5
3.71134
43656.2
3.711
43709.2
3.71065
43432.3
3.71031
43635.5
3.70997
43762.3
3.70963
43673
3.70929
43809.5
3.70895
43871.8
3.70861
43799.2
3.70827
44060.1
3.70793
44373.4
3.70759
44334.6
3.70724
44597.7
3.7069
44671.9
3.70656
44817.6
3.70622
45000.7
3.70588
45313.1
3.70554
45492.8
3.7052
45975.4
3.70486
46070.1
3.70452
45769.2
3.70418
45954.8
3.70384
46020.6
3.7035
46195
3.70317
46565.6
3.70283
46571.4
3.70249
47090.3
3.70215
47131.2
3.70181
47153.8
3.70147
47086.5
3.70113
46898.8
3.70079
47533
3.70045
47412.7
3.70011
47496.7
3.69978
47357.4
3.69944
47707.1
3.6991
47841.6
3.69876
48139.2
3.69842
48404
3.69808
48706.4
3.69775
49157.6
3.69741
49302.5
3.69707
49546.9
3.69673
50566.2
3.6964
51671
3.69606
52629.8
3.69572
53807.4
3.69538
55616.3
3.69505
57131.9
3.69471
59289.1
3.69437
62530.3
3.69404
66111.6
3.6937
70715.5
3.69336
76471.1
3.69303
83884.6
3.69269
94200.8
3.69235
106644
3.69202
123631
3.69168
145912
3.69134
173505
3.69101
206580
3.69067
244124
3.69034
282046
3.69
315608
3.68966
337808
3.68933
344743
3.68899
330940
3.68866
299442
3.68832
258132
3.68799
215194
3.68765
176652
3.68732
144843
3.68698
119940
3.68665
100628
3.68631
85839.1
3.68598
75196.7
3.68564
66940.4
3.68531
60736.5
3.68497
55916.9
3.68464
52067.2
3.6843
48900.1
3.68397
46421.4
3.68364
44750.5
3.6833
43323.9
3.68297
41634.9
3.68263
40553.8
3.6823
39500.2
3.68197
38516.7
3.68163
37520.7
3.6813
37090.7
3.68097
36353.1
3.68063
35773.1
3.6803
35100.7
3.67997
34675.2
3.67963
34420.9
3.6793
34024.8
3.67897
33737.2
3.67864
33427
3.6783
33276.9
3.67797
32784.7
3.67764
32759.7
3.67731
32420.6
3.67697
32139.6
3.67664
32070.9
3.67631
31836.5
3.67598
31757.6
3.67564
31549.9
3.67531
31500.9
3.67498
30947.6
3.67465
31092.4
3.67432
31307.2
3.67399
30953.9
3.67365
30944.5
3.67332
30603.4
3.67299
30643.9
3.67266
30908.5
3.67233
30572.4
3.672
30613.3
3.67167
30379.9
3.67134
30373.2
3.67101
30279
3.67068
30567.8
3.67035
30293.2
3.67002
30488.8
3.66969
30615.7
3.66936
30441.2
3.66902
30020
3.66869
29943.6
3.66836
30003.4
3.66804
30086.8
3.66771
29932
3.66738
29885.1
3.66705
30042.3
3.66672
29953.7
3.66639
29937.5
3.66606
29518.6
3.66573
29590.6
3.6654
29712.2
3.66507
29608.9
3.66474
29555.3
3.66441
29982.1
3.66408
29735.4
3.66375
29436.8
3.66343
29806.6
3.6631
29477.5
3.66277
29429.3
3.66244
29609.3
3.66211
29491.9
3.66178
29520.7
3.66146
29536.2
3.66113
29590.8
3.6608
29732.6
3.66047
29679.8
3.66014
29780.6
3.65982
29523.7
3.65949
29572
3.65916
29596.4
3.65883
29350.2
3.65851
29311.8
3.65818
29396.9
3.65785
29605.8
3.65753
29540.1
3.6572
29423.7
3.65687
29430.6
3.65655
29562.8
3.65622
29290
3.65589
29121
3.65557
29415.7
3.65524
29188.1
3.65491
29556
3.65459
29474.3
3.65426
29423.6
3.65393
29332.2
3.65361
29214
3.65328
29379.6
3.65296
29456.7
3.65263
29581.8
3.65231
29201.7
3.65198
29259
3.65165
29349
3.65133
29125.5
3.651
29160.9
3.65068
29434.7
3.65035
29468
3.65003
29370.3
3.6497
29529.1
3.64938
29379.2
3.64905
29289.6
3.64873
29334.4
3.6484
29295.3
3.64808
29098.5
3.64776
29133.1
3.64743
29334.8
3.64711
Cu2p
Cu in vacuum, short shirley, background subtr.
2020
3
8
23
38
57
0
15
Casa Info Follows
0
0
0
0
EX340_CEC356_effect of lens modes.sle
Group = Cu in vacuum
First of group = 0
Analyzer lens = LargeArea:1.5kV
Analyzer slit = 4:7x20c\C:mesh
Scan mode = FixedAnalyzerTransmission
Kinetic energy start = 456.61
Sum of 20 spectra in column containing 20 scans
C:\Users\pielsticker\Lukas\MPI-CEC\Projects\Gas phase background\inelasticscattering\data\N2\Au, Ag, Cu in N2.vms
CasaXP4
XPS
1e+037
Al
1486.61
0
0
0
54.5
180
FAT
20
1
4.156
0
0
0
0
0
Cu2p

-1
kinetic energy
eV
456.61
0.1
2
counts
d
Transmission
d
pulse counting
3
1
0
0
0
0
2
ESCAPE DEPTH TYPE
d
0
MFP Exponent
d
0
2202
1420.77
17475.4
3.64711
4.06635
0
4.06635
0
4.0659
0
4.06545
0
4.065
0
4.06455
0
4.0641
0
4.06366
0
4.06321
0
4.06276
0
4.06231
0
4.06186
0
4.06142
0
4.06097
0
4.06052
0
4.06007
0
4.05963
0
4.05918
0
4.05873
0
4.05829
0
4.05784
0
4.05739
0
4.05695
0
4.0565
0
4.05605
0
4.05561
0
4.05516
0
4.05472
0
4.05427
0
4.05383
0
4.05338
0
4.05294
0
4.05249
0
4.05205
0
4.0516
0
4.05116
0
4.05071
0
4.05027
0
4.04982
0
4.04938
0
4.04894
0
4.04849
0
4.04805
0
4.04761
0
4.04716
0
4.04672
0
4.04628
0
4.04584
0
4.04539
0
4.04495
0
4.04451
0
4.04407
0
4.04362
0
4.04318
0
4.04274
0
4.0423
0
4.04186
0
4.04142
0
4.04098
0
4.04053
0
4.04009
0
4.03965
0
4.03921
0
4.03877
0
4.03833
0
4.03789
0
4.03745
0
4.03701
0
4.03657
0
4.03613
0
4.03569
0
4.03525
0
4.03482
0
4.03438
0
4.03394
0
4.0335
0
4.03306
0
4.03262
0
4.03218
0
4.03175
0
4.03131
0
4.03087
0
4.03043
0
4.03
0
4.02956
0
4.02912
0
4.02868
0
4.02825
0
4.02781
0
4.02737
0
4.02694
0
4.0265
0
4.02606
0
4.02563
0
4.02519
0
4.02476
0
4.02432
0
4.02389
0
4.02345
0
4.02301
0
4.02258
0
4.02214
0
4.02171
0
4.02128
0
4.02084
0
4.02041
0
4.01997
0
4.01954
0
4.0191
0
4.01867
0
4.01824
0
4.0178
0
4.01737
0
4.01694
0
4.0165
0
4.01607
0
4.01564
0
4.0152
0
4.01477
0
4.01434
0
4.01391
0
4.01348
0
4.01304
0
4.01261
0
4.01218
0
4.01175
0
4.01132
0
4.01089
0
4.01045
0
4.01002
0
4.00959
0
4.00916
0
4.00873
0
4.0083
0
4.00787
0
4.00744
0
4.00701
0
4.00658
0
4.00615
0
4.00572
0
4.00529
0
4.00486
0
4.00443
0
4.004
0
4.00357
0
4.00315
0
4.00272
0
4.00229
0
4.00186
0
4.00143
0
4.001
0
4.00058
0
4.00015
0
3.99972
0
3.99929
0
3.99887
0
3.99844
0
3.99801
0
3.99758
0
3.99716
0
3.99673
0
3.9963
0
3.99588
0
3.99545
0
3.99502
0
3.9946
0
3.99417
0
3.99375
0
3.99332
0
3.9929
0
3.99247
0
3.99204
0
3.99162
0
3.99119
0
3.99077
0
3.99035
0
3.98992
0
3.9895
0
3.98907
0
3.98865
0
3.98822
0
3.9878
0
3.98738
0
3.98695
0
3.98653
0
3.98611
0
3.98568
0
3.98526
0
3.98484
0
3.98441
0
3.98399
0
3.98357
0
3.98315
0
3.98272
0
3.9823
0
3.98188
0
3.98146
0
3.98104
0
3.98061
0
3.98019
0
3.97977
0
3.97935
0
3.97893
0
3.97851
0
3.97809
0
3.97767
0
3.97725
0
3.97683
0
3.97641
0
3.97599
0
3.97557
0
3.97515
0
3.97473
0
3.97431
0
3.97389
0
3.97347
0
3.97305
0
3.97263
0
3.97221
0
3.97179
0
3.97137
0
3.97095
0
3.97054
0
3.97012
0
3.9697
0
3.96928
0
3.96886
0
3.96845
0
3.96803
0
3.96761
0
3.96719
0
3.96678
0
3.96636
0
3.96594
0
3.96553
0
3.96511
0
3.96469
0
3.96428
0
3.96386
0
3.96344
0
3.96303
0
3.96261
0
3.9622
0
3.96178
0
3.96136
0
3.96095
0
3.96053
0
3.96012
0
3.9597
0
3.95929
0
3.95887
0
3.95846
0
3.95804
0
3.95763
0
3.95722
0
3.9568
0
3.95639
0
3.95597
0
3.95556
0
3.95515
0
3.95473
0
3.95432
0
3.95391
0
3.95349
0
3.95308
0
3.95267
0
3.95226
0
3.95184
0
3.95143
0
3.95102
0
3.95061
0
3.95019
0
3.94978
0
3.94937
0
3.94896
0
3.94855
0
3.94814
0
3.94773
0
3.94731
0
3.9469
0
3.94649
0
3.94608
0
3.94567
0
3.94526
0
3.94485
0
3.94444
0
3.94403
0
3.94362
0
3.94321
0
3.9428
0
3.94239
0
3.94198
0
3.94157
0
3.94116
0
3.94075
0
3.94034
0
3.93994
0
3.93953
0
3.93912
0
3.93871
0
3.9383
0
3.93789
0
3.93749
0
3.93708
0
3.93667
0
3.93626
0
3.93585
0
3.93545
0
3.93504
0
3.93463
0
3.93423
0
3.93382
0
3.93341
0
3.93301
0
3.9326
0
3.93219
0
3.93179
0
3.93138
0
3.93097
0
3.93057
0
3.93016
0
3.92976
0
3.92935
0
3.92895
0
3.92854
0
3.92814
0
3.92773
0
3.92733
0
3.92692
0
3.92652
0
3.92611
0
3.92571
0
3.9253
0
3.9249
0
3.92449
0
3.92409
0
3.92369
0
3.92328
0
3.92288
0
3.92248
0
3.92207
0
3.92167
0
3.92127
0
3.92086
0
3.92046
0
3.92006
0
3.91966
0
3.91925
0
3.91885
0
3.91845
0
3.91805
0
3.91765
0
3.91724
0
3.91684
0
3.91644
0
3.91604
0
3.91564
0
3.91524
0
3.91484
0
3.91443
0
3.91403
0
3.91363
0
3.91323
0
3.91283
0
3.91243
0
3.91203
0
3.91163
0
3.91123
0
3.91083
0
3.91043
0
3.91003
0
3.90963
0
3.90923
0
3.90883
0
3.90844
0
3.90804
0
3.90764
0
3.90724
0
3.90684
0
3.90644
0
3.90604
0
3.90565
0
3.90525
0
3.90485
0
3.90445
0
3.90405
0
3.90366
0
3.90326
0
3.90286
0
3.90246
0
3.90207
0
3.90167
0
3.90127
0
3.90088
0
3.90048
0
3.90008
0
3.89969
0
3.89929
0
3.89889
0
3.8985
0
3.8981
0
3.89771
0
3.89731
0
3.89692
0
3.89652
0
3.89612
0
3.89573
0
3.89533
0
3.89494
0
3.89454
0
3.89415
0
3.89375
0
3.89336
0
3.89297
0
3.89257
0
3.89218
0
3.89178
0
3.89139
0
3.891
0
3.8906
0
3.89021
0
3.88982
0
3.88942
0
3.88903
0
3.88864
0
3.88824
0
3.88785
0
3.88746
0
3.88706
0
3.88667
0
3.88628
0
3.88589
0
3.8855
0
3.8851
0
3.88471
0
3.88432
0
3.88393
0
3.88354
0
3.88315
0
3.88275
0
3.88236
0
3.88197
0
3.88158
0
3.88119
0
3.8808
0
3.88041
0
3.88002
0
3.87963
0
3.87924
0
3.87885
0
3.87846
0
3.87807
0
3.87768
0
3.87729
0
3.8769
0
3.87651
0
3.87612
0
3.87573
0
3.87534
-14.4826
3.87495
55.1106
3.87457
-150.96
3.87418
-178.833
3.87379
-114.93
3.8734
603.886
3.87301
224.875
3.87262
95.7103
3.87224
247.076
3.87185
351.107
3.87146
467.245
3.87107
846.713
3.87068
651.296
3.8703
416.356
3.86991
459.165
3.86952
454.759
3.86913
606.887
3.86875
526.031
3.86836
986.088
3.86797
273.847
3.86759
717.964
3.8672
913.868
3.86681
675.034
3.86643
790.003
3.86604
538.391
3.86566
1182.54
3.86527
1258.15
3.86488
1042
3.8645
944.811
3.86411
1097.26
3.86373
1233.08
3.86334
1105.66
3.86296
1307.74
3.86257
1392.42
3.86219
1395.21
3.8618
1416.08
3.86142
1422.96
3.86103
1955.42
3.86065
1417.89
3.86026
1271.35
3.85988
1641
3.85949
1809.34
3.85911
1738.13
3.85872
1828.54
3.85834
1766.44
3.85796
1829.55
3.85757
1844.92
3.85719
1936.81
3.85681
2148.64
3.85642
2184.8
3.85604
2034.53
3.85566
2183.38
3.85527
1960.35
3.85489
1982
3.85451
2126.56
3.85413
2490.49
3.85374
2365.78
3.85336
2238.43
3.85298
2519.86
3.8526
2389.74
3.85221
2515.05
3.85183
2580.9
3.85145
2321.44
3.85107
2163.82
3.85069
2624.12
3.8503
3008.07
3.84992
2911.77
3.84954
2579.72
3.84916
2737.71
3.84878
2905.7
3.8484
2352.95
3.84802
2890.18
3.84764
3061.21
3.84726
3272.88
3.84688
2725.23
3.8465
2984.4
3.84612
3087.92
3.84574
3355.68
3.84535
3081.49
3.84497
3390.37
3.8446
3407.31
3.84422
3165.61
3.84384
3526.27
3.84346
3399.59
3.84308
3570.81
3.8427
3549.35
3.84232
3653.16
3.84194
3793.65
3.84156
3870.02
3.84118
3829.64
3.8408
3967.55
3.84042
4158.33
3.84005
3818.51
3.83967
4220.41
3.83929
4085.93
3.83891
3911.44
3.83853
4201.97
3.83815
4643.35
3.83778
4585.52
3.8374
3983.49
3.83702
4121.54
3.83664
4588.12
3.83627
4491.26
3.83589
4976.01
3.83551
4856.33
3.83514
5311.45
3.83476
5000.08
3.83438
5150.63
3.83401
4537.14
3.83363
4983.41
3.83325
4905
3.83288
4951.96
3.8325
4890.1
3.83212
4909.41
3.83175
5123.77
3.83137
4890.82
3.831
5162.91
3.83062
5169.54
3.83024
5161.73
3.82987
5136.23
3.82949
5139.85
3.82912
4961.14
3.82874
5005.39
3.82837
5033.33
3.82799
4896.4
3.82762
5126.07
3.82724
4826.59
3.82687
4956.16
3.82649
5275.75
3.82612
5023.26
3.82575
5429.49
3.82537
4940.71
3.825
5201.95
3.82462
5072.93
3.82425
4931.32
3.82388
5274.41
3.8235
5266.77
3.82313
5273.86
3.82276
5115.59
3.82238
5232.63
3.82201
5322.99
3.82164
5223.5
3.82126
5404.05
3.82089
5276.14
3.82052
5508.65
3.82014
5336.96
3.81977
5411.93
3.8194
5416.42
3.81903
5737.93
3.81865
5091.18
3.81828
5065.23
3.81791
5299.81
3.81754
5551.57
3.81717
5636.43
3.8168
5548.58
3.81642
5397.2
3.81605
5366.71
3.81568
5390.41
3.81531
5239.48
3.81494
5174.61
3.81457
5553.28
3.8142
5535.69
3.81383
5388.07
3.81346
5114.4
3.81308
5277.2
3.81271
5295.77
3.81234
5152.13
3.81197
5119.87
3.8116
5433.52
3.81123
5375.16
3.81086
5240.43
3.81049
5055.96
3.81012
5706.26
3.80975
5473.55
3.80939
5587.63
3.80902
5692.89
3.80865
5632.53
3.80828
6022.85
3.80791
5748.6
3.80754
6025.42
3.80717
5900.2
3.8068
6058.74
3.80643
5715.48
3.80606
6161.98
3.8057
6211.25
3.80533
6182.82
3.80496
6274.02
3.80459
6610.19
3.80422
6625.41
3.80386
6501.5
3.80349
6868.18
3.80312
6659.82
3.80275
6852.25
3.80238
6771.68
3.80202
6760.38
3.80165
6738.1
3.80128
6787.29
3.80092
6887.84
3.80055
6670.62
3.80018
6822.24
3.79982
6748.59
3.79945
6425.02
3.79908
6281.74
3.79872
6011.11
3.79835
5862.96
3.79798
5934.86
3.79762
5353.93
3.79725
5046.22
3.79689
4713.24
3.79652
5297.51
3.79615
5130.2
3.79579
4680
3.79542
4776.85
3.79506
4874.43
3.79469
4833.78
3.79433
4738.49
3.79396
4498.06
3.7936
4298.02
3.79323
4101.3
3.79287
3892.55
3.7925
3800.87
3.79214
4084.09
3.79177
3879.59
3.79141
4201.51
3.79105
4260.95
3.79068
3795.35
3.79032
3816.63
3.78995
3806.08
3.78959
3742.8
3.78923
3970.11
3.78886
4272.49
3.7885
4071.66
3.78814
4350.71
3.78777
4028.23
3.78741
4015.21
3.78705
4320.35
3.78668
4047.14
3.78632
4138.35
3.78596
4426.87
3.7856
4355.63
3.78523
4319.28
3.78487
4977.72
3.78451
4415.5
3.78415
4106.6
3.78378
4516.03
3.78342
4652.84
3.78306
5135.54
3.7827
4862.99
3.78234
5294.85
3.78198
5256.98
3.78161
5278.88
3.78125
5182.85
3.78089
5040.12
3.78053
5142.14
3.78017
4962.24
3.77981
5086.47
3.77945
5308.88
3.77909
5531.07
3.77873
5216.25
3.77837
5021.76
3.778
5901.74
3.77764
6003.99
3.77728
6328.47
3.77692
5967.09
3.77656
6177.85
3.7762
6501.04
3.77584
6398.57
3.77548
6584.95
3.77512
6669.43
3.77477
6648.74
3.77441
6844.43
3.77405
7224.05
3.77369
7275.46
3.77333
7430.3
3.77297
7867.68
3.77261
8021.1
3.77225
8103.91
3.77189
8749.28
3.77153
8220.09
3.77118
8493.77
3.77082
9088.02
3.77046
9321
3.7701
9199.25
3.76974
9728.45
3.76938
10108.8
3.76903
10386.5
3.76867
10813.8
3.76831
10836.8
3.76795
11413.9
3.7676
11916.3
3.76724
12127.9
3.76688
12702.1
3.76652
13376.4
3.76617
14441.3
3.76581
14903.5
3.76545
15528.3
3.7651
16744.4
3.76474
17809.7
3.76438
19373.3
3.76403
20703.5
3.76367
22378.8
3.76331
24369.3
3.76296
26474.2
3.7626
29360.6
3.76225
32376.5
3.76189
35726.2
3.76154
39778.7
3.76118
45150.8
3.76082
50566.7
3.76047
56480.7
3.76011
63454.1
3.75976
71161.6
3.7594
78869.1
3.75905
86693
3.75869
94215.2
3.75834
99852.3
3.75798
103250
3.75763
103925
3.75727
101768
3.75692
97360.5
3.75657
90369.3
3.75621
82386.1
3.75586
73466.6
3.7555
65685.9
3.75515
58106.6
3.7548
51154.2
3.75444
45149.4
3.75409
40176.9
3.75373
35937
3.75338
32183.5
3.75303
29490
3.75267
26405
3.75232
24883.4
3.75197
23209.9
3.75161
21463.7
3.75126
19963.5
3.75091
18452.5
3.75056
17852.2
3.7502
17303.9
3.74985
16101.9
3.7495
15477.4
3.74915
15247.8
3.7488
14661.7
3.74844
14097.1
3.74809
13339.2
3.74774
13012.1
3.74739
13042.2
3.74704
12552.4
3.74668
11935.3
3.74633
11386.4
3.74598
11033.4
3.74563
10941.1
3.74528
10655.4
3.74493
10232
3.74458
10095.4
3.74423
10406.7
3.74388
9967.35
3.74352
9895.94
3.74317
9593.16
3.74282
9434.04
3.74247
9717.8
3.74212
9734.22
3.74177
9485.98
3.74142
9272.28
3.74107
9469.98
3.74072
9098.97
3.74037
9362.59
3.74002
9396.83
3.73967
9023.16
3.73932
8917.72
3.73898
9064.3
3.73863
9282.94
3.73828
9200.29
3.73793
9290.15
3.73758
8853.19
3.73723
8824.12
3.73688
9353.61
3.73653
9402.17
3.73618
9276.49
3.73583
9038.87
3.73549
8769.21
3.73514
9063.88
3.73479
8857.13
3.73444
8676.95
3.73409
8495.03
3.73375
8058.98
3.7334
7793.3
3.73305
7882.83
3.7327
7748.39
3.73236
7133.8
3.73201
7461.45
3.73166
6725.93
3.73131
6573.98
3.73097
6635.14
3.73062
6601.78
3.73027
6879.29
3.72993
6429.83
3.72958
6473.73
3.72923
6224.34
3.72889
6114.78
3.72854
6349.54
3.72819
5972.07
3.72785
5824.39
3.7275
5720.84
3.72715
5797.87
3.72681
5512.59
3.72646
5486.62
3.72612
5298.9
3.72577
4920.05
3.72542
4479.35
3.72508
4313.97
3.72473
4339.68
3.72439
4145.92
3.72404
4232.65
3.7237
3635.9
3.72335
3539.31
3.72301
3803.44
3.72266
3346.47
3.72232
2859.59
3.72197
2633.93
3.72163
1999.44
3.72129
1986.6
3.72094
1580.04
3.7206
1278.22
3.72025
1317.74
3.71991
912.538
3.71956
392.514
3.71922
514.718
3.71888
-65.652
3.71853
19.2154
3.71819
391.488
3.71785
-196.025
3.7175
-345.414
3.71716
-59.5057
3.71682
-193.328
3.71647
-331.068
3.71613
-205.846
3.71579
-102.885
3.71544
93.643
3.7151
-280.872
3.71476
-113.774
3.71442
-265.742
3.71407
-21.4669
3.71373
-62.8466
3.71339
-6.02547
3.71305
257.076
3.7127
234.297
3.71236
-36.4751
3.71202
-51.4946
3.71168
67.0404
3.71134
-74.9967
3.711
-21.9199
3.71065
-297.776
3.71031
-94.2457
3.70997
32.6688
3.70963
-56.4333
3.70929
80.3483
3.70895
143.15
3.70861
70.7983
3.70827
332.865
3.70793
648.438
3.70759
611.783
3.70724
877.96
3.7069
955.51
3.70656
1105.08
3.70622
1292.72
3.70588
1610.76
3.70554
1796.76
3.7052
2287.38
3.70486
2390.46
3.70452
2096.91
3.70418
2290.54
3.70384
2364.63
3.7035
2547.96
3.70317
2928.83
3.70283
2944.95
3.70249
3476.03
3.70215
3529.31
3.70181
3564.4
3.70147
3509.4
3.70113
3333.39
3.70079
3981.54
3.70045
3874.83
3.70011
3972.75
3.69978
3846.94
3.69944
4211.4
3.6991
4361.19
3.69876
4675.18
3.69842
4957.36
3.69808
5278.26
3.69775
5749.61
3.69741
5915.25
3.69707
6181.32
3.69673
7225.95
3.6964
8360.05
3.69606
9351.64
3.69572
10566.3
3.69538
12418.7
3.69505
13983.3
3.69471
16197.3
3.69437
19506.9
3.69404
23169.4
3.6937
27871
3.69336
33744.9
3.69303
41303.2
3.69269
51801
3.69235
64470.2
3.69202
81743.7
3.69168
104391
3.69134
132448
3.69101
166105
3.69067
204366
3.69034
243140
3.69
277675
3.68966
300930
3.68933
308948
3.68899
296183
3.68866
265617
3.68832
225096
3.68799
182798
3.68765
144764
3.68732
113352
3.68698
88760.3
3.68665
69692.6
3.68631
55096.9
3.68598
44610.9
3.68564
36482.4
3.68531
30385.1
3.68497
25655.4
3.68464
21882.4
3.6843
18781.1
3.68397
16359.8
3.68364
14740.6
3.6833
13360.8
3.68297
11712.9
3.68263
10669.2
3.6823
9649.38
3.68197
8696.36
3.68163
7727.45
3.6813
7323.12
3.68097
6608.69
3.68063
6049.9
3.6803
5396.41
3.67997
4988.4
3.67963
4750.75
3.6793
4369.97
3.67897
4096.73
3.67864
3799.85
3.6783
3662.59
3.67797
3181.54
3.67764
3167.65
3.67731
2838.5
3.67697
2566.5
3.67664
2506.58
3.67631
2280.17
3.67598
2209.02
3.67564
2008.36
3.67531
1966.25
3.67498
1417.92
3.67465
1568.22
3.67432
1789.29
3.67399
1441.04
3.67365
1436.68
3.67332
1099.43
3.67299
1143.94
3.67266
1413.5
3.67233
1081.19
3.672
1126.04
3.67167
895.775
3.67134
892.203
3.67101
800.81
3.67068
1093.44
3.67035
821.724
3.67002
1020.9
3.66969
1151.84
3.66936
980.778
3.66902
561.547
3.66869
486.853
3.66836
548.576
3.66804
634.199
3.66771
481.086
3.66738
435.713
3.66705
594.999
3.66672
508.18
3.66639
493.711
3.66606
75.0741
3.66573
147.591
3.6654
270.138
3.66507
167.425
3.66474
114.226
3.66441
542.929
3.66408
297.271
3.66375
-1.32437
3.66343
369.772
3.6631
40.8149
3.66277
-7.35928
3.66244
173.248
3.66211
56.0445
3.66178
85.143
3.66146
100.997
3.66113
156.144
3.6608
298.992
3.66047
247.058
3.66014
349.082
3.65982
92.5065
3.65949
141.302
3.65916
166.285
3.65883
-79.6362
3.65851
-117.624
3.65818
-32.4102
3.65785
177.111
3.65753
111.803
3.6572
-4.58139
3.65687
2.32677
3.65655
135
3.65622
0
3.65589
0
3.65557
0
3.65524
0
3.65491
0
3.65459
0
3.65426
0
3.65393
0
3.65361
0
3.65328
0
3.65296
0
3.65263
0
3.65231
0
3.65198
0
3.65165
0
3.65133
0
3.651
0
3.65068
0
3.65035
0
3.65003
0
3.6497
0
3.64938
0
3.64905
0
3.64873
0
3.6484
0
3.64808
0
3.64776
0
3.64743
0
3.64711
Cu2p
Cu in vacuum. long shirley, background subtr.
2020
3
8
23
38
57
0
15
Casa Info Follows
0
0
0
0
EX340_CEC356_effect of lens modes.sle
Group = Cu in vacuum
First of group = 0
Analyzer lens = LargeArea:1.5kV
Analyzer slit = 4:7x20c\C:mesh
Scan mode = FixedAnalyzerTransmission
Kinetic energy start = 456.61
Sum of 20 spectra in column containing 20 scans
C:\Users\pielsticker\Lukas\MPI-CEC\Projects\Gas phase background\inelasticscattering\data\N2\Au, Ag, Cu in N2.vms
CasaXP4
XPS
1e+037
Al
1486.61
0
0
0
54.5
180
FAT
20
1
4.156
0
0
0
0
0
Cu2p

-1
kinetic energy
eV
456.61
0.1
2
counts
d
Transmission
d
pulse counting
3
1
0
0
0
0
2
ESCAPE DEPTH TYPE
d
0
MFP Exponent
d
0
2202
1420.77
17475.4
3.64711
4.06635
0
4.06635
0
4.0659
0
4.06545
0
4.065
0
4.06455
0
4.0641
0
4.06366
0
4.06321
0
4.06276
0
4.06231
0
4.06186
0
4.06142
0
4.06097
0
4.06052
0
4.06007
0
4.05963
0
4.05918
0
4.05873
0
4.05829
0
4.05784
0
4.05739
0
4.05695
0
4.0565
0
4.05605
0
4.05561
0
4.05516
0
4.05472
0
4.05427
0
4.05383
0
4.05338
0
4.05294
0
4.05249
0
4.05205
0
4.0516
0
4.05116
0
4.05071
0
4.05027
0
4.04982
0
4.04938
0
4.04894
0
4.04849
0
4.04805
0
4.04761
0
4.04716
0
4.04672
0
4.04628
0
4.04584
0
4.04539
0
4.04495
0
4.04451
0
4.04407
93.8003
4.04362
9.01311
4.04318
-103.24
4.04274
-283.037
4.0423
-451.993
4.04186
-11.3767
4.04142
-11.8598
4.04098
79.0528
4.04053
150.067
4.04009
-148.722
4.03965
-9.30832
4.03921
237.33
4.03877
-66.9749
4.03833
23.9593
4.03789
213.764
4.03745
85.4855
4.03701
186.852
4.03657
278.548
4.03613
48.7178
4.03569
285.625
4.03525
-236.838
4.03482
-39.1822
4.03438
-14.861
4.03394
99.0801
4.0335
52.9555
4.03306
181.314
4.03262
4.52023
4.03218
-178.126
4.03175
81.6903
4.03131
-30.3664
4.03087
328.401
4.03043
493.404
4.03
583.635
4.02956
351.536
4.02912
544.011
4.02868
738.062
4.02825
535.525
4.02781
330.296
4.02737
427.204
4.02694
283.208
4.0265
258.275
4.02606
207.271
4.02563
234.905
4.02519
340.09
4.02476
580.316
4.02432
507.038
4.02389
697.832
4.02345
433.35
4.02301
112.71
4.02258
116.676
4.02214
844.68
4.02171
853.796
4.02128
912.495
4.02084
741.251
4.02041
467.317
4.01997
852.231
4.01954
719.456
4.0191
1086.3
4.01867
929.527
4.01824
480.311
4.0178
766.002
4.01737
1082.84
4.01694
934.876
4.0165
763.864
4.01607
973.351
4.01564
1108.43
4.0152
534.591
4.01477
860.016
4.01434
1082.96
4.01391
916.464
4.01348
963.837
4.01304
698.131
4.01261
1008.17
4.01218
902.853
4.01175
756.23
4.01132
1105.51
4.01089
1152.65
4.01045
945.293
4.01002
1236.55
4.00959
965.931
4.00916
984.633
4.00873
1267.14
4.0083
1378.1
4.00787
1084.75
4.00744
1052.85
4.00701
1375.4
4.00658
1238.07
4.00615
963.541
4.00572
1411.45
4.00529
1440
4.00486
1002.93
4.00443
1275.65
4.004
1434.59
4.00357
1388.57
4.00315
1218.91
4.00272
1524.18
4.00229
1211.2
4.00186
1331.1
4.00143
1151.44
4.001
1298.49
4.00058
1706.42
4.00015
1305.48
3.99972
1662.14
3.99929
1669.52
3.99887
1621.63
3.99844
1479.54
3.99801
1242.01
3.99758
1448.07
3.99716
1585.53
3.99673
1567.46
3.9963
1573.6
3.99588
1720.25
3.99545
1691.26
3.99502
2000.71
3.9946
1860.36
3.99417
1581.32
3.99375
1649.57
3.99332
1525.24
3.9929
1630.86
3.99247
1609.65
3.99204
2029.54
3.99162
1942.41
3.99119
1959.6
3.99077
2063.44
3.99035
2063.28
3.98992
1954.66
3.9895
1626.18
3.98907
2220.74
3.98865
2111.95
3.98822
2140.7
3.9878
2074.46
3.98738
2412.59
3.98695
2097.98
3.98653
2070.53
3.98611
2235.11
3.98568
2125.84
3.98526
2363.11
3.98484
1998.96
3.98441
2160.93
3.98399
2442.81
3.98357
2116.13
3.98315
2265.25
3.98272
2168.84
3.9823
2247.04
3.98188
2513.52
3.98146
2205.47
3.98104
2044.18
3.98061
2137.52
3.98019
2060.06
3.97977
2279.2
3.97935
2211.65
3.97893
2557.6
3.97851
2803.19
3.97809
2266.62
3.97767
2677.03
3.97725
2504.8
3.97683
2579.07
3.97641
2639.53
3.97599
2638.19
3.97557
2701.64
3.97515
2901.57
3.97473
2592.36
3.97431
2491.11
3.97389
2719.79
3.97347
3022.69
3.97305
2817.5
3.97263
2805.3
3.97221
2664.7
3.97179
2683.92
3.97137
2784.99
3.97095
2791.76
3.97054
2641.52
3.97012
3084.42
3.9697
2732.11
3.96928
2687.94
3.96886
2851.9
3.96845
3112.13
3.96803
3092.54
3.96761
3154.23
3.96719
3227.43
3.96678
3133.39
3.96636
3092.6
3.96594
2937.08
3.96553
2865.16
3.96511
3314.78
3.96469
3181.41
3.96428
3229.41
3.96386
3086.51
3.96344
3148.49
3.96303
2695.93
3.96261
3169.85
3.9622
3340.41
3.96178
3309.72
3.96136
3398.36
3.96095
3102.28
3.96053
3007.27
3.96012
3332.11
3.9597
3457.14
3.95929
3484
3.95887
3614.85
3.95846
3650.05
3.95804
3687.1
3.95763
3364.79
3.95722
3476.54
3.9568
3917.62
3.95639
3682.07
3.95597
3729.78
3.95556
3806.3
3.95515
3803.42
3.95473
3318.55
3.95432
3433.14
3.95391
3728.35
3.95349
4060.93
3.95308
3839.3
3.95267
3960.84
3.95226
4042.8
3.95184
3675.04
3.95143
4068.63
3.95102
4155.35
3.95061
4089.47
3.95019
4222.59
3.94978
4075.39
3.94937
4353.39
3.94896
4209.99
3.94855
4131.98
3.94814
4352.08
3.94773
4028.01
3.94731
4434.43
3.9469
4414.12
3.94649
4505.53
3.94608
4328.8
3.94567
4189.87
3.94526
4693.55
3.94485
4820.52
3.94444
4643.94
3.94403
4161.26
3.94362
4595.31
3.94321
4790.13
3.9428
4347.22
3.94239
4297.74
3.94198
4590.18
3.94157
4628.58
3.94116
4705.58
3.94075
4753.45
3.94034
4780.56
3.93994
4683.93
3.93953
4998.05
3.93912
4946.9
3.93871
5163.35
3.9383
5146.78
3.93789
5083.02
3.93749
4905.61
3.93708
4955.97
3.93667
4938.1
3.93626
4928.32
3.93585
4859.04
3.93545
5138.16
3.93504
5049.95
3.93463
5418.47
3.93423
5211.1
3.93382
5352.32
3.93341
5394.9
3.93301
5669.28
3.9326
5128.38
3.93219
5459.46
3.93179
5576.1
3.93138
5726.36
3.93097
5516.72
3.93057
5293.76
3.93016
6030.55
3.92976
5715.69
3.92935
5612.28
3.92895
5466.17
3.92854
5573.21
3.92814
5748.6
3.92773
5739.67
3.92733
6019.75
3.92692
5926.09
3.92652
5972.49
3.92611
5712.23
3.92571
5596.9
3.9253
5598.38
3.9249
5841.8
3.92449
5881.78
3.92409
5830.88
3.92369
5851.52
3.92328
5597.69
3.92288
6180.39
3.92248
6366.46
3.92207
6672.86
3.92167
6108.47
3.92127
5967.67
3.92086
6247.26
3.92046
6341.7
3.92006
6336.92
3.91966
6553.36
3.91925
6706.11
3.91885
6359.07
3.91845
6427.82
3.91805
6548.95
3.91765
6339.58
3.91724
6496.44
3.91684
6661.52
3.91644
6556.66
3.91604
6405.19
3.91564
6398
3.91524
6571.26
3.91484
6383.55
3.91443
6673.56
3.91403
6842.91
3.91363
6674.01
3.91323
6506.58
3.91283
6756.3
3.91243
6879.9
3.91203
6962.72
3.91163
6768.06
3.91123
7133.82
3.91083
6791.9
3.91043
6448.88
3.91003
6571.84
3.90963
6546.87
3.90923
6864.85
3.90883
7103.77
3.90844
7159.56
3.90804
7205.83
3.90764
6963.55
3.90724
6925.51
3.90684
6593.2
3.90644
6940.19
3.90604
7280.76
3.90565
6978.2
3.90525
6936.98
3.90485
6966.2
3.90445
7471.34
3.90405
7219.73
3.90366
7332.47
3.90326
7295.36
3.90286
7682.51
3.90246
7106.13
3.90207
7493.6
3.90167
7398.34
3.90127
7579.13
3.90088
7232.04
3.90048
7505.33
3.90008
7512.13
3.89969
7845.2
3.89929
7426.48
3.89889
7687.13
3.8985
7999.42
3.8981
8016.24
3.89771
7372.34
3.89731
7409.4
3.89692
7640.88
3.89652
7978.14
3.89612
7655.05
3.89573
7639.93
3.89533
7984.1
3.89494
7798.21
3.89454
8253.67
3.89415
8299.89
3.89375
7991.17
3.89336
7914.24
3.89297
8223.06
3.89257
8351.05
3.89218
8206.54
3.89178
8407.32
3.89139
8003.02
3.891
8288.82
3.8906
8326.08
3.89021
8491.58
3.88982
8264.15
3.88942
8538.41
3.88903
8196.49
3.88864
8335.86
3.88824
8404.33
3.88785
8253.19
3.88746
8473.26
3.88706
8365.77
3.88667
8829.05
3.88628
8754.72
3.88589
8913.01
3.8855
9081.25
3.8851
9055.05
3.88471
8986.75
3.88432
8851.35
3.88393
8936.08
3.88354
9217.21
3.88315
9369.46
3.88275
9025.01
3.88236
9803.38
3.88197
8901.06
3.88158
9131.46
3.88119
9509.71
3.8808
9531.78
3.88041
9106.46
3.88002
9389.63
3.87963
9415.64
3.87924
9460.72
3.87885
9678
3.87846
9588.26
3.87807
9222.3
3.87768
9493.12
3.87729
9781.05
3.8769
9355.28
3.87651
9231.12
3.87612
9378.18
3.87573
9878.05
3.87534
9917.98
3.87495
10001.6
3.87457
9809
3.87418
9794.45
3.87379
9872.01
3.8734
10603.8
3.87301
10238.6
3.87262
10123.5
3.87224
10288.7
3.87185
10406.3
3.87146
10535.8
3.87107
10927.9
3.87068
10745.5
3.8703
10524.1
3.86991
10580.3
3.86952
10589.4
3.86913
10754.7
3.86875
10687.3
3.86836
11159.8
3.86797
10461.5
3.86759
10918.6
3.8672
11127.2
3.86681
10901.5
3.86643
11029.4
3.86604
10791.3
3.86566
11447.6
3.86527
11535.2
3.86488
11331.5
3.8645
11247.1
3.86411
11411.9
3.86373
11559.9
3.86334
11444.9
3.86296
11659
3.86257
11755.5
3.86219
11770.2
3.8618
11802.9
3.86142
11821.7
3.86103
12364.9
3.86065
11839.2
3.86026
11704.9
3.85988
12086
3.85949
12265.5
3.85911
12205.6
3.85872
12307.1
3.85834
12256.3
3.85796
12330.5
3.85757
12357
3.85719
12459.9
3.85681
12682.2
3.85642
12728.9
3.85604
12589.4
3.85566
12748.8
3.85527
12536.7
3.85489
12569.3
3.85451
12724.5
3.85413
13098.4
3.85374
12983.9
3.85336
12867
3.85298
13158.4
3.8526
13038.4
3.85221
13173.7
3.85183
13249.4
3.85145
13000.3
3.85107
12853.4
3.85069
13323.5
3.8503
13716.4
3.84992
13629.3
3.84954
13307.2
3.84916
13474.8
3.84878
13652
3.8484
13109.7
3.84802
13656.2
3.84764
13836.3
3.84726
14056.5
3.84688
13518.5
3.8465
13786.9
3.84612
13899.4
3.84574
14175.6
3.84535
13910.4
3.84497
14227.6
3.8446
14252.9
3.84422
14020.1
3.84384
14388.9
3.84346
14270.6
3.84308
14449.9
3.8427
14436.6
3.84232
14548.3
3.84194
14696.4
3.84156
14780.3
3.84118
14747.5
3.8408
14892.7
3.84042
15090.4
3.84005
14758.2
3.83967
15166.9
3.83929
15039.6
3.83891
14872.5
3.83853
15169.9
3.83815
15617.3
3.83778
15565.6
3.8374
14970.9
3.83702
15116
3.83664
15588.7
3.83627
15498.2
3.83589
15988.3
3.83551
15874.2
3.83514
16333.9
3.83476
16027.9
3.83438
16183.4
3.83401
15576.2
3.83363
16027.8
3.83325
15955
3.83288
16007.4
3.8325
15951.1
3.83212
15975.9
3.83175
16195.4
3.83137
15968.1
3.831
16245.2
3.83062
16256.9
3.83024
16254.1
3.82987
16233.7
3.82949
16242.5
3.82912
16069.3
3.82874
16118.9
3.82837
16152.2
3.82799
16020.9
3.82762
16255.8
3.82724
15962.1
3.82687
16097.3
3.82649
16421.8
3.82612
16174.7
3.82575
16585.5
3.82537
16102.4
3.825
16368.7
3.82462
16245
3.82425
16109.1
3.82388
16457.1
3.8235
16454.4
3.82313
16466.5
3.82276
16313.5
3.82238
16435.6
3.82201
16530.9
3.82164
16436.5
3.82126
16621.8
3.82089
16498.9
3.82052
16735.9
3.82014
16569.1
3.81977
16648.8
3.8194
16658
3.81903
16983.6
3.81865
16342.3
3.81828
16321.9
3.81791
16561.5
3.81754
16817.7
3.81717
16906.9
3.8168
16823.6
3.81642
16677
3.81605
16651.4
3.81568
16680
3.81531
16534.2
3.81494
16474.7
3.81457
16857.9
3.8142
16844.9
3.81383
16702.2
3.81346
16434
3.81308
16602
3.81271
16625.6
3.81234
16487.4
3.81197
16460.7
3.8116
16779.2
3.81123
16725.8
3.81086
16596.3
3.81049
16417.5
3.81012
17072.1
3.80975
16844.2
3.80939
16962.9
3.80902
17072.5
3.80865
17016.6
3.80828
17410.6
3.80791
17140.7
3.80754
17421.2
3.80717
17299.9
3.8068
17462.1
3.80643
17123.2
3.80606
17573.1
3.8057
17625.7
3.80533
17600.7
3.80496
17695.1
3.80459
18033.8
3.80422
18051.5
3.80386
17930.3
3.80349
18299
3.80312
18093.1
3.80275
18287.5
3.80238
18209.2
3.80202
18200.1
3.80165
18180.1
3.80128
18231.4
3.80092
18334
3.80055
18119.2
3.80018
18272.9
3.79982
18201.5
3.79945
17880.9
3.79908
17740.9
3.79872
17474
3.79835
17330
3.79798
17405.9
3.79762
16830.2
3.79725
16528.3
3.79689
16201.9
3.79652
16791.5
3.79615
16629.9
3.79579
16186.4
3.79542
16289.7
3.79506
16393.5
3.79469
16359.2
3.79433
16270.5
3.79396
16037.2
3.7936
15844.6
3.79323
15655.8
3.79287
15455.4
3.7925
15372.3
3.79214
15663.5
3.79177
15467.5
3.79141
15797.2
3.79105
15864.3
3.79068
15407.3
3.79032
15437.2
3.78995
15435.3
3.78959
15380.8
3.78923
15616.4
3.78886
15926.5
3.7885
15733.8
3.78814
16020.5
3.78777
15706.2
3.78741
15701.5
3.78705
16014.3
3.78668
15749.3
3.78632
15848.6
3.78596
16144.6
3.7856
16081
3.78523
16052.4
3.78487
16717.2
3.78451
16162.5
3.78415
15861.8
3.78378
16278.6
3.78342
16422.5
3.78306
16911.3
3.7827
16645.4
3.78234
17083
3.78198
17051
3.78161
17078.7
3.78125
16988.7
3.78089
16852.3
3.78053
16960.5
3.78017
16787.1
3.77981
16917.6
3.77945
17145.8
3.77909
17373.4
3.77873
17064.6
3.77837
16876.5
3.778
17761.1
3.77764
17867.8
3.77728
18196
3.77692
17839.1
3.77656
18053.9
3.7762
18380.5
3.77584
18281.6
3.77548
18471.2
3.77512
18558.8
3.77477
18541.2
3.77441
18739.6
3.77405
19121.1
3.77369
19174.3
3.77333
19330.7
3.77297
19768.6
3.77261
19922.3
3.77225
20005.2
3.77189
20649.3
3.77153
20120
3.77118
20392.9
3.77082
20985.2
3.77046
21215.7
3.7701
21091.8
3.76974
21617.7
3.76938
21993.9
3.76903
22266.9
3.76867
22688.6
3.76831
22706
3.76795
23276.2
3.7676
23770.7
3.76724
23973.9
3.76688
24538.6
3.76652
25201.9
3.76617
26253.6
3.76581
26701.5
3.76545
27310.8
3.7651
28508.8
3.76474
29553.8
3.76438
31093.8
3.76403
32397.5
3.76367
34042.8
3.76331
35999.2
3.76296
38065.5
3.7626
40907.3
3.76225
43872.2
3.76189
47163.9
3.76154
51149.7
3.76118
56443.9
3.76082
61770.6
3.76047
67582.9
3.76011
74439.9
3.75976
82014.7
3.7594
89573.3
3.75905
97231.8
3.75869
104573
3.75834
110016
3.75798
113214
3.75763
113687
3.75727
111331
3.75692
106734
3.75657
99568.1
3.75621
91426.3
3.75586
82366.6
3.7555
74461.7
3.75515
66773.8
3.7548
59727.2
3.75444
53640.5
3.75409
48596.4
3.75373
44293.6
3.75338
40485
3.75303
37741.8
3.75267
34613.6
3.75232
33051.8
3.75197
31341.7
3.75161
29562.3
3.75126
28032
3.75091
26494.1
3.75056
25868.1
3.7502
25295.1
3.74985
24071
3.7495
23425.6
3.74915
23175.6
3.7488
22570.2
3.74844
21987.5
3.74809
21213.1
3.74774
20870.1
3.74739
20884.2
3.74704
20379.5
3.74668
19748.6
3.74633
19187.1
3.74598
18822.2
3.74563
18718.3
3.74528
18421.4
3.74493
17987.8
3.74458
17841.3
3.74423
18141.9
3.74388
17692.8
3.74352
17611.8
3.74317
17300
3.74282
17132.2
3.74247
17406.7
3.74212
17413.8
3.74177
17156.8
3.74142
16934.7
3.74107
17123.6
3.74072
16744.5
3.74037
16999.5
3.74002
17025.1
3.73967
16643.5
3.73932
16530.3
3.73898
16668.9
3.73863
16879
3.73828
16788
3.73793
16869.4
3.73758
16424.8
3.73723
16388.1
3.73688
16908.9
3.73653
16948.6
3.73618
16814.4
3.73583
16568.7
3.73549
16291.5
3.73514
16578
3.73479
16363.5
3.73444
16176
3.73409
15987
3.73375
15544.9
3.7334
15273.6
3.73305
15357.4
3.7327
15217.5
3.73236
14598.7
3.73201
14921.4
3.73166
14182.5
3.73131
14027.5
3.73097
14085.5
3.73062
14049
3.73027
14322.8
3.72993
13870.5
3.72958
13911.6
3.72923
13659.8
3.72889
13548.1
3.72854
13780.2
3.72819
13400.9
3.72785
13251.7
3.7275
13146.8
3.72715
13222.4
3.72681
12936.2
3.72646
12909.4
3.72612
12721.2
3.72577
12342.7
3.72542
11903.2
3.72508
11739.5
3.72473
11766.7
3.72439
11574.9
3.72404
11663.4
3.7237
11069.7
3.72335
10976.3
3.72301
11243.1
3.72266
10789.8
3.72232
10307.6
3.72197
10087
3.72163
9459.02
3.72129
9452.69
3.72094
9053.48
3.7206
8759.66
3.72025
8807.1
3.71991
8410.68
3.71956
7900.54
3.71922
8032.38
3.71888
7462.41
3.71853
7557.97
3.71819
7940.18
3.71785
7362.47
3.7175
7222.16
3.71716
7518.57
3.71682
7394.6
3.71647
7266.05
3.71613
7401.09
3.71579
7514.39
3.71544
7721.59
3.7151
7356.57
3.71476
7534
3.71442
7391.63
3.71407
7646.72
3.71373
7615.97
3.71339
7683.72
3.71305
7957.25
3.7127
7944.97
3.71236
7685.01
3.71202
7680.75
3.71168
7810.18
3.71134
7678.82
3.711
7742.84
3.71065
7476.59
3.71031
7690.75
3.70997
7828.7
3.70963
7750.44
3.70929
7898.19
3.70895
7971.84
3.70861
7910.51
3.70827
8183.07
3.70793
8508.49
3.70759
8481.77
3.70724
8757.34
3.7069
8844.14
3.70656
9002.66
3.70622
9198.87
3.70588
9524.83
3.70554
9718.38
3.7052
10215.5
3.70486
10324.9
3.70452
10038.3
3.70418
10238.5
3.70384
10319
3.7035
10508.4
3.70317
10894.5
3.70283
10915.8
3.70249
11451.1
3.70215
11508.4
3.70181
11547.4
3.70147
11496.5
3.70113
11324.9
3.70079
11976.2
3.70045
11872.8
3.70011
11973.8
3.69978
11851.4
3.69944
12218.5
3.6991
12370.6
3.69876
12686.3
3.69842
12969.6
3.69808
13290.9
3.69775
13761.7
3.69741
13926.5
3.69707
14191.1
3.69673
15232.1
3.6964
16360.2
3.69606
17343.7
3.69572
18547.7
3.69538
20385.6
3.69505
21932.5
3.69471
24124
3.69437
27404.3
3.69404
31029.8
3.6937
35684.5
3.69336
41499.2
3.69303
48982.5
3.69269
59383.3
3.69235
71928.9
3.69202
89042.7
3.69168
111483
3.69134
139274
3.69101
172595
3.69067
210439
3.69034
248715
3.69
282679
3.68966
305314
3.68933
312695
3.68899
299318
3.68866
268202
3.68832
227216
3.68799
184541
3.68765
146207
3.68732
114561
3.68698
89785.9
3.68665
70574.4
3.68631
55865.1
3.68598
45287.2
3.68564
37083.7
3.68531
30923.9
3.68497
26141.5
3.68464
22323.6
3.6843
19183.8
3.68397
16728.9
3.68364
15079.5
3.6833
13672.4
3.68297
12000.5
3.68263
10935
3.6823
9895.47
3.68197
8924.68
3.68163
7939.99
3.6813
7520.7
3.68097
6792.78
3.68063
6221.64
3.6803
5557.15
3.67997
5138.97
3.67963
4891.64
3.6793
4501.95
3.67897
4220.36
3.67864
3915.74
3.6783
3771.01
3.67797
3283.49
3.67764
3263.14
3.67731
2928.21
3.67697
2650.99
3.67664
2585.97
3.67631
2354.92
3.67598
2279.27
3.67564
2074.52
3.67531
2028.41
3.67498
1477.22
3.67465
1624.33
3.67432
1841.76
3.67399
1490.58
3.67365
1483.29
3.67332
1143.82
3.67299
1186.01
3.67266
1452.68
3.67233
1118.17
3.672
1160.72
3.67167
928.648
3.67134
923.263
3.67101
830.245
3.67068
1120.64
3.67035
847.248
3.67002
1044.34
3.66969
1172.91
3.66936
999.831
3.66902
579.456
3.66869
503.774
3.66836
564.378
3.66804
648.702
3.66771
494.606
3.66738
448.345
3.66705
606.408
3.66672
518.547
3.66639
503.064
3.66606
84.2837
3.66573
156.507
3.6654
278.503
3.66507
175.453
3.66474
122.027
3.66441
549.61
3.66408
303.342
3.66375
4.74876
3.66343
375.083
3.6631
46.0486
3.66277
-2.14832
3.66244
178.105
3.66211
60.792
3.66178
89.7198
3.66146
105.37
3.66113
160.198
3.6608
302.429
3.66047
249.985
3.66014
351.285
3.65982
94.5199
3.65949
143.024
3.65916
167.662
3.65883
-78.4259
3.65851
-116.66
3.65818
-31.5148
3.65785
177.638
3.65753
112.098
3.6572
-4.29601
3.65687
2.60771
3.65655
135
3.65622
0
3.65589
0
3.65557
0
3.65524
0
3.65491
0
3.65459
0
3.65426
0
3.65393
0
3.65361
0
3.65328
0
3.65296
0
3.65263
0
3.65231
0
3.65198
0
3.65165
0
3.65133
0
3.651
0
3.65068
0
3.65035
0
3.65003
0
3.6497
0
3.64938
0
3.64905
0
3.64873
0
3.6484
0
3.64808
0
3.64776
0
3.64743
0
3.64711
end of experiment
