C:\Users\Mark\ownCloud\Muelheim Group\Projects\Gas phase background\EX320_CEC356_Cu in He.vms
Survey TF corrected
	Characteristic Energy eV	1486.61	Acquisition Time s	0.1
KE_Survey TF corrected	BE_Survey TF corrected	CPS_Survey TF corrected
874.11	612.5	88317
874.61	612	88288.5
875.11	611.5	88385.6
875.61	611	88485.6
876.11	610.5	88865.5
876.61	610	88733.8
877.11	609.5	89506.8
877.61	609	89350.4
878.11	608.5	89482.1
878.61	608	90241.8
879.11	607.5	90539.9
879.61	607	90788.6
880.11	606.5	90843.4
880.61	606	91342.4
881.11	605.5	91544.4
881.61	605	91771.4
882.11	604.5	92495.7
882.61	604	92980.1
883.11	603.5	93112.7
883.61	603	93661
884.11	602.5	93878.2
884.61	602	94057.6
885.11	601.5	94427.7
885.61	601	95111.6
886.11	600.5	95747.4
886.61	600	96550.6
887.11	599.5	96444.2
887.61	599	96965.2
888.11	598.5	97702.7
888.61	598	98815.3
889.11	597.5	99029.2
889.61	597	99785.7
890.11	596.5	100349
890.61	596	101157
891.11	595.5	101591
891.61	595	101813
892.11	594.5	102803
892.61	594	102480
893.11	593.5	103445
893.61	593	103590
894.11	592.5	103201
894.61	592	103504
895.11	591.5	103485
895.61	591	104106
896.11	590.5	104483
896.61	590	104755
897.11	589.5	104998
897.61	589	105528
898.11	588.5	105401
898.61	588	104681
899.11	587.5	104098
899.61	587	103556
900.11	586.5	103366
900.61	586	102931
901.11	585.5	102247
901.61	585	102471
902.11	584.5	102200
902.61	584	102380
903.11	583.5	102626
903.61	583	103146
904.11	582.5	103498
904.61	582	104273
905.11	581.5	104810
905.61	581	105625
906.11	580.5	107186
906.61	580	108585
907.11	579.5	109845
907.61	579	111737
908.11	578.5	113969
908.61	578	115789
909.11	577.5	117023
909.61	577	118402
910.11	576.5	120410
910.61	576	122630
911.11	575.5	124632
911.61	575	127199
912.11	574.5	131379
912.61	574	136708
913.11	573.5	143438
913.61	573	150395
914.11	572.5	154618
914.61	572	157069
915.11	571.5	159073
915.61	571	161747
916.11	570.5	166169
916.61	570	173259
917.11	569.5	186710
917.61	569	209147
918.11	568.5	235495
918.61	568	250764
919.11	567.5	243180
919.61	567	213549
920.11	566.5	173621
920.61	566	145323
921.11	565.5	129922
921.61	565	117854
922.11	564.5	105036
922.61	564	90704.9
923.11	563.5	77280.6
923.61	563	70289.2
924.11	562.5	67019.3
924.61	562	65067.1
925.11	561.5	63899.3
925.61	561	62677.1
926.11	560.5	61285.5
926.61	560	60139.7
927.11	559.5	59577.8
927.61	559	58097
928.11	558.5	56991.1
928.61	558	55667.4
929.11	557.5	54148.5
929.61	557	52844.9
930.11	556.5	51749.4
930.61	556	50873.8
931.11	555.5	50307.6
931.61	555	50027.7
932.11	554.5	50565.8
932.61	554	50943.8
933.11	553.5	52084.1
933.61	553	53210.2
934.11	552.5	54766.6
934.61	552	55053.6
935.11	551.5	54170.6
935.61	551	52376.2
936.11	550.5	50041.2
936.61	550	49239.1
937.11	549.5	50863.6
937.61	549	54938.3
938.11	548.5	59132.8
938.61	548	60072.9
939.11	547.5	57466.1
939.61	547	52174.7
940.11	546.5	45764.1
940.61	546	40593.5
941.11	545.5	36866.1
941.61	545	33922.2
942.11	544.5	31239.9
942.61	544	28770.5
943.11	543.5	27165.3
943.61	543	26397.6
944.11	542.5	25698.9
944.61	542	25140.5
945.11	541.5	24689.8
945.61	541	24165.1
946.11	540.5	24048.9
946.61	540	23601.2
947.11	539.5	23152.9
947.61	539	22728.1
948.11	538.5	22324
948.61	538	22028
949.11	537.5	21757.9
949.61	537	21644.7
950.11	536.5	21217.3
950.61	536	21090.1
951.11	535.5	20822.6
951.61	535	20890.1
952.11	534.5	21073.9
952.61	534	21079.5
953.11	533.5	21578.2
953.61	533	22852.2
954.11	532.5	24979.3
954.61	532	27895.7
955.11	531.5	30020.9
955.61	531	29752.7
956.11	530.5	27167.4
956.61	530	23433.7
957.11	529.5	20814
957.61	529	19632
958.11	528.5	19138.9
958.61	528	18936.7
959.11	527.5	18937.2
959.61	527	18819.7
960.11	526.5	18889
960.61	526	18710.5
961.11	525.5	18772.4
961.61	525	18778.2
962.11	524.5	18673.9
962.61	524	18776.5
963.11	523.5	18539.6
963.61	523	18731.8
964.11	522.5	18728.9
964.61	522	18544.2
965.11	521.5	18698
965.61	521	18515.7
966.11	520.5	18533
966.61	520	18190
967.11	519.5	18366.9
967.61	519	18239.9
968.11	518.5	18383.9
968.61	518	18516.6
969.11	517.5	18247.8
969.61	517	18233.9
970.11	516.5	18192.4
970.61	516	18200.4
971.11	515.5	17991.5
971.61	515	17985.4
972.11	514.5	18101.4
972.61	514	18004
973.11	513.5	17992.3
973.61	513	17997.1
974.11	512.5	17889.3
974.61	512	18176.2
975.11	511.5	18028.7
975.61	511	17986
976.11	510.5	18148.9
976.61	510	17967.1
977.11	509.5	18158
977.61	509	18011.6
978.11	508.5	18112.1
978.61	508	17944.1
979.11	507.5	18193.5
979.61	507	18074.6
980.11	506.5	18033
980.61	506	18316.9
981.11	505.5	18318.6
981.61	505	18207.7
982.11	504.5	18330.5
982.61	504	18181.4
983.11	503.5	18172.1
983.61	503	18048.8
984.11	502.5	18038.3
984.61	502	18106.8
985.11	501.5	18105.1
985.61	501	18270.5
986.11	500.5	18277.4
986.61	500	18236.1
987.11	499.5	18340.7
987.61	499	18272.9
988.11	498.5	18242.6
988.61	498	18387.5
989.11	497.5	18345.3
989.61	497	18467.8
990.11	496.5	18405
990.61	496	18431.4
991.11	495.5	18294.6
991.61	495	18126.1
992.11	494.5	18251.8
992.61	494	18342.3
993.11	493.5	18287.8
993.61	493	18272.6
994.11	492.5	18558.2
994.61	492	18437.3
995.11	491.5	18519.8
995.61	491	18529.8