VAMAS Surface Chemical Analysis Standard Data Transfer Format 1988 May 4
Not Specified
Not Specified
Not Specified
Not Specified
4
Casa Info Follows CasaXPS Version 2.3.24rev1.1H
0
Created by SpecsLab Prodigy, Version 4.63.4-r87993 
SourceAnalyserAngle: 56.500000 d
NORM
REGULAR
1
1
Exp Variable
d
0
0
0
0
1
test spectrum Ag3d 
1. Ag in 4 mbar He
2020
3
7
17
23
10
0
14
Casa Info Follows
0
0
0
0
EX340_CEC356_effect of lens modes.sle
Group = Ag in 4 mbar He
First of group = 0
Analyzer lens = AngleResolvedMode22:1.5kV
Analyzer slit = 4:7x20c\C:mesh
Scan mode = FixedAnalyzerTransmission
Kinetic energy start = 1036.61
Sum of 28 spectra in column containing 28 scans
C:\Users\Mark\ownCloud\Muelheim Group\Projects\inelasticscattering\data\He\Au, Ag, Cu in He.vms
XPS
1e+037
Al
1486.61
0
0
0
54.5
180
FAT
20
1
4.156
0
0
0
0
0
Ag3d

-1
kinetic energy
eV
1036.61
0.1
2
counts
d
Transmission
d
pulse counting
2.8
1
0
0
0
0
3
ESCAPE DEPTH TYPE
d
0
MFP Exponent
d
0
PROPAGATION_CONVERGED
d
1
2002
79.5553
8822.09
2.57029
2.69189
2718.26
2.69189
2718.26
2.69176
2718.26
2.69162
2718.26
2.69149
2718.26
2.69136
2718.26
2.69123
2718.26
2.6911
2718.26
2.69097
2718.26
2.69084
2718.26
2.69071
2718.26
2.69058
2718.26
2.69045
2718.26
2.69032
2718.26
2.69019
2718.26
2.69006
2718.26
2.68993
2718.26
2.6898
2718.26
2.68967
2718.26
2.68954
2718.26
2.68941
2718.26
2.68928
2718.26
2.68915
2718.26
2.68902
2718.26
2.68889
2718.26
2.68876
2718.26
2.68863
2718.26
2.6885
2718.26
2.68837
2718.26
2.68824
2718.26
2.68811
2718.26
2.68798
2718.26
2.68785
2718.26
2.68772
2718.26
2.68759
2718.26
2.68746
2718.26
2.68733
2718.26
2.6872
2718.26
2.68708
2718.26
2.68695
2718.26
2.68682
2718.26
2.68669
2718.26
2.68656
2718.26
2.68643
2718.26
2.6863
2718.26
2.68617
2718.26
2.68604
2718.26
2.68591
2718.26
2.68578
2718.26
2.68565
2718.26
2.68552
2718.26
2.68539
2718.26
2.68526
2718.26
2.68513
2718.26
2.685
2718.26
2.68487
2718.26
2.68474
2718.26
2.68461
2718.26
2.68449
2718.26
2.68436
2718.26
2.68423
2718.26
2.6841
2718.26
2.68397
2718.26
2.68384
2718.26
2.68371
2718.26
2.68358
2718.26
2.68345
2718.26
2.68332
2718.26
2.68319
2718.26
2.68306
2718.26
2.68294
2718.26
2.68281
2718.26
2.68268
2718.26
2.68255
2718.26
2.68242
2718.26
2.68229
2718.26
2.68216
2718.26
2.68203
2718.26
2.6819
2718.26
2.68177
2718.26
2.68165
2718.26
2.68152
2718.26
2.68139
2718.26
2.68126
2718.26
2.68113
2718.26
2.681
2718.26
2.68087
2718.26
2.68074
2718.26
2.68062
2718.26
2.68049
2718.26
2.68036
2718.26
2.68023
2718.26
2.6801
2718.26
2.67997
2718.26
2.67984
2718.26
2.67971
2718.26
2.67959
2718.26
2.67946
2718.26
2.67933
2718.26
2.6792
2718.27
2.67907
2718.27
2.67894
2718.27
2.67881
2718.27
2.67869
2718.27
2.67856
2718.27
2.67843
2718.27
2.6783
2718.27
2.67817
2718.27
2.67804
2718.27
2.67792
2718.27
2.67779
2718.27
2.67766
2718.27
2.67753
2718.27
2.6774
2718.27
2.67727
2718.27
2.67715
2718.27
2.67702
2718.27
2.67689
2718.27
2.67676
2718.27
2.67663
2718.27
2.67651
2718.27
2.67638
2718.27
2.67625
2718.27
2.67612
2718.27
2.67599
2718.27
2.67586
2718.27
2.67574
2718.27
2.67561
2718.27
2.67548
2718.27
2.67535
2718.27
2.67522
2718.27
2.6751
2718.27
2.67497
2718.27
2.67484
2718.27
2.67471
2718.27
2.67459
2718.27
2.67446
2718.27
2.67433
2718.27
2.6742
2718.27
2.67407
2718.27
2.67395
2718.27
2.67382
2718.27
2.67369
2718.27
2.67356
2718.27
2.67344
2718.27
2.67331
2718.27
2.67318
2718.27
2.67305
2718.27
2.67292
2718.27
2.6728
2718.27
2.67267
2718.27
2.67254
2718.27
2.67241
2718.27
2.67229
2718.27
2.67216
2718.27
2.67203
2718.27
2.6719
2718.27
2.67178
2718.27
2.67165
2718.27
2.67152
2718.27
2.67139
2718.27
2.67127
2718.27
2.67114
2718.27
2.67101
2718.27
2.67088
2718.27
2.67076
2718.27
2.67063
2718.27
2.6705
2718.27
2.67038
2718.27
2.67025
2718.27
2.67012
2718.27
2.66999
2718.27
2.66987
2718.27
2.66974
2718.27
2.66961
2718.27
2.66949
2718.27
2.66936
2718.27
2.66923
2718.27
2.6691
2718.27
2.66898
2718.27
2.66885
2718.27
2.66872
2718.27
2.6686
2718.27
2.66847
2718.27
2.66834
2718.27
2.66821
2718.27
2.66809
2718.27
2.66796
2718.27
2.66783
2718.27
2.66771
2718.27
2.66758
2718.27
2.66745
2718.27
2.66733
2718.27
2.6672
2718.27
2.66707
2718.27
2.66695
2718.27
2.66682
2718.27
2.66669
2718.27
2.66657
2718.27
2.66644
2718.27
2.66631
2718.27
2.66619
2718.27
2.66606
2718.27
2.66593
2718.27
2.66581
2718.27
2.66568
2718.27
2.66555
2718.27
2.66543
2718.27
2.6653
2718.27
2.66517
2718.27
2.66505
2718.27
2.66492
2718.28
2.66479
2718.28
2.66467
2718.28
2.66454
2718.28
2.66441
2718.28
2.66429
2718.28
2.66416
2718.28
2.66403
2718.28
2.66391
2718.28
2.66378
2718.28
2.66366
2718.28
2.66353
2718.28
2.6634
2718.28
2.66328
2718.28
2.66315
2718.28
2.66302
2718.28
2.6629
2718.28
2.66277
2718.28
2.66265
2718.28
2.66252
2718.28
2.66239
2718.28
2.66227
2718.28
2.66214
2718.28
2.66202
2718.28
2.66189
2718.28
2.66176
2718.28
2.66164
2718.28
2.66151
2718.28
2.66139
2718.28
2.66126
2718.28
2.66113
2718.28
2.66101
2718.28
2.66088
2718.28
2.66076
2718.28
2.66063
2718.28
2.6605
2718.28
2.66038
2718.28
2.66025
2718.28
2.66013
2718.28
2.66
2718.28
2.65987
2718.28
2.65975
2718.28
2.65962
2718.28
2.6595
2718.28
2.65937
2718.28
2.65925
2718.28
2.65912
2718.28
2.65899
2718.28
2.65887
2718.28
2.65874
2718.28
2.65862
2718.28
2.65849
2718.28
2.65837
2718.28
2.65824
2718.28
2.65812
2718.28
2.65799
2718.28
2.65786
2718.28
2.65774
2718.28
2.65761
2718.28
2.65749
2718.28
2.65736
2718.28
2.65724
2718.28
2.65711
2718.29
2.65699
2718.29
2.65686
2718.29
2.65674
2718.29
2.65661
2718.29
2.65649
2718.29
2.65636
2718.29
2.65624
2718.29
2.65611
2718.29
2.65598
2718.29
2.65586
2718.29
2.65573
2718.29
2.65561
2718.29
2.65548
2718.29
2.65536
2718.29
2.65523
2718.29
2.65511
2718.29
2.65498
2718.29
2.65486
2718.29
2.65473
2718.29
2.65461
2718.29
2.65448
2718.29
2.65436
2718.29
2.65423
2718.29
2.65411
2718.29
2.65398
2718.29
2.65386
2718.29
2.65373
2718.29
2.65361
2718.29
2.65348
2718.29
2.65336
2718.29
2.65323
2718.29
2.65311
2718.29
2.65298
2718.29
2.65286
2718.29
2.65273
2718.29
2.65261
2718.29
2.65249
2718.29
2.65236
2718.29
2.65224
2718.29
2.65211
2718.29
2.65199
2718.3
2.65186
2718.3
2.65174
2718.3
2.65161
2718.3
2.65149
2718.3
2.65136
2718.3
2.65124
2718.3
2.65111
2718.3
2.65099
2718.3
2.65087
2718.3
2.65074
2718.3
2.65062
2718.3
2.65049
2718.3
2.65037
2718.3
2.65024
2718.3
2.65012
2718.3
2.64999
2718.3
2.64987
2718.3
2.64975
2718.3
2.64962
2718.3
2.6495
2718.3
2.64937
2718.3
2.64925
2718.3
2.64912
2718.3
2.649
2718.3
2.64888
2718.3
2.64875
2718.3
2.64863
2718.3
2.6485
2718.3
2.64838
2718.3
2.64826
2718.3
2.64813
2718.31
2.64801
2718.31
2.64788
2718.31
2.64776
2718.31
2.64763
2718.31
2.64751
2718.31
2.64739
2718.31
2.64726
2718.31
2.64714
2718.31
2.64701
2718.31
2.64689
2718.31
2.64677
2718.31
2.64664
2718.31
2.64652
2718.31
2.6464
2718.31
2.64627
2718.31
2.64615
2718.31
2.64602
2718.31
2.6459
2718.31
2.64578
2718.31
2.64565
2718.31
2.64553
2718.31
2.6454
2718.31
2.64528
2718.31
2.64516
2718.32
2.64503
2718.32
2.64491
2718.32
2.64479
2718.32
2.64466
2718.32
2.64454
2718.32
2.64442
2718.32
2.64429
2718.32
2.64417
2718.32
2.64404
2718.32
2.64392
2718.32
2.6438
2718.32
2.64367
2718.32
2.64355
2718.32
2.64343
2718.32
2.6433
2718.32
2.64318
2718.32
2.64306
2718.32
2.64293
2718.32
2.64281
2718.33
2.64269
2718.33
2.64256
2718.33
2.64244
2718.33
2.64232
2718.33
2.64219
2718.33
2.64207
2718.33
2.64195
2718.33
2.64182
2718.33
2.6417
2718.33
2.64158
2718.33
2.64145
2718.33
2.64133
2718.33
2.64121
2718.33
2.64108
2718.33
2.64096
2718.33
2.64084
2718.34
2.64072
2718.34
2.64059
2718.34
2.64047
2718.34
2.64035
2718.34
2.64022
2718.34
2.6401
2718.34
2.63998
2718.34
2.63985
2718.34
2.63973
2718.34
2.63961
2718.34
2.63949
2718.34
2.63936
2718.34
2.63924
2718.34
2.63912
2718.35
2.63899
2718.35
2.63887
2718.35
2.63875
2718.35
2.63863
2718.35
2.6385
2718.35
2.63838
2718.35
2.63826
2718.35
2.63813
2718.35
2.63801
2718.35
2.63789
2718.35
2.63777
2718.35
2.63764
2718.36
2.63752
2718.36
2.6374
2718.36
2.63728
2718.36
2.63715
2718.36
2.63703
2718.36
2.63691
2718.36
2.63679
2718.36
2.63666
2718.36
2.63654
2718.36
2.63642
2718.37
2.6363
2718.37
2.63617
2718.37
2.63605
2718.37
2.63593
2718.37
2.63581
2718.37
2.63568
2718.37
2.63556
2718.37
2.63544
2718.37
2.63532
2718.38
2.63519
2718.38
2.63507
2718.38
2.63495
2718.38
2.63483
2718.38
2.63471
2718.38
2.63458
2718.38
2.63446
2718.38
2.63434
2718.38
2.63422
2718.39
2.63409
2718.39
2.63397
2718.39
2.63385
2718.39
2.63373
2718.39
2.63361
2718.39
2.63348
2718.39
2.63336
2718.4
2.63324
2718.4
2.63312
2718.4
2.633
2718.4
2.63287
2718.4
2.63275
2718.4
2.63263
2718.4
2.63251
2718.41
2.63239
2718.41
2.63226
2718.41
2.63214
2718.41
2.63202
2718.41
2.6319
2718.41
2.63178
2718.41
2.63166
2718.42
2.63153
2718.42
2.63141
2718.42
2.63129
2718.42
2.63117
2718.42
2.63105
2718.43
2.63092
2718.43
2.6308
2718.43
2.63068
2718.43
2.63056
2718.43
2.63044
2718.43
2.63032
2718.44
2.63019
2718.44
2.63007
2718.44
2.62995
2718.44
2.62983
2718.44
2.62971
2718.45
2.62959
2718.45
2.62947
2718.45
2.62934
2718.45
2.62922
2718.46
2.6291
2718.46
2.62898
2718.46
2.62886
2718.46
2.62874
2718.46
2.62862
2718.47
2.62849
2718.47
2.62837
2718.47
2.62825
2718.47
2.62813
2718.48
2.62801
2718.48
2.62789
2718.48
2.62777
2718.48
2.62764
2718.49
2.62752
2718.49
2.6274
2718.49
2.62728
2718.5
2.62716
2718.5
2.62704
2718.5
2.62692
2718.5
2.6268
2718.51
2.62668
2718.51
2.62655
2718.51
2.62643
2718.52
2.62631
2718.52
2.62619
2718.52
2.62607
2718.53
2.62595
2718.53
2.62583
2718.53
2.62571
2718.54
2.62559
2718.54
2.62547
2718.54
2.62534
2718.55
2.62522
2718.55
2.6251
2718.55
2.62498
2718.56
2.62486
2718.56
2.62474
2718.57
2.62462
2718.57
2.6245
2718.57
2.62438
2718.58
2.62426
2718.58
2.62414
2718.59
2.62401
2718.59
2.62389
2718.6
2.62377
2718.6
2.62365
2718.6
2.62353
2718.61
2.62341
2718.61
2.62329
2718.62
2.62317
2718.62
2.62305
2718.63
2.62293
2718.63
2.62281
2718.64
2.62269
2718.64
2.62257
2718.65
2.62245
2718.65
2.62233
2718.66
2.62221
2718.67
2.62209
2718.67
2.62196
2718.68
2.62184
2718.68
2.62172
2718.69
2.6216
2718.7
2.62148
2718.7
2.62136
2718.71
2.62124
2718.72
2.62112
2718.72
2.621
2718.73
2.62088
2718.74
2.62076
2718.74
2.62064
2718.75
2.62052
2718.76
2.6204
2718.77
2.62028
2718.77
2.62016
2718.78
2.62004
2718.79
2.61992
2718.8
2.6198
2718.81
2.61968
2718.82
2.61956
2718.82
2.61944
2718.83
2.61932
2718.84
2.6192
2718.85
2.61908
2718.86
2.61896
2718.87
2.61884
2718.88
2.61872
2718.89
2.6186
2718.9
2.61848
2718.91
2.61836
2718.92
2.61824
2718.93
2.61812
2718.95
2.618
2718.96
2.61788
2718.97
2.61776
2718.98
2.61764
2718.99
2.61752
2719.01
2.6174
2719.02
2.61728
2719.03
2.61716
2719.05
2.61704
2719.06
2.61692
2719.08
2.6168
2719.09
2.61668
2719.11
2.61656
2719.12
2.61644
2719.14
2.61632
2719.15
2.6162
2719.17
2.61608
2719.19
2.61596
2719.21
2.61584
2719.22
2.61572
2719.24
2.6156
2719.26
2.61548
2719.28
2.61536
2719.3
2.61524
2719.32
2.61512
2719.34
2.61501
2719.36
2.61489
2719.38
2.61477
2719.41
2.61465
2719.43
2.61453
2719.45
2.61441
2719.48
2.61429
2719.51
2.61417
2719.53
2.61405
2719.56
2.61393
2719.59
2.61381
2719.61
2.61369
2719.64
2.61357
2719.67
2.61345
2719.7
2.61333
2719.74
2.61321
2719.77
2.6131
2719.8
2.61298
2719.84
2.61286
2719.87
2.61274
2719.91
2.61262
2719.95
2.6125
2719.99
2.61238
2720.03
2.61226
2720.07
2.61214
2720.11
2.61202
2720.16
2.6119
2720.21
2.61178
2720.25
2.61167
2720.3
2.61155
2720.36
2.61143
2720.41
2.61131
2720.46
2.61119
2720.52
2.61107
2720.58
2.61095
2720.64
2.61083
2720.7
2.61071
2720.77
2.61059
2720.84
2.61048
2720.91
2.61036
2720.98
2.61024
2721.05
2.61012
2721.13
2.61
2721.22
2.60988
2721.3
2.60976
2721.39
2.60964
2721.48
2.60953
2721.58
2.60941
2721.67
2.60929
2721.78
2.60917
2721.89
2.60905
2722
2.60893
2722.12
2.60881
2722.24
2.60869
2722.37
2.60858
2722.51
2.60846
2722.64
2.60834
2722.79
2.60822
2722.95
2.6081
2723.11
2.60798
2723.26
2.60786
2723.45
2.60775
2723.64
2.60763
2723.83
2.60751
2724.02
2.60739
2724.25
2.60727
2724.48
2.60715
2724.71
2.60703
2724.94
2.60692
2725.22
2.6068
2725.5
2.60668
2725.79
2.60656
2726.09
2.60644
2726.43
2.60632
2726.78
2.60621
2727.14
2.60609
2727.52
2.60597
2727.96
2.60585
2728.4
2.60573
2728.84
2.60561
2729.34
2.6055
2729.89
2.60538
2730.46
2.60526
2731.02
2.60514
2731.68
2.60502
2732.41
2.60491
2733.15
2.60479
2733.88
2.60467
2734.78
2.60455
2735.75
2.60443
2736.72
2.60432
2737.7
2.6042
2738.95
2.60408
2740.27
2.60396
2741.6
2.60384
2742.93
2.60373
2744.72
2.60361
2746.57
2.60349
2748.43
2.60337
2750.29
2.60325
2752.97
2.60314
2755.65
2.60302
2758.33
2.6029
2761.18
2.60278
2765.21
2.60266
2769.25
2.60255
2773.3
2.60243
2777.87
2.60231
2784.27
2.60219
2790.67
2.60208
2797.09
2.60196
2804.97
2.60184
2815.79
2.60172
2823.76
2.6016
2835.92
2.60149
2850.06
2.60137
2866.62
2.60125
2886.19
2.60113
2909.45
2.60102
2937.33
2.6009
2971.07
2.60078
3012.39
2.60066
3063.53
2.60055
3127.69
2.60043
3209.45
2.60031
3315.71
2.60019
3456.72
2.60008
3648.98
2.59996
3920.47
2.59984
4321.66
2.59972
4946.89
2.59961
5973.51
2.59949
7735.96
2.59937
10832.2
2.59925
16231.9
2.59914
25294.4
2.59902
39535.6
2.5989
59944.6
2.59878
86033.5
2.59867
114967
2.59855
141534
2.59843
159533
2.59832
164130
2.5982
153980
2.59808
131971
2.59796
103767
2.59785
75428.2
2.59773
51338.1
2.59761
33358.1
2.5975
21278.9
2.59738
13810.2
2.59726
9442.94
2.59714
6955.93
2.59703
5532.67
2.59691
4691.98
2.59679
4170.77
2.59668
3830.49
2.59656
3596.77
2.59644
3429.66
2.59632
3306.45
2.59621
3214.58
2.59609
3144.24
2.59597
3089.53
2.59586
3046.62
2.59574
3014.34
2.59562
2988.89
2.59551
2968.79
2.59539
2953.55
2.59527
2944.44
2.59516
2938.08
2.59504
2933.96
2.59492
2936.52
2.59481
2941.23
2.59469
2942.02
2.59457
2952.93
2.59446
2966.7
2.59434
2983.94
2.59422
3005.82
2.59411
3034.94
2.59399
3070.69
2.59387
3114.83
2.59376
3170.11
2.59364
3240.42
2.59352
3329.38
2.59341
3443.51
2.59329
3592.79
2.59317
3792.31
2.59306
4065.02
2.59294
4450.57
2.59282
5020.84
2.59271
5910.54
2.59259
7371.59
2.59247
9876.55
2.59236
14283.3
2.59224
21976.6
2.59212
34904
2.59201
55244.9
2.59189
84474.9
2.59178
121930
2.59166
163591
2.59154
202000
2.59143
228203
2.59131
235172
2.59119
220902
2.59108
189403
2.59096
148842
2.59084
107964
2.59073
73140.4
2.59061
47113.2
2.5905
29607
2.59038
18767.4
2.59026
12430.9
2.59015
8821.03
2.59003
6754.46
2.58992
5533.2
2.5898
4775.91
2.58968
4279.93
2.58957
3938.06
2.58945
3692.74
2.58934
3510.91
2.58922
3372.74
2.5891
3265.64
2.58899
3181.14
2.58887
3113.45
2.58876
3058.56
2.58864
3013.55
2.58852
2976.24
2.58841
2945.04
2.58829
2918.74
2.58818
2896.41
2.58806
2877.32
2.58794
2860.88
2.58783
2849.59
2.58771
2834.43
2.5876
2825.29
2.58748
2816.15
2.58736
2807.01
2.58725
2798.43
2.58713
2792.69
2.58702
2786.94
2.5869
2781.2
2.58679
2775.99
2.58667
2772.19
2.58655
2768.39
2.58644
2764.6
2.58632
2761.26
2.58621
2758.65
2.58609
2756.03
2.58598
2753.42
2.58586
2751.18
2.58575
2749.32
2.58563
2747.46
2.58551
2745.61
2.5854
2744.05
2.58528
2742.69
2.58517
2741.33
2.58505
2739.98
2.58494
2738.86
2.58482
2737.84
2.58471
2736.82
2.58459
2735.81
2.58448
2734.99
2.58436
2734.21
2.58425
2733.43
2.58413
2732.65
2.58401
2732.04
2.5839
2731.43
2.58378
2730.83
2.58367
2730.23
2.58355
2729.75
2.58344
2729.27
2.58332
2728.79
2.58321
2728.33
2.58309
2727.95
2.58298
2727.56
2.58286
2727.18
2.58275
2726.82
2.58263
2726.51
2.58252
2726.19
2.5824
2725.89
2.58229
2725.6
2.58217
2725.34
2.58206
2725.09
2.58194
2724.83
2.58183
2724.6
2.58171
2724.39
2.5816
2724.18
2.58148
2723.97
2.58137
2723.78
2.58125
2723.6
2.58114
2723.42
2.58102
2723.25
2.58091
2723.09
2.58079
2722.94
2.58068
2722.8
2.58056
2722.65
2.58045
2722.52
2.58033
2722.39
2.58022
2722.27
2.5801
2722.14
2.57999
2722.03
2.57987
2721.92
2.57976
2721.82
2.57964
2721.71
2.57953
2721.62
2.57941
2721.52
2.5793
2721.43
2.57918
2721.34
2.57907
2721.26
2.57896
2721.18
2.57884
2721.1
2.57873
2721.03
2.57861
2720.96
2.5785
2720.89
2.57838
2720.82
2.57827
2720.75
2.57815
2720.69
2.57804
2720.63
2.57792
2720.57
2.57781
2720.51
2.5777
2720.46
2.57758
2720.41
2.57747
2720.35
2.57735
2720.3
2.57724
2720.26
2.57712
2720.21
2.57701
2720.16
2.57689
2720.12
2.57678
2720.08
2.57667
2720.04
2.57655
2719.99
2.57644
2719.96
2.57632
2719.92
2.57621
2719.88
2.57609
2719.85
2.57598
2719.81
2.57587
2719.78
2.57575
2719.75
2.57564
2719.71
2.57552
2719.68
2.57541
2719.65
2.5753
2719.63
2.57518
2719.6
2.57507
2719.57
2.57495
2719.54
2.57484
2719.52
2.57472
2719.49
2.57461
2719.47
2.5745
2719.44
2.57438
2719.42
2.57427
2719.4
2.57415
2719.38
2.57404
2719.35
2.57393
2719.33
2.57381
2719.31
2.5737
2719.29
2.57358
2719.27
2.57347
2719.25
2.57336
2719.24
2.57324
2719.22
2.57313
2719.2
2.57302
2719.18
2.5729
2719.17
2.57279
2719.15
2.57267
2719.13
2.57256
2719.12
2.57245
2719.1
2.57233
2719.09
2.57222
2719.07
2.5721
2719.06
2.57199
2719.05
2.57188
2719.03
2.57176
2719.02
2.57165
2719.01
2.57154
2718.99
2.57142
2718.98
2.57131
2718.97
2.5712
2718.96
2.57108
2718.95
2.57097
2718.94
2.57085
2718.92
2.57074
2718.91
2.57063
2718.9
2.57051
2718.89
2.5704
2718.88
2.57029
end of experiment
