CasaXP2
Pr:Cu2p
	Characteristic Energy eV	1486.61	Acquisition Time s	0.5
KE_Pr:Cu2p	BE_Pr:Cu2p	CPS_Pr:Cu2p
456.61	1030	12307.9
456.71	1029.9	12307.9
456.81	1029.8	12307.9
456.91	1029.7	12307.9
457.01	1029.6	12307.9
457.11	1029.5	12307.9
457.21	1029.4	12307.9
457.31	1029.3	12307.9
457.41	1029.2	12307.9
457.51	1029.1	12307.9
457.61	1029	12307.9
457.71	1028.9	12307.9
457.81	1028.8	12307.9
457.91	1028.7	12307.9
458.01	1028.6	12307.9
458.11	1028.5	12307.9
458.21	1028.4	12307.9
458.31	1028.3	12307.9
458.41	1028.2	12307.9
458.51	1028.1	12307.9
458.61	1028	12307.9
458.71	1027.9	12307.9
458.81	1027.8	12307.9
458.91	1027.7	12307.9
459.01	1027.6	12307.9
459.11	1027.5	12307.9
459.21	1027.4	12307.9
459.31	1027.3	12307.9
459.41	1027.2	12307.9
459.51	1027.1	12307.9
459.61	1027	12307.9
459.71	1026.9	12307.9
459.81	1026.8	12307.9
459.91	1026.7	12307.9
460.01	1026.6	12307.9
460.11	1026.5	12307.9
460.21	1026.4	12307.9
460.31	1026.3	12307.9
460.41	1026.2	12307.9
460.51	1026.1	12307.9
460.61	1026	12307.9
460.71	1025.9	12307.9
460.81	1025.8	12307.9
460.91	1025.7	12307.9
461.01	1025.6	12307.9
461.11	1025.5	12307.9
461.21	1025.4	12307.9
461.31	1025.3	12307.9
461.41	1025.2	12307.9
461.51	1025.1	12307.9
461.61	1025	12307.9
461.71	1024.9	12307.9
461.81	1024.8	12307.9
461.91	1024.7	12307.9
462.01	1024.6	12307.9
462.11	1024.5	12307.9
462.21	1024.4	12307.9
462.31	1024.3	12307.9
462.41	1024.2	12307.9
462.51	1024.1	12307.9
462.61	1024	12307.9
462.71	1023.9	12307.9
462.81	1023.8	12307.9
462.91	1023.7	12307.9
463.01	1023.6	12307.9
463.11	1023.5	12307.9
463.21	1023.4	12307.9
463.31	1023.3	12307.9
463.41	1023.2	12307.9
463.51	1023.1	12307.9
463.61	1023	12307.9
463.71	1022.9	12307.9
463.81	1022.8	12307.9
463.91	1022.7	12307.9
464.01	1022.6	12307.9
464.11	1022.5	12307.9
464.21	1022.4	12307.9
464.31	1022.3	12307.9
464.41	1022.2	12307.9
464.51	1022.1	12307.9
464.61	1022	12307.9
464.71	1021.9	12307.9
464.81	1021.8	12307.9
464.91	1021.7	12307.9
465.01	1021.6	12307.9
465.11	1021.5	12307.9
465.21	1021.4	12307.9
465.31	1021.3	12307.9
465.41	1021.2	12307.9
465.51	1021.1	12307.9
465.61	1021	12307.9
465.71	1020.9	12307.9
465.81	1020.8	12307.9
465.91	1020.7	12307.9
466.01	1020.6	12307.9
466.11	1020.5	12307.9
466.21	1020.4	12307.9
466.31	1020.3	12307.9
466.41	1020.2	12307.9
466.51	1020.1	12307.9
466.61	1020	12307.9
466.71	1019.9	12307.9
466.81	1019.8	12307.9
466.91	1019.7	12307.9
467.01	1019.6	12307.9
467.11	1019.5	12307.9
467.21	1019.4	12307.9
467.31	1019.3	12307.9
467.41	1019.2	12307.9
467.51	1019.1	12307.9
467.61	1019	12307.9
467.71	1018.9	12307.9
467.81	1018.8	12307.9
467.91	1018.7	12307.9
468.01	1018.6	12307.9
468.11	1018.5	12307.9
468.21	1018.4	12307.9
468.31	1018.3	12307.9
468.41	1018.2	12307.9
468.51	1018.1	12307.9
468.61	1018	12307.9
468.71	1017.9	12307.9
468.81	1017.8	12307.9
468.91	1017.7	12307.9
469.01	1017.6	12307.9
469.11	1017.5	12307.9
469.21	1017.4	12307.9
469.31	1017.3	12307.9
469.41	1017.2	12307.9
469.51	1017.1	12307.9
469.61	1017	12307.9
469.71	1016.9	12307.9
469.81	1016.8	12307.9
469.91	1016.7	12307.9
470.01	1016.6	12307.9
470.11	1016.5	12307.9
470.21	1016.4	12307.9
470.31	1016.3	12307.9
470.41	1016.2	12307.9
470.51	1016.1	12307.9
470.61	1016	12307.9
470.71	1015.9	12307.9
470.81	1015.8	12307.9
470.91	1015.7	12307.9
471.01	1015.6	12307.9
471.11	1015.5	12307.9
471.21	1015.4	12307.9
471.31	1015.3	12307.9
471.41	1015.2	12307.9
471.51	1015.1	12307.9
471.61	1015	12307.9
471.71	1014.9	12307.9
471.81	1014.8	12307.9
471.91	1014.7	12307.9
472.01	1014.6	12307.9
472.11	1014.5	12307.9
472.21	1014.4	12307.9
472.31	1014.3	12307.9
472.41	1014.2	12307.9
472.51	1014.1	12307.9
472.61	1014	12307.9
472.71	1013.9	12307.9
472.81	1013.8	12307.9
472.91	1013.7	12307.9
473.01	1013.6	12307.9
473.11	1013.5	12307.9
473.21	1013.4	12307.9
473.31	1013.3	12307.9
473.41	1013.2	12307.9
473.51	1013.1	12307.9
473.61	1013	12307.9
473.71	1012.9	12307.9
473.81	1012.8	12307.9
473.91	1012.7	12307.9
474.01	1012.6	12307.9
474.11	1012.5	12307.9
474.21	1012.4	12307.9
474.31	1012.3	12307.9
474.41	1012.2	12307.9
474.51	1012.1	12307.9
474.61	1012	12307.9
474.71	1011.9	12307.9
474.81	1011.8	12307.9
474.91	1011.7	12307.9
475.01	1011.6	12307.9
475.11	1011.5	12307.9
475.21	1011.4	12307.9
475.31	1011.3	12307.9
475.41	1011.2	12307.9
475.51	1011.1	12307.9
475.61	1011	12307.9
475.71	1010.9	12307.9
475.81	1010.8	12307.9
475.91	1010.7	12307.9
476.01	1010.6	12307.9
476.11	1010.5	12307.9
476.21	1010.4	12307.9
476.31	1010.3	12307.9
476.41	1010.2	12307.9
476.51	1010.1	12307.9
476.61	1010	12307.9
476.71	1009.9	12307.9
476.81	1009.8	12307.9
476.91	1009.7	12307.9
477.01	1009.6	12307.9
477.11	1009.5	12307.9
477.21	1009.4	12307.9
477.31	1009.3	12307.9
477.41	1009.2	12307.9
477.51	1009.1	12307.9
477.61	1009	12307.9
477.71	1008.9	12307.9
477.81	1008.8	12307.9
477.91	1008.7	12307.9
478.01	1008.6	12307.9
478.11	1008.5	12307.9
478.21	1008.4	12307.9
478.31	1008.3	12307.9
478.41	1008.2	12307.9
478.51	1008.1	12307.9
478.61	1008	12307.9
478.71	1007.9	12307.9
478.81	1007.8	12307.9
478.91	1007.7	12307.9
479.01	1007.6	12307.9
479.11	1007.5	12307.9
479.21	1007.4	12307.9
479.31	1007.3	12307.9
479.41	1007.2	12307.9
479.51	1007.1	12307.9
479.61	1007	12307.9
479.71	1006.9	12307.9
479.81	1006.8	12307.9
479.91	1006.7	12307.9
480.01	1006.6	12307.9
480.11	1006.5	12307.9
480.21	1006.4	12307.9
480.31	1006.3	12307.9
480.41	1006.2	12307.9
480.51	1006.1	12307.9
480.61	1006	12307.9
480.71	1005.9	12307.9
480.81	1005.8	12307.9
480.91	1005.7	12307.9
481.01	1005.6	12307.9
481.11	1005.5	12307.9
481.21	1005.4	12307.9
481.31	1005.3	12307.9
481.41	1005.2	12307.9
481.51	1005.1	12307.9
481.61	1005	12307.9
481.71	1004.9	12307.9
481.81	1004.8	12307.9
481.91	1004.7	12307.9
482.01	1004.6	12307.9
482.11	1004.5	12307.9
482.21	1004.4	12307.9
482.31	1004.3	12307.9
482.41	1004.2	12307.9
482.51	1004.1	12307.9
482.61	1004	12307.9
482.71	1003.9	12307.9
482.81	1003.8	12307.9
482.91	1003.7	12307.9
483.01	1003.6	12307.9
483.11	1003.5	12307.9
483.21	1003.4	12307.9
483.31	1003.3	12307.9
483.41	1003.2	12307.9
483.51	1003.1	12307.9
483.61	1003	12307.9
483.71	1002.9	12307.9
483.81	1002.8	12307.9
483.91	1002.7	12307.9
484.01	1002.6	12307.9
484.11	1002.5	12307.9
484.21	1002.4	12307.9
484.31	1002.3	12307.9
484.41	1002.2	12307.9
484.51	1002.1	12307.9
484.61	1002	12307.9
484.71	1001.9	12307.9
484.81	1001.8	12307.9
484.91	1001.7	12307.9
485.01	1001.6	12307.9
485.11	1001.5	12307.9
485.21	1001.4	12307.9
485.31	1001.3	12307.9
485.41	1001.2	12307.9
485.51	1001.1	12307.9
485.61	1001	12307.9
485.71	1000.9	12307.9
485.81	1000.8	12307.9
485.91	1000.7	12307.9
486.01	1000.6	12307.9
486.11	1000.5	12307.9
486.21	1000.4	12307.9
486.31	1000.3	12307.9
486.41	1000.2	12307.9
486.51	1000.1	12307.9
486.61	1000	12307.9
486.71	999.9	12307.9
486.81	999.8	12307.9
486.91	999.7	12307.9
487.01	999.6	12307.9
487.11	999.5	12307.9
487.21	999.4	12307.9
487.31	999.3	12307.9
487.41	999.2	12307.9
487.51	999.1	12307.9
487.61	999	12307.9
487.71	998.9	12307.9
487.81	998.8	12307.9
487.91	998.7	12307.9
488.01	998.6	12307.9
488.11	998.5	12307.9
488.21	998.4	12307.9
488.31	998.3	12307.9
488.41	998.2	12307.9
488.51	998.1	12307.9
488.61	998	12307.9
488.71	997.9	12307.9
488.81	997.8	12307.9
488.91	997.7	12307.9
489.01	997.6	12307.9
489.11	997.5	12307.9
489.21	997.4	12307.9
489.31	997.3	12307.9
489.41	997.2	12307.9
489.51	997.1	12307.9
489.61	997	12307.9
489.71	996.9	12307.9
489.81	996.8	12307.9
489.91	996.7	12307.9
490.01	996.6	12307.9
490.11	996.5	12307.9
490.21	996.4	12307.9
490.31	996.3	12307.9
490.41	996.2	12307.9
490.51	996.1	12307.9
490.61	996	12307.9
490.71	995.9	12307.9
490.81	995.8	12307.9
490.91	995.7	12307.9
491.01	995.6	12307.9
491.11	995.5	12307.9
491.21	995.4	12307.9
491.31	995.3	12307.9
491.41	995.2	12307.9
491.51	995.1	12307.9
491.61	995	12307.9
491.71	994.9	12307.9
491.81	994.8	12307.9
491.91	994.7	12307.9
492.01	994.6	12307.9
492.11	994.5	12307.9
492.21	994.4	12307.9
492.31	994.3	12307.9
492.41	994.2	12307.9
492.51	994.1	12307.9
492.61	994	12307.9
492.71	993.9	12307.9
492.81	993.8	12307.9
492.91	993.7	12307.9
493.01	993.6	12307.9
493.11	993.5	12307.9
493.21	993.4	12307.9
493.31	993.3	12307.9
493.41	993.2	12307.9
493.51	993.1	12307.9
493.61	993	12307.9
493.71	992.9	12307.9
493.81	992.8	12307.9
493.91	992.7	12307.9
494.01	992.6	12307.9
494.11	992.5	12307.9
494.21	992.4	12307.9
494.31	992.3	12307.9
494.41	992.2	12307.9
494.51	992.1	12307.9
494.61	992	12307.9
494.71	991.9	12307.9
494.81	991.8	12307.9
494.91	991.7	12307.9
495.01	991.6	12307.9
495.11	991.5	12307.9
495.21	991.4	12307.9
495.31	991.3	12307.9
495.41	991.2	12307.9
495.51	991.1	12307.9
495.61	991	12307.9
495.71	990.9	12307.9
495.81	990.8	12307.9
495.91	990.7	12307.9
496.01	990.6	12307.9
496.11	990.5	12307.9
496.21	990.4	12307.9
496.31	990.3	12307.9
496.41	990.2	12307.9
496.51	990.1	12307.9
496.61	990	12307.9
496.71	989.9	12307.9
496.81	989.8	12307.9
496.91	989.7	12307.9
497.01	989.6	12307.9
497.11	989.5	12307.9
497.21	989.4	12307.9
497.31	989.3	12307.9
497.41	989.2	12307.9
497.51	989.1	12307.9
497.61	989	12307.9
497.71	988.9	12307.9
497.81	988.8	12307.9
497.91	988.7	12307.9
498.01	988.6	12307.9
498.11	988.5	12307.9
498.21	988.4	12307.9
498.31	988.3	12307.9
498.41	988.2	12307.9
498.51	988.1	12307.9
498.61	988	12307.9
498.71	987.9	12307.9
498.81	987.8	12307.9
498.91	987.7	12307.9
499.01	987.6	12307.9
499.11	987.5	12307.9
499.21	987.4	12307.9
499.31	987.3	12307.9
499.41	987.2	12307.9
499.51	987.1	12307.9
499.61	987	12307.9
499.71	986.9	12307.9
499.81	986.8	12307.9
499.91	986.7	12307.9
500.01	986.6	12307.9
500.11	986.5	12307.9
500.21	986.4	12307.9
500.31	986.3	12307.9
500.41	986.2	12307.9
500.51	986.1	12307.9
500.61	986	12307.9
500.71	985.9	12307.9
500.81	985.8	12307.9
500.91	985.7	12307.9
501.01	985.6	12307.9
501.11	985.5	12307.9
501.21	985.4	12307.9
501.31	985.3	12307.9
501.41	985.2	12307.9
501.51	985.1	12307.9
501.61	985	12307.9
501.71	984.9	12307.9
501.81	984.8	12307.9
501.91	984.7	12307.9
502.01	984.6	12307.9
502.11	984.5	12307.9
502.21	984.4	12307.9
502.31	984.3	12307.9
502.41	984.2	12307.9
502.51	984.1	12307.9
502.61	984	12307.9
502.71	983.9	12307.9
502.81	983.8	12307.9
502.91	983.7	12307.9
503.01	983.6	12307.9
503.11	983.5	12307.9
503.21	983.4	12307.9
503.31	983.3	12307.9
503.41	983.2	12307.9
503.51	983.1	12307.9
503.61	983	12307.9
503.71	982.9	12307.9
503.81	982.8	12307.9
503.91	982.7	12307.9
504.01	982.6	12307.9
504.11	982.5	12307.9
504.21	982.4	12307.9
504.31	982.3	12307.9
504.41	982.2	12307.9
504.51	982.1	12307.9
504.61	982	12307.9
504.71	981.9	12307.9
504.81	981.8	12307.9
504.91	981.7	12307.9
505.01	981.6	12307.9
505.11	981.5	12307.9
505.21	981.4	12307.9
505.31	981.3	12307.9
505.41	981.2	12307.9
505.51	981.1	12307.9
505.61	981	12307.9
505.71	980.9	12307.9
505.81	980.8	12307.9
505.91	980.7	12307.9
506.01	980.6	12307.9
506.11	980.5	12307.9
506.21	980.4	12307.9
506.31	980.3	12307.9
506.41	980.2	12307.9
506.51	980.1	12307.9
506.61	980	12307.9
506.71	979.9	12307.9
506.81	979.8	12307.9
506.91	979.7	12307.9
507.01	979.6	12307.9
507.11	979.5	12307.9
507.21	979.4	12307.9
507.31	979.3	12307.9
507.41	979.2	12307.9
507.51	979.1	12307.9
507.61	979	12307.9
507.71	978.9	12307.9
507.81	978.8	12307.9
507.91	978.7	12307.9
508.01	978.6	12307.9
508.11	978.5	12307.9
508.21	978.4	12307.9
508.31	978.3	12307.9
508.41	978.2	12307.9
508.51	978.1	12307.9
508.61	978	12307.9
508.71	977.9	12307.9
508.81	977.8	12307.9
508.91	977.7	12307.9
509.01	977.6	12307.9
509.11	977.5	12307.9
509.21	977.4	12307.9
509.31	977.3	12307.9
509.41	977.2	12307.9
509.51	977.1	12307.9
509.61	977	12307.9
509.71	976.9	12307.9
509.81	976.8	12307.9
509.91	976.7	12307.9
510.01	976.6	12307.9
510.11	976.5	12307.9
510.21	976.4	12307.9
510.31	976.3	12307.9
510.41	976.2	12307.9
510.51	976.1	12307.9
510.61	976	12307.9
510.71	975.9	12307.9
510.81	975.8	12307.9
510.91	975.7	12307.9
511.01	975.6	12307.9
511.11	975.5	12307.9
511.21	975.4	12307.9
511.31	975.3	12307.9
511.41	975.2	12307.9
511.51	975.1	12307.9
511.61	975	12307.9
511.71	974.9	12307.9
511.81	974.8	12307.9
511.91	974.7	12307.9
512.01	974.6	12307.9
512.11	974.5	12307.9
512.21	974.4	12307.9
512.31	974.3	12308
512.41	974.2	12308
512.51	974.1	12308
512.61	974	12308
512.71	973.9	12308
512.81	973.8	12308
512.91	973.7	12308
513.01	973.6	12308
513.11	973.5	12308
513.21	973.4	12308
513.31	973.3	12308
513.41	973.2	12308
513.51	973.1	12308
513.61	973	12308
513.71	972.9	12308
513.81	972.8	12308
513.91	972.7	12308
514.01	972.6	12308
514.11	972.5	12308
514.21	972.4	12308
514.31	972.3	12308
514.41	972.2	12308
514.51	972.1	12308
514.61	972	12308
514.71	971.9	12308
514.81	971.8	12308
514.91	971.7	12308
515.01	971.6	12308
515.11	971.5	12308
515.21	971.4	12308
515.31	971.3	12308
515.41	971.2	12308
515.51	971.1	12308
515.61	971	12308
515.71	970.9	12308
515.81	970.8	12308
515.91	970.7	12308
516.01	970.6	12308
516.11	970.5	12308
516.21	970.4	12308
516.31	970.3	12308
516.41	970.2	12308
516.51	970.1	12308
516.61	970	12308
516.71	969.9	12308
516.81	969.8	12308
516.91	969.7	12308
517.01	969.6	12308
517.11	969.5	12308
517.21	969.4	12308
517.31	969.3	12308
517.41	969.2	12308
517.51	969.1	12308
517.61	969	12308
517.71	968.9	12308
517.81	968.8	12308
517.91	968.7	12308
518.01	968.6	12308
518.11	968.5	12308
518.21	968.4	12308
518.31	968.3	12308
518.41	968.2	12308
518.51	968.1	12308
518.61	968	12308
518.71	967.9	12308
518.81	967.8	12308
518.91	967.7	12308
519.01	967.6	12308
519.11	967.5	12308
519.21	967.4	12308
519.31	967.3	12308
519.41	967.2	12308
519.51	967.1	12308
519.61	967	12308
519.71	966.9	12308
519.81	966.8	12308
519.91	966.7	12308
520.01	966.6	12308
520.11	966.5	12308
520.21	966.4	12308
520.31	966.3	12308
520.41	966.2	12308
520.51	966.1	12308
520.61	966	12308
520.71	965.9	12308
520.81	965.8	12308
520.91	965.7	12308
521.01	965.6	12308
521.11	965.5	12308
521.21	965.4	12308
521.31	965.3	12308
521.41	965.2	12308
521.51	965.1	12308
521.61	965	12308
521.71	964.9	12308
521.81	964.8	12308
521.91	964.7	12308
522.01	964.6	12308
522.11	964.5	12308
522.21	964.4	12308
522.31	964.3	12308
522.41	964.2	12308
522.51	964.1	12308
522.61	964	12308
522.71	963.9	12308
522.81	963.8	12308.1
522.91	963.7	12308.1
523.01	963.6	12308.1
523.11	963.5	12308.1
523.21	963.4	12308.1
523.31	963.3	12308.1
523.41	963.2	12308.1
523.51	963.1	12308.1
523.61	963	12308.1
523.71	962.9	12308.1
523.81	962.8	12308.1
523.91	962.7	12308.1
524.01	962.6	12308.1
524.11	962.5	12308.1
524.21	962.4	12308.1
524.31	962.3	12308.1
524.41	962.2	12308.1
524.51	962.1	12308.1
524.61	962	12308.1
524.71	961.9	12308.1
524.81	961.8	12308.1
524.91	961.7	12308.1
525.01	961.6	12308.1
525.11	961.5	12308.1
525.21	961.4	12308.1
525.31	961.3	12308.1
525.41	961.2	12308.1
525.51	961.1	12308.1
525.61	961	12308.1
525.71	960.9	12308.1
525.81	960.8	12308.1
525.91	960.7	12308.1
526.01	960.6	12308.1
526.11	960.5	12308.1
526.21	960.4	12308.1
526.31	960.3	12308.1
526.41	960.2	12308.1
526.51	960.1	12308.1
526.61	960	12308.1
526.71	959.9	12308.1
526.81	959.8	12308.1
526.91	959.7	12308.1
527.01	959.6	12308.1
527.11	959.5	12308.1
527.21	959.4	12308.2
527.31	959.3	12308.2
527.41	959.2	12308.2
527.51	959.1	12308.2
527.61	959	12308.2
527.71	958.9	12308.2
527.81	958.8	12308.2
527.91	958.7	12308.2
528.01	958.6	12308.2
528.11	958.5	12308.2
528.21	958.4	12308.2
528.31	958.3	12308.2
528.41	958.2	12308.2
528.51	958.1	12308.2
528.61	958	12308.2
528.71	957.9	12308.2
528.81	957.8	12308.2
528.91	957.7	12308.2
529.01	957.6	12308.2
529.11	957.5	12308.2
529.21	957.4	12308.2
529.31	957.3	12308.2
529.41	957.2	12308.2
529.51	957.1	12308.2
529.61	957	12308.2
529.71	956.9	12308.2
529.81	956.8	12308.3
529.91	956.7	12308.3
530.01	956.6	12308.3
530.11	956.5	12308.3
530.21	956.4	12308.3
530.31	956.3	12308.3
530.41	956.2	12308.3
530.51	956.1	12308.3
530.61	956	12308.3
530.71	955.9	12308.3
530.81	955.8	12308.3
530.91	955.7	12308.3
531.01	955.6	12308.3
531.11	955.5	12308.3
531.21	955.4	12308.3
531.31	955.3	12308.3
531.41	955.2	12308.3
531.51	955.1	12308.3
531.61	955	12308.4
531.71	954.9	12308.4
531.81	954.8	12308.4
531.91	954.7	12308.4
532.01	954.6	12308.4
532.11	954.5	12308.4
532.21	954.4	12308.4
532.31	954.3	12308.4
532.41	954.2	12308.4
532.51	954.1	12308.4
532.61	954	12308.4
532.71	953.9	12308.4
532.81	953.8	12308.4
532.91	953.7	12308.4
533.01	953.6	12308.5
533.11	953.5	12308.5
533.21	953.4	12308.5
533.31	953.3	12308.5
533.41	953.2	12308.5
533.51	953.1	12308.5
533.61	953	12308.5
533.71	952.9	12308.5
533.81	952.8	12308.5
533.91	952.7	12308.5
534.01	952.6	12308.5
534.11	952.5	12308.6
534.21	952.4	12308.6
534.31	952.3	12308.6
534.41	952.2	12308.6
534.51	952.1	12308.6
534.61	952	12308.6
534.71	951.9	12308.6
534.81	951.8	12308.6
534.91	951.7	12308.6
535.01	951.6	12308.7
535.11	951.5	12308.7
535.21	951.4	12308.7
535.31	951.3	12308.7
535.41	951.2	12308.7
535.51	951.1	12308.7
535.61	951	12308.7
535.71	950.9	12308.8
535.81	950.8	12308.8
535.91	950.7	12308.8
536.01	950.6	12308.8
536.11	950.5	12308.8
536.21	950.4	12308.8
536.31	950.3	12308.8
536.41	950.2	12308.9
536.51	950.1	12308.9
536.61	950	12308.9
536.71	949.9	12308.9
536.81	949.8	12308.9
536.91	949.7	12309
537.01	949.6	12309
537.11	949.5	12309
537.21	949.4	12309
537.31	949.3	12309
537.41	949.2	12309.1
537.51	949.1	12309.1
537.61	949	12309.1
537.71	948.9	12309.1
537.81	948.8	12309.2
537.91	948.7	12309.2
538.01	948.6	12309.2
538.11	948.5	12309.2
538.21	948.4	12309.3
538.31	948.3	12309.3
538.41	948.2	12309.3
538.51	948.1	12309.3
538.61	948	12309.4
538.71	947.9	12309.4
538.81	947.8	12309.4
538.91	947.7	12309.5
539.01	947.6	12309.5
539.11	947.5	12309.5
539.21	947.4	12309.6
539.31	947.3	12309.6
539.41	947.2	12309.6
539.51	947.1	12309.7
539.61	947	12309.7
539.71	946.9	12309.7
539.81	946.8	12309.8
539.91	946.7	12309.8
540.01	946.6	12309.9
540.11	946.5	12309.9
540.21	946.4	12310
540.31	946.3	12310
540.41	946.2	12310.1
540.51	946.1	12310.1
540.61	946	12310.2
540.71	945.9	12310.2
540.81	945.8	12310.3
540.91	945.7	12310.3
541.01	945.6	12310.4
541.11	945.5	12310.4
541.21	945.4	12310.5
541.31	945.3	12310.6
541.41	945.2	12310.6
541.51	945.1	12310.7
541.61	945	12310.8
541.71	944.9	12310.8
541.81	944.8	12310.9
541.91	944.7	12311
542.01	944.6	12311.1
542.11	944.5	12311.2
542.21	944.4	12311.2
542.31	944.3	12311.3
542.41	944.2	12311.4
542.51	944.1	12311.5
542.61	944	12311.6
542.71	943.9	12311.7
542.81	943.8	12311.8
542.91	943.7	12311.9
543.01	943.6	12312
543.11	943.5	12312.2
543.21	943.4	12312.3
543.31	943.3	12312.4
543.41	943.2	12312.6
543.51	943.1	12312.7
543.61	943	12312.8
543.71	942.9	12313
543.81	942.8	12313.2
543.91	942.7	12313.3
544.01	942.6	12313.5
544.11	942.5	12313.6
544.21	942.4	12313.8
544.31	942.3	12314
544.41	942.2	12314.2
544.51	942.1	12314.4
544.61	942	12314.6
544.71	941.9	12314.9
544.81	941.8	12315.1
544.91	941.7	12315.4
545.01	941.6	12315.6
545.11	941.5	12315.9
545.21	941.4	12316.2
545.31	941.3	12316.5
545.41	941.2	12316.8
545.51	941.1	12317.1
545.61	941	12317.5
545.71	940.9	12317.8
545.81	940.8	12318.2
545.91	940.7	12318.6
546.01	940.6	12319.1
546.11	940.5	12319.5
546.21	940.4	12319.9
546.31	940.3	12320.4
546.41	940.2	12321
546.51	940.1	12321.5
546.61	940	12322.1
546.71	939.9	12322.7
546.81	939.8	12323.3
546.91	939.7	12324
547.01	939.6	12324.8
547.11	939.5	12325.6
547.21	939.4	12326.4
547.31	939.3	12327.2
547.41	939.2	12328
547.51	939.1	12329.1
547.61	939	12330.3
547.71	938.9	12331.4
547.81	938.8	12332.6
547.91	938.7	12333.7
548.01	938.6	12335.1
548.11	938.5	12336.7
548.21	938.4	12338.4
548.31	938.3	12340
548.41	938.2	12341.7
548.51	938.1	12343.4
548.61	938	12345.9
548.71	937.9	12348.4
548.81	937.8	12350.9
548.91	937.7	12353.4
549.01	937.6	12355.9
549.11	937.5	12359.2
549.21	937.4	12363.2
549.31	937.3	12367.2
549.41	937.2	12371.2
549.51	937.1	12375.3
549.61	937	12379.3
549.71	936.9	12386.1
549.81	936.8	12392.9
549.91	936.7	12397.1
550.01	936.6	12404.4
550.11	936.5	12412.5
550.21	936.4	12421.5
550.31	936.3	12431.6
550.41	936.2	12442.9
550.51	936.1	12455.7
550.61	936	12470.1
550.71	935.9	12486.5
550.81	935.8	12505.3
550.91	935.7	12526.7
551.01	935.6	12551.5
551.11	935.5	12580.2
551.21	935.4	12613.7
551.31	935.3	12653.1
551.41	935.2	12699.6
551.51	935.1	12755.2
551.61	935	12822.2
551.71	934.9	12903.8
551.81	934.8	13004.4
551.91	934.7	13130.5
552.01	934.6	13291.1
552.11	934.5	13500
552.21	934.4	13778.6
552.31	934.3	14161.4
552.41	934.2	14700.6
552.51	934.1	15478.5
552.61	934	16624.1
552.71	933.9	18332.5
552.81	933.8	20879.8
552.91	933.7	24637.7
553.01	933.6	30072.1
553.11	933.5	37676.9
553.21	933.4	47890.6
553.31	933.3	60956.4
553.41	933.2	76747.8
553.51	933.1	94589.1
553.61	933	113226
553.71	932.9	130883
553.81	932.8	145518
553.91	932.7	155225
554.01	932.6	158639
554.11	932.5	155225
554.21	932.4	145518
554.31	932.3	130883
554.41	932.2	113226
554.51	932.1	94589.1
554.61	932	76747.8
554.71	931.9	60956.4
554.81	931.8	47890.6
554.91	931.7	37676.9
555.01	931.6	30072.1
555.11	931.5	24637.7
555.21	931.4	20879.8
555.31	931.3	18332.5
555.41	931.2	16624.1
555.51	931.1	15478.5
555.61	931	14700.6
555.71	930.9	14161.4
555.81	930.8	13778.6
555.91	930.7	13500
556.01	930.6	13291.1
556.11	930.5	13130.5
556.21	930.4	13004.4
556.31	930.3	12903.8
556.41	930.2	12822.2
556.51	930.1	12755.2
556.61	930	12699.6
556.71	929.9	12653.1
556.81	929.8	12613.7
556.91	929.7	12580.2
557.01	929.6	12551.5
557.11	929.5	12526.7
557.21	929.4	12505.3
557.31	929.3	12486.5
557.41	929.2	12470.1
557.51	929.1	12455.7
557.61	929	12442.9
557.71	928.9	12431.6
557.81	928.8	12421.5
557.91	928.7	12412.5
558.01	928.6	12404.4
558.11	928.5	12397.1
558.21	928.4	12392.9
558.31	928.3	12386.1
558.41	928.2	12379.3
558.51	928.1	12375.3
558.61	928	12371.2
558.71	927.9	12367.2
558.81	927.8	12363.2
558.91	927.7	12359.2
559.01	927.6	12355.9
559.11	927.5	12353.4
559.21	927.4	12350.9
559.31	927.3	12348.4
559.41	927.2	12345.9
559.51	927.1	12343.4
559.61	927	12341.7
559.71	926.9	12340
559.81	926.8	12338.4
559.91	926.7	12336.7
560.01	926.6	12335.1
560.11	926.5	12333.7
560.21	926.4	12332.6
560.31	926.3	12331.4
560.41	926.2	12330.3
560.51	926.1	12329.1
560.61	926	12328
560.71	925.9	12327.2
560.81	925.8	12326.4
560.91	925.7	12325.6
561.01	925.6	12324.8
561.11	925.5	12324
561.21	925.4	12323.3
561.31	925.3	12322.7
561.41	925.2	12322.1
561.51	925.1	12321.5
561.61	925	12321
561.71	924.9	12320.4
561.81	924.8	12319.9
561.91	924.7	12319.5
562.01	924.6	12319.1
562.11	924.5	12318.6
562.21	924.4	12318.2
562.31	924.3	12317.8
562.41	924.2	12317.5
562.51	924.1	12317.1
562.61	924	12316.8
562.71	923.9	12316.5
562.81	923.8	12316.2
562.91	923.7	12315.9
563.01	923.6	12315.6
563.11	923.5	12315.4
563.21	923.4	12315.1
563.31	923.3	12314.9
563.41	923.2	12314.6
563.51	923.1	12314.4
563.61	923	12314.2
563.71	922.9	12314
563.81	922.8	12313.8
563.91	922.7	12313.6
564.01	922.6	12313.5
564.11	922.5	12313.3
564.21	922.4	12313.2
564.31	922.3	12313
564.41	922.2	12312.8
564.51	922.1	12312.7
564.61	922	12312.6
564.71	921.9	12312.4
564.81	921.8	12312.3
564.91	921.7	12312.2
565.01	921.6	12312
565.11	921.5	12311.9
565.21	921.4	12311.8
565.31	921.3	12311.7
565.41	921.2	12311.6
565.51	921.1	12311.5
565.61	921	12311.4
565.71	920.9	12311.3
565.81	920.8	12311.2
565.91	920.7	12311.2
566.01	920.6	12311.1
566.11	920.5	12311
566.21	920.4	12310.9
566.31	920.3	12310.8
566.41	920.2	12310.8
566.51	920.1	12310.7
566.61	920	12310.6