c:\users\mark\owncloud\muelheim group\projects\gas phase background\ex340_cec356_ag he largearea.vms
Survey
	Characteristic Energy eV	1486.61	Acquisition Time s	2.9
KE_Survey	BE_Survey	CPS_Survey	Background_Survey
286.61	1200	6548.86	6548.86
287.11	1199.5	6625.48	6625.48
287.61	1199	6560.76	6560.76
288.11	1198.5	6517.17	6517.17
288.61	1198	6617.07	6617.07
289.11	1197.5	6755.45	6755.45
289.61	1197	6712.72	6712.72
290.11	1196.5	6656	6656
290.61	1196	6732.34	6732.34
291.11	1195.5	6699.55	6699.55
291.61	1195	6644.66	6644.66
292.11	1194.5	6725.72	6725.72
292.61	1194	6764.59	6764.59
293.11	1193.5	6743.93	6743.93
293.61	1193	6744.76	6744.76
294.11	1192.5	6781.17	6781.17
294.61	1192	6809.55	6809.55
295.11	1191.5	6789.83	6789.83
295.61	1191	6724.07	6724.07
296.11	1190.5	6761.38	6761.38
296.61	1190	6824.83	6824.83
297.11	1189.5	6791.59	6791.59
297.61	1189	6822.66	6822.66
298.11	1188.5	6817.66	6817.66
298.61	1188	6744.03	6744.03
299.11	1187.5	6794.55	6794.55
299.61	1187	6742.14	6742.14
300.11	1186.5	6660.66	6660.66
300.61	1186	6704.79	6704.79
301.11	1185.5	6689.41	6689.41
301.61	1185	6625.93	6625.93
302.11	1184.5	6565.93	6565.93
302.61	1184	6527	6527
303.11	1183.5	6523.28	6523.28
303.61	1183	6460.41	6460.41
304.11	1182.5	6429.59	6429.59
304.61	1182	6379.17	6379.17
305.11	1181.5	6320.55	6320.55
305.61	1181	6212.24	6212.24
306.11	1180.5	6165.21	6165.21
306.61	1180	6255.62	6255.62
307.11	1179.5	6156.24	6156.24
307.61	1179	6104.38	6104.38
308.11	1178.5	6104.45	6104.45
308.61	1178	6015.41	6015.41
309.11	1177.5	5953.17	5953.17
309.61	1177	5877.72	5877.72
310.11	1176.5	5951.28	5951.28
310.61	1176	5874	5874
311.11	1175.5	5862.45	5862.45
311.61	1175	5791.48	5791.48
312.11	1174.5	5722.93	5722.93
312.61	1174	5783.28	5783.28
313.11	1173.5	5745.17	5745.17
313.61	1173	5681.14	5681.14
314.11	1172.5	5742.55	5742.55
314.61	1172	5719.28	5719.28
315.11	1171.5	5731.24	5731.24
315.61	1171	5742.24	5742.24
316.11	1170.5	5721.24	5721.24
316.61	1170	5732	5732
317.11	1169.5	5754.93	5754.93
317.61	1169	5739.97	5739.97
318.11	1168.5	5758.48	5758.48
318.61	1168	5775.1	5775.1
319.11	1167.5	5794.24	5794.24
319.61	1167	5781.69	5781.69
320.11	1166.5	5757.72	5757.72
320.61	1166	5776.59	5776.59
321.11	1165.5	5792.59	5792.59
321.61	1165	5879.86	5879.86
322.11	1164.5	5854.21	5854.21
322.61	1164	5949.52	5949.52
323.11	1163.5	5915.69	5915.69
323.61	1163	5953.59	5953.59
324.11	1162.5	5962.55	5962.55
324.61	1162	5939.28	5939.28
325.11	1161.5	6029.69	6029.69
325.61	1161	5983.79	5983.79
326.11	1160.5	6060.03	6060.03
326.61	1160	6066.69	6066.69
327.11	1159.5	6055.97	6055.97
327.61	1159	6123.21	6123.21
328.11	1158.5	6124.76	6124.76
328.61	1158	6102.41	6102.41
329.11	1157.5	6111.17	6111.17
329.61	1157	6088.14	6088.14
330.11	1156.5	6235.1	6235.1
330.61	1156	6267.83	6267.83
331.11	1155.5	6234.62	6234.62
331.61	1155	6167.03	6167.03
332.11	1154.5	6138.9	6138.9
332.61	1154	6046.72	6046.72
333.11	1153.5	5967.24	5967.24
333.61	1153	5959.66	5959.66
334.11	1152.5	5929.52	5929.52
334.61	1152	5854	5854
335.11	1151.5	5848.62	5848.62
335.61	1151	5838.66	5838.66
336.11	1150.5	5923.31	5923.31
336.61	1150	5982.38	5982.38
337.11	1149.5	5778.45	5778.45
337.61	1149	5683.38	5683.38
338.11	1148.5	5662.97	5662.97
338.61	1148	5650.45	5650.45
339.11	1147.5	5564.86	5564.86
339.61	1147	5575.9	5575.9
340.11	1146.5	5560.72	5560.72
340.61	1146	5600.28	5600.28
341.11	1145.5	5599.66	5599.66
341.61	1145	5590.14	5590.14
342.11	1144.5	5659.1	5659.1
342.61	1144	5682.21	5682.21
343.11	1143.5	5609.41	5609.41
343.61	1143	5679.14	5679.14
344.11	1142.5	5691.28	5691.28
344.61	1142	5749.41	5749.41
345.11	1141.5	5765.9	5765.9
345.61	1141	5872.38	5872.38
346.11	1140.5	5949.55	5949.55
346.61	1140	5934.38	5934.38
347.11	1139.5	6037.34	6037.34
347.61	1139	6219.28	6219.28
348.11	1138.5	6488.28	6488.28
348.61	1138	6732.48	6732.48
349.11	1137.5	6633.21	6633.21
349.61	1137	6689.14	6689.14
350.11	1136.5	6853.31	6853.31
350.61	1136	7215.48	7215.48
351.11	1135.5	8339.86	8339.86
351.61	1135	9630.07	9630.07
352.11	1134.5	9447.86	9447.86
352.61	1134	8882.17	8882.17
353.11	1133.5	8648.66	8648.66
353.61	1133	8203.69	8203.69
354.11	1132.5	7541.21	7541.21
354.61	1132	7112.45	7112.45
355.11	1131.5	6824.97	6824.97
355.61	1131	6523.52	6523.52
356.11	1130.5	6489.14	6489.14
356.61	1130	6631.9	6631.9
357.11	1129.5	7388.07	7388.07
357.61	1129	8530.07	8530.07
358.11	1128.5	7996.38	7996.38
358.61	1128	6815.69	6815.69
359.11	1127.5	6236.21	6236.21
359.61	1127	5655.9	5655.9
360.11	1126.5	5114.28	5114.28
360.61	1126	4956.14	4956.14
361.11	1125.5	4951.34	4951.34
361.61	1125	4884.52	4884.52
362.11	1124.5	4761.55	4761.55
362.61	1124	4691.83	4691.83
363.11	1123.5	4631.97	4631.97
363.61	1123	4579.41	4579.41
364.11	1122.5	4525	4525
364.61	1122	4468.31	4468.31
365.11	1121.5	4459.9	4459.9
365.61	1121	4423.21	4423.21
366.11	1120.5	4348.62	4348.62
366.61	1120	4322.72	4322.72
367.11	1119.5	4300.24	4300.24
367.61	1119	4379.76	4379.76
368.11	1118.5	4296.66	4296.66
368.61	1118	4310.72	4310.72
369.11	1117.5	4284.48	4284.48
369.61	1117	4275.48	4275.48
370.11	1116.5	4230.34	4230.34
370.61	1116	4241.52	4241.52
371.11	1115.5	4240.55	4240.55
371.61	1115	4250.76	4250.76
372.11	1114.5	4241.41	4241.41
372.61	1114	4312.66	4312.66
373.11	1113.5	4254.9	4254.9
373.61	1113	4251.59	4251.59
374.11	1112.5	4232.03	4232.03
374.61	1112	4217.45	4217.45
375.11	1111.5	4260.28	4260.28
375.61	1111	4226.93	4226.93
376.11	1110.5	4240.55	4240.55
376.61	1110	4190.93	4190.93
377.11	1109.5	4246.07	4246.07
377.61	1109	4259.17	4259.17
378.11	1108.5	4240.17	4240.17
378.61	1108	4242.38	4242.38
379.11	1107.5	4278	4278
379.61	1107	4366.79	4366.79
380.11	1106.5	4299.59	4299.59
380.61	1106	4318.14	4318.14
381.11	1105.5	4344.31	4344.31
381.61	1105	4285.66	4285.66
382.11	1104.5	4301.21	4301.21
382.61	1104	4299.69	4299.69
383.11	1103.5	4318.59	4318.59
383.61	1103	4279.83	4279.83
384.11	1102.5	4258.62	4258.62
384.61	1102	4293.03	4293.03
385.11	1101.5	4322.03	4322.03
385.61	1101	4286.03	4286.03
386.11	1100.5	4297.14	4297.14
386.61	1100	4303.41	4303.41
387.11	1099.5	4311.21	4311.21
387.61	1099	4345.28	4345.28
388.11	1098.5	4336.62	4336.62
388.61	1098	4357.52	4357.52
389.11	1097.5	4384.83	4384.83
389.61	1097	4351.03	4351.03
390.11	1096.5	4361.76	4361.76
390.61	1096	4356.72	4356.72
391.11	1095.5	4406.76	4406.76
391.61	1095	4355.72	4355.72
392.11	1094.5	4394.03	4394.03
392.61	1094	4387.1	4387.1
393.11	1093.5	4392.79	4392.79
393.61	1093	4402.86	4402.86
394.11	1092.5	4362.45	4362.45
394.61	1092	4346.66	4346.66
395.11	1091.5	4363.07	4363.07
395.61	1091	4391.69	4391.69
396.11	1090.5	4441.76	4441.76
396.61	1090	4413.9	4413.9
397.11	1089.5	4407.66	4407.66
397.61	1089	4423.62	4423.62
398.11	1088.5	4417	4417
398.61	1088	4473.38	4473.38
399.11	1087.5	4504.41	4504.41
399.61	1087	4448.28	4448.28
400.11	1086.5	4459.48	4459.48
400.61	1086	4430.34	4430.34
401.11	1085.5	4410.14	4410.14
401.61	1085	4386.72	4386.72
402.11	1084.5	4496.83	4496.83
402.61	1084	4517.48	4517.48
403.11	1083.5	4406.45	4406.45
403.61	1083	4453.03	4453.03
404.11	1082.5	4463	4463
404.61	1082	4467.97	4467.97
405.11	1081.5	4481.17	4481.17
405.61	1081	4493.66	4493.66
406.11	1080.5	4500.41	4500.41
406.61	1080	4450.62	4450.62
407.11	1079.5	4519.59	4519.59
407.61	1079	4541.38	4541.38
408.11	1078.5	4533.69	4533.69
408.61	1078	4498.55	4498.55
409.11	1077.5	4538.83	4538.83
409.61	1077	4522.21	4522.21
410.11	1076.5	4516.62	4516.62
410.61	1076	4483.59	4483.59
411.11	1075.5	4528.66	4528.66
411.61	1075	4554.72	4554.72
412.11	1074.5	4495.48	4495.48
412.61	1074	4549.93	4549.93
413.11	1073.5	4565	4565
413.61	1073	4568.76	4568.76
414.11	1072.5	4539.17	4539.17
414.61	1072	4525.52	4525.52
415.11	1071.5	4588.03	4588.03
415.61	1071	4600.14	4600.14
416.11	1070.5	4578.41	4578.41
416.61	1070	4563.14	4563.14
417.11	1069.5	4605.62	4605.62
417.61	1069	4590.93	4590.93
418.11	1068.5	4570.17	4570.17
418.61	1068	4579.52	4579.52
419.11	1067.5	4602.31	4602.31
419.61	1067	4573.31	4573.31
420.11	1066.5	4621	4621
420.61	1066	4611.24	4611.24
421.11	1065.5	4626.07	4626.07
421.61	1065	4598	4598
422.11	1064.5	4642.03	4642.03
422.61	1064	4632.86	4632.86
423.11	1063.5	4582.76	4582.76
423.61	1063	4693.34	4693.34
424.11	1062.5	4635.31	4635.31
424.61	1062	4678.76	4678.76
425.11	1061.5	4726.66	4726.66
425.61	1061	4682.79	4682.79
426.11	1060.5	4725.07	4725.07
426.61	1060	4750.38	4750.38
427.11	1059.5	4704.41	4704.41
427.61	1059	4679.38	4679.38
428.11	1058.5	4667.55	4667.55
428.61	1058	4738.21	4738.21
429.11	1057.5	4685.07	4685.07
429.61	1057	4668	4668
430.11	1056.5	4757.41	4757.41
430.61	1056	4759.62	4759.62
431.11	1055.5	4759.55	4759.55
431.61	1055	4701.14	4701.14
432.11	1054.5	4690.48	4690.48
432.61	1054	4755.14	4755.14
433.11	1053.5	4710.14	4710.14
433.61	1053	4733.28	4733.28
434.11	1052.5	4766.86	4766.86
434.61	1052	4748.62	4748.62
435.11	1051.5	4808.86	4808.86
435.61	1051	4766.24	4766.24
436.11	1050.5	4734.97	4734.97
436.61	1050	4777.66	4777.66
437.11	1049.5	4793.24	4793.24
437.61	1049	4811.62	4811.62
438.11	1048.5	4810.93	4810.93
438.61	1048	4779.03	4779.03
439.11	1047.5	4818.93	4818.93
439.61	1047	4819.83	4819.83
440.11	1046.5	4773.86	4773.86
440.61	1046	4865.03	4865.03
441.11	1045.5	4851.07	4851.07
441.61	1045	4841.69	4841.69
442.11	1044.5	4877.79	4877.79
442.61	1044	4841.97	4841.97
443.11	1043.5	4852.79	4852.79
443.61	1043	4842.31	4842.31
444.11	1042.5	4844.17	4844.17
444.61	1042	4842.72	4842.72
445.11	1041.5	4872	4872
445.61	1041	4800.17	4800.17
446.11	1040.5	4852.69	4852.69
446.61	1040	4806.79	4806.79
447.11	1039.5	4804.03	4804.03
447.61	1039	4842.76	4842.76
448.11	1038.5	4865.38	4865.38
448.61	1038	4839	4839
449.11	1037.5	4875.38	4875.38
449.61	1037	4969.28	4969.28
450.11	1036.5	4822.17	4822.17
450.61	1036	4894.83	4894.83
451.11	1035.5	4914.1	4914.1
451.61	1035	4878.66	4878.66
452.11	1034.5	4946.45	4946.45
452.61	1034	4914.17	4914.17
453.11	1033.5	4971.21	4971.21
453.61	1033	4901.28	4901.28
454.11	1032.5	4919.83	4919.83
454.61	1032	4957	4957
455.11	1031.5	4909.52	4909.52
455.61	1031	4976.17	4976.17
456.11	1030.5	4962.07	4962.07
456.61	1030	4928.86	4928.86
457.11	1029.5	4972.48	4972.48
457.61	1029	4935.76	4935.76
458.11	1028.5	4857.17	4857.17
458.61	1028	4959.72	4959.72
459.11	1027.5	4903.93	4903.93
459.61	1027	4935.24	4935.24
460.11	1026.5	4993.1	4993.1
460.61	1026	4972.66	4972.66
461.11	1025.5	4977.31	4977.31
461.61	1025	5006.86	5006.86
462.11	1024.5	5000.41	5000.41
462.61	1024	4980.24	4980.24
463.11	1023.5	4982.38	4982.38
463.61	1023	4973.83	4973.83
464.11	1022.5	5028.59	5028.59
464.61	1022	5015.45	5015.45
465.11	1021.5	5028.17	5028.17
465.61	1021	5007.9	5007.9
466.11	1020.5	5084.28	5084.28
466.61	1020	4981.83	4981.83
467.11	1019.5	5014.72	5014.72
467.61	1019	5021.52	5021.52
468.11	1018.5	4977.83	4977.83
468.61	1018	5049.34	5049.34
469.11	1017.5	5109.66	5109.66
469.61	1017	5156.55	5156.55
470.11	1016.5	5105.62	5105.62
470.61	1016	5095.41	5095.41
471.11	1015.5	5088.21	5088.21
471.61	1015	5094.52	5094.52
472.11	1014.5	5081.17	5081.17
472.61	1014	5078.28	5078.28
473.11	1013.5	5039.1	5039.1
473.61	1013	5064.93	5064.93
474.11	1012.5	5126.21	5126.21
474.61	1012	5112.03	5112.03
475.11	1011.5	5159.79	5159.79
475.61	1011	5138.52	5138.52
476.11	1010.5	5149.55	5149.55
476.61	1010	5183.03	5183.03
477.11	1009.5	5126.48	5126.48
477.61	1009	5111.83	5111.83
478.11	1008.5	5123.66	5123.66
478.61	1008	5127.83	5127.83
479.11	1007.5	5204.72	5204.72
479.61	1007	5198.93	5198.93
480.11	1006.5	5160.28	5160.28
480.61	1006	5135.24	5135.24
481.11	1005.5	5140	5140
481.61	1005	5187.83	5187.83
482.11	1004.5	5143.1	5143.1
482.61	1004	5195.28	5195.28
483.11	1003.5	5172.1	5172.1
483.61	1003	5215.76	5215.76
484.11	1002.5	5134.21	5134.21
484.61	1002	5148.76	5148.76
485.11	1001.5	5173.38	5173.38
485.61	1001	5193.52	5193.52
486.11	1000.5	5210.55	5210.55
486.61	1000	5260.07	5260.07
487.11	999.5	5258.9	5258.9
487.61	999	5210.93	5210.93
488.11	998.5	5281	5281
488.61	998	5306.45	5306.45
489.11	997.5	5261.55	5261.55
489.61	997	5225.28	5225.28
490.11	996.5	5232.24	5232.24
490.61	996	5240	5240
491.11	995.5	5294.48	5294.48
491.61	995	5280	5280
492.11	994.5	5343.83	5343.83
492.61	994	5268.28	5268.28
493.11	993.5	5310.28	5310.28
493.61	993	5266.24	5266.24
494.11	992.5	5282.83	5282.83
494.61	992	5283.03	5283.03
495.11	991.5	5332.31	5332.31
495.61	991	5268.72	5268.72
496.11	990.5	5296	5296
496.61	990	5297.76	5297.76
497.11	989.5	5278.31	5278.31
497.61	989	5309.24	5309.24
498.11	988.5	5334.28	5334.28
498.61	988	5281.41	5281.41
499.11	987.5	5346.28	5346.28
499.61	987	5293.41	5293.41
500.11	986.5	5279.34	5279.34
500.61	986	5333.59	5333.59
501.11	985.5	5444.69	5444.69
501.61	985	5366.59	5366.59
502.11	984.5	5396.83	5396.83
502.61	984	5356.45	5356.45
503.11	983.5	5286.48	5286.48
503.61	983	5315.52	5315.52
504.11	982.5	5352.07	5352.07
504.61	982	5345.31	5345.31
505.11	981.5	5349.24	5349.24
505.61	981	5351.76	5351.76
506.11	980.5	5389.48	5389.48
506.61	980	5408.45	5408.45
507.11	979.5	5435.48	5435.48
507.61	979	5502.52	5502.52
508.11	978.5	5494.28	5494.28
508.61	978	5457.34	5457.34
509.11	977.5	5476.03	5476.03
509.61	977	5451.21	5451.21
510.11	976.5	5443.72	5443.72
510.61	976	5451.62	5451.62
511.11	975.5	5401.17	5401.17
511.61	975	5431.83	5431.83
512.11	974.5	5395.41	5395.41
512.61	974	5397.79	5397.79
513.11	973.5	5403.76	5403.76
513.61	973	5435.59	5435.59
514.11	972.5	5430.17	5430.17
514.61	972	5473.1	5473.1
515.11	971.5	5451.66	5451.66
515.61	971	5469.66	5469.66
516.11	970.5	5462.83	5462.83
516.61	970	5465.62	5465.62
517.11	969.5	5502.66	5502.66
517.61	969	5426.41	5426.41
518.11	968.5	5376.28	5376.28
518.61	968	5462.93	5462.93
519.11	967.5	5453.97	5453.97
519.61	967	5436.52	5436.52
520.11	966.5	5439.86	5439.86
520.61	966	5426.31	5426.31
521.11	965.5	5451.83	5451.83
521.61	965	5511	5511
522.11	964.5	5482.66	5482.66
522.61	964	5437.69	5437.69
523.11	963.5	5450.21	5450.21
523.61	963	5461.86	5461.86
524.11	962.5	5449.69	5449.69
524.61	962	5464.66	5464.66
525.11	961.5	5426.38	5426.38
525.61	961	5467.07	5467.07
526.11	960.5	5517.41	5517.41
526.61	960	5490.69	5490.69
527.11	959.5	5527.55	5527.55
527.61	959	5513.83	5513.83
528.11	958.5	5498.03	5498.03
528.61	958	5521.76	5521.76
529.11	957.5	5488.52	5488.52
529.61	957	5429.24	5429.24
530.11	956.5	5508.59	5508.59
530.61	956	5548.66	5548.66
531.11	955.5	5515.1	5515.1
531.61	955	5549.9	5549.9
532.11	954.5	5475.97	5475.97
532.61	954	5522.03	5522.03
533.11	953.5	5502.93	5502.93
533.61	953	5478.93	5478.93
534.11	952.5	5481.59	5481.59
534.61	952	5537.28	5537.28
535.11	951.5	5558.34	5558.34
535.61	951	5517.21	5517.21
536.11	950.5	5583.52	5583.52
536.61	950	5511	5511
537.11	949.5	5584.55	5584.55
537.61	949	5601.38	5601.38
538.11	948.5	5553.66	5553.66
538.61	948	5573.48	5573.48
539.11	947.5	5629.1	5629.1
539.61	947	5560.31	5560.31
540.11	946.5	5587.79	5587.79
540.61	946	5588.86	5588.86
541.11	945.5	5622.03	5622.03
541.61	945	5610.03	5610.03
542.11	944.5	5631.76	5631.76
542.61	944	5638.79	5638.79
543.11	943.5	5608.59	5608.59
543.61	943	5607.41	5607.41
544.11	942.5	5618.69	5618.69
544.61	942	5605.38	5605.38
545.11	941.5	5588.62	5588.62
545.61	941	5562.86	5562.86
546.11	940.5	5619.76	5619.76
546.61	940	5620.97	5620.97
547.11	939.5	5649.79	5649.79
547.61	939	5599.59	5599.59
548.11	938.5	5642.59	5642.59
548.61	938	5635.86	5635.86
549.11	937.5	5639.66	5639.66
549.61	937	5659	5659
550.11	936.5	5636.1	5636.1
550.61	936	5655.69	5655.69
551.11	935.5	5711.38	5711.38
551.61	935	5725.24	5725.24
552.11	934.5	5697.66	5697.66
552.61	934	5670	5670
553.11	933.5	5750.03	5750.03
553.61	933	5709.24	5709.24
554.11	932.5	5751	5751
554.61	932	5775.76	5775.76
555.11	931.5	5750.72	5750.72
555.61	931	5789.69	5789.69
556.11	930.5	5744.55	5744.55
556.61	930	5747.21	5747.21
557.11	929.5	5734.31	5734.31
557.61	929	5693.21	5693.21
558.11	928.5	5714.28	5714.28
558.61	928	5761.59	5761.59
559.11	927.5	5743.69	5743.69
559.61	927	5773.59	5773.59
560.11	926.5	5696.62	5696.62
560.61	926	5760.45	5760.45
561.11	925.5	5786.24	5786.24
561.61	925	5761.59	5761.59
562.11	924.5	5746.9	5746.9
562.61	924	5778.97	5778.97
563.11	923.5	5760.41	5760.41
563.61	923	5775.52	5775.52
564.11	922.5	5850.72	5850.72
564.61	922	5814.38	5814.38
565.11	921.5	5826.1	5826.1
565.61	921	5832.62	5832.62
566.11	920.5	5836.41	5836.41
566.61	920	5872.38	5872.38
567.11	919.5	5870.97	5870.97
567.61	919	5834.79	5834.79
568.11	918.5	5874.52	5874.52
568.61	918	5876.21	5876.21
569.11	917.5	5764.21	5764.21
569.61	917	5908.9	5908.9
570.11	916.5	5865.79	5865.79
570.61	916	5887.86	5887.86
571.11	915.5	5968.31	5968.31
571.61	915	5907.21	5907.21
572.11	914.5	5871.24	5871.24
572.61	914	5892.38	5892.38
573.11	913.5	5944.38	5944.38
573.61	913	5922.76	5922.76
574.11	912.5	5878.52	5878.52
574.61	912	5878.28	5878.28
575.11	911.5	5897.69	5897.69
575.61	911	5918.31	5918.31
576.11	910.5	5938.9	5938.9
576.61	910	5978.93	5978.93
577.11	909.5	5956.1	5956.1
577.61	909	5951.28	5951.28
578.11	908.5	5981.62	5981.62
578.61	908	5978.17	5978.17
579.11	907.5	5967.03	5967.03
579.61	907	5948.72	5948.72
580.11	906.5	6016.69	6016.69
580.61	906	6053.62	6053.62
581.11	905.5	5954.45	5954.45
581.61	905	5987.07	5987.07
582.11	904.5	5957.38	5957.38
582.61	904	5964.83	5964.83
583.11	903.5	6034.07	6034.07
583.61	903	5994.14	5994.14
584.11	902.5	6029.62	6029.62
584.61	902	6027.07	6027.07
585.11	901.5	6040.72	6040.72
585.61	901	6133.14	6133.14
586.11	900.5	6093.31	6093.31
586.61	900	6146.83	6146.83
587.11	899.5	5993.66	5993.66
587.61	899	6114.17	6114.17
588.11	898.5	6069.55	6069.55
588.61	898	6136.21	6136.21
589.11	897.5	6075.76	6075.76
589.61	897	6180.9	6180.9
590.11	896.5	6126.07	6126.07
590.61	896	6065.31	6065.31
591.11	895.5	6173.31	6173.31
591.61	895	6160.79	6160.79
592.11	894.5	6153.17	6153.17
592.61	894	6099.17	6099.17
593.11	893.5	6116.45	6116.45
593.61	893	6096.9	6096.9
594.11	892.5	6153.17	6153.17
594.61	892	6193.41	6193.41
595.11	891.5	6139.28	6139.28
595.61	891	6151.28	6151.28
596.11	890.5	6184.9	6184.9
596.61	890	6112.86	6112.86
597.11	889.5	6121.45	6121.45
597.61	889	6180.93	6180.93
598.11	888.5	6208.55	6208.55
598.61	888	6170.55	6170.55
599.11	887.5	6185.52	6185.52
599.61	887	6184.9	6184.9
600.11	886.5	6219.38	6219.38
600.61	886	6175.38	6175.38
601.11	885.5	6217.59	6217.59
601.61	885	6234.21	6234.21
602.11	884.5	6166.17	6166.17
602.61	884	6248.24	6248.24
603.11	883.5	6228.31	6228.31
603.61	883	6250.86	6250.86
604.11	882.5	6238.66	6238.66
604.61	882	6329.34	6329.34
605.11	881.5	6283.17	6283.17
605.61	881	6231.48	6231.48
606.11	880.5	6247.17	6247.17
606.61	880	6223.31	6223.31
607.11	879.5	6296.66	6296.66
607.61	879	6306.59	6306.59
608.11	878.5	6263.03	6263.03
608.61	878	6260.24	6260.24
609.11	877.5	6252.55	6252.55
609.61	877	6262.83	6262.83
610.11	876.5	6342.72	6342.72
610.61	876	6366.21	6366.21
611.11	875.5	6333.72	6333.72
611.61	875	6375.38	6375.38
612.11	874.5	6377.66	6377.66
612.61	874	6339.48	6339.48
613.11	873.5	6369.45	6369.45
613.61	873	6360.83	6360.83
614.11	872.5	6363.62	6363.62
614.61	872	6316.14	6316.14
615.11	871.5	6394.21	6394.21
615.61	871	6410.07	6410.07
616.11	870.5	6408.1	6408.1
616.61	870	6374.1	6374.1
617.11	869.5	6402.21	6402.21
617.61	869	6393.76	6393.76
618.11	868.5	6395.79	6395.79
618.61	868	6371.66	6371.66
619.11	867.5	6377.14	6377.14
619.61	867	6417	6417
620.11	866.5	6460.97	6460.97
620.61	866	6459.45	6459.45
621.11	865.5	6425.31	6425.31
621.61	865	6465.9	6465.9
622.11	864.5	6496.83	6496.83
622.61	864	6468.97	6468.97
623.11	863.5	6567.55	6567.55
623.61	863	6528.72	6528.72
624.11	862.5	6423.28	6423.28
624.61	862	6448.38	6448.38
625.11	861.5	6515.93	6515.93
625.61	861	6528.03	6528.03
626.11	860.5	6511.41	6511.41
626.61	860	6516.21	6516.21
627.11	859.5	6494.21	6494.21
627.61	859	6513.48	6513.48
628.11	858.5	6502.03	6502.03
628.61	858	6520.9	6520.9
629.11	857.5	6559.97	6559.97
629.61	857	6567.48	6567.48
630.11	856.5	6537.31	6537.31
630.61	856	6595.83	6595.83
631.11	855.5	6537.34	6537.34
631.61	855	6502	6502
632.11	854.5	6538.24	6538.24
632.61	854	6571.34	6571.34
633.11	853.5	6533.52	6533.52
633.61	853	6602.76	6602.76
634.11	852.5	6598.9	6598.9
634.61	852	6616.59	6616.59
635.11	851.5	6605.9	6605.9
635.61	851	6636.34	6636.34
636.11	850.5	6657.14	6657.14
636.61	850	6606.17	6606.17
637.11	849.5	6605.69	6605.69
637.61	849	6632.83	6632.83
638.11	848.5	6618.86	6618.86
638.61	848	6717.72	6717.72
639.11	847.5	6637.45	6637.45
639.61	847	6658.34	6658.34
640.11	846.5	6637.76	6637.76
640.61	846	6658	6658
641.11	845.5	6765.72	6765.72
641.61	845	6694.28	6694.28
642.11	844.5	6650.14	6650.14
642.61	844	6678.24	6678.24
643.11	843.5	6715.86	6715.86
643.61	843	6687.21	6687.21
644.11	842.5	6734.21	6734.21
644.61	842	6740.24	6740.24
645.11	841.5	6673.62	6673.62
645.61	841	6686.9	6686.9
646.11	840.5	6758.34	6758.34
646.61	840	6724.69	6724.69
647.11	839.5	6774.55	6774.55
647.61	839	6752.79	6752.79
648.11	838.5	6766.1	6766.1
648.61	838	6804.34	6804.34
649.11	837.5	6837.79	6837.79
649.61	837	6753.1	6753.1
650.11	836.5	6783.21	6783.21
650.61	836	6830.21	6830.21
651.11	835.5	6794.52	6794.52
651.61	835	6854.79	6854.79
652.11	834.5	6851.86	6851.86
652.61	834	6775.66	6775.66
653.11	833.5	6770.59	6770.59
653.61	833	6828.93	6828.93
654.11	832.5	6896.31	6896.31
654.61	832	6894.48	6894.48
655.11	831.5	6909.03	6909.03
655.61	831	6863.24	6863.24
656.11	830.5	6864.03	6864.03
656.61	830	6817.48	6817.48
657.11	829.5	6839.62	6839.62
657.61	829	6879.14	6879.14
658.11	828.5	6872.55	6872.55
658.61	828	6909.31	6909.31
659.11	827.5	6956.03	6956.03
659.61	827	6914.86	6914.86
660.11	826.5	6879.72	6879.72
660.61	826	6986.72	6986.72
661.11	825.5	6932.62	6932.62
661.61	825	6937.34	6937.34
662.11	824.5	6913.93	6913.93
662.61	824	6971.62	6971.62
663.11	823.5	6974.93	6974.93
663.61	823	6999.14	6999.14
664.11	822.5	6917.41	6917.41
664.61	822	6996.24	6996.24
665.11	821.5	7014.45	7014.45
665.61	821	7016.03	7016.03
666.11	820.5	6966.66	6966.66
666.61	820	7028	7028
667.11	819.5	7032.9	7032.9
667.61	819	6954.48	6954.48
668.11	818.5	7075.66	7075.66
668.61	818	7053.07	7053.07
669.11	817.5	7034.24	7034.24
669.61	817	7003.17	7003.17
670.11	816.5	7056.72	7056.72
670.61	816	7125.52	7125.52
671.11	815.5	7128.03	7128.03
671.61	815	7076.97	7076.97
672.11	814.5	6981.72	6981.72
672.61	814	7057.59	7057.59
673.11	813.5	7071.34	7071.34
673.61	813	7042.31	7042.31
674.11	812.5	7095.83	7095.83
674.61	812	7145.83	7145.83
675.11	811.5	7159.48	7159.48
675.61	811	7170.59	7170.59
676.11	810.5	7096.66	7096.66
676.61	810	7012.48	7012.48
677.11	809.5	7081.31	7081.31
677.61	809	7115.86	7115.86
678.11	808.5	7150.59	7150.59
678.61	808	7115.07	7115.07
679.11	807.5	7158.66	7158.66
679.61	807	7207.24	7207.24
680.11	806.5	7228.59	7228.59
680.61	806	7143.03	7143.03
681.11	805.5	7201.38	7201.38
681.61	805	7153.28	7153.28
682.11	804.5	7143.55	7143.55
682.61	804	7194.83	7194.83
683.11	803.5	7189.48	7189.48
683.61	803	7218.14	7218.14
684.11	802.5	7219.69	7219.69
684.61	802	7239.55	7239.55
685.11	801.5	7309.93	7309.93
685.61	801	7282.66	7282.66
686.11	800.5	7293.03	7293.03
686.61	800	7254.03	7254.03
687.11	799.5	7251.66	7251.66
687.61	799	7229.48	7229.48
688.11	798.5	7224.03	7224.03
688.61	798	7331.24	7331.24
689.11	797.5	7316.59	7316.59
689.61	797	7300.1	7300.1
690.11	796.5	7336.9	7336.9
690.61	796	7294.14	7294.14
691.11	795.5	7247.17	7247.17
691.61	795	7296.07	7296.07
692.11	794.5	7337.86	7337.86
692.61	794	7359.9	7359.9
693.11	793.5	7312.69	7312.69
693.61	793	7393.28	7393.28
694.11	792.5	7369.14	7369.14
694.61	792	7414.07	7414.07
695.11	791.5	7450.45	7450.45
695.61	791	7415.55	7415.55
696.11	790.5	7381.28	7381.28
696.61	790	7384.72	7384.72
697.11	789.5	7424.93	7424.93
697.61	789	7401.62	7401.62
698.11	788.5	7349.52	7349.52
698.61	788	7528.59	7528.59
699.11	787.5	7512.93	7512.93
699.61	787	7549.62	7549.62
700.11	786.5	7498.03	7498.03
700.61	786	7448.1	7448.1
701.11	785.5	7427.41	7427.41
701.61	785	7487.48	7487.48
702.11	784.5	7508.66	7508.66
702.61	784	7499.69	7499.69
703.11	783.5	7449.1	7449.1
703.61	783	7470.28	7470.28
704.11	782.5	7459.28	7459.28
704.61	782	7554.97	7554.97
705.11	781.5	7496.1	7496.1
705.61	781	7484.31	7484.31
706.11	780.5	7533	7533
706.61	780	7554.59	7554.59
707.11	779.5	7552.34	7552.34
707.61	779	7570.28	7570.28
708.11	778.5	7542	7542
708.61	778	7540.34	7540.34
709.11	777.5	7528.45	7528.45
709.61	777	7572.52	7572.52
710.11	776.5	7634.86	7634.86
710.61	776	7649.45	7649.45
711.11	775.5	7534.34	7534.34
711.61	775	7549.48	7549.48
712.11	774.5	7579.38	7579.38
712.61	774	7642.62	7642.62
713.11	773.5	7633.55	7633.55
713.61	773	7607.52	7607.52
714.11	772.5	7645.45	7645.45
714.61	772	7629.41	7629.41
715.11	771.5	7678.93	7678.93
715.61	771	7714.03	7714.03
716.11	770.5	7667.79	7667.79
716.61	770	7722.76	7722.76
717.11	769.5	7716.38	7716.38
717.61	769	7677.21	7677.21
718.11	768.5	7654.21	7654.21
718.61	768	7649.66	7649.66
719.11	767.5	7713.21	7713.21
719.61	767	7710.45	7710.45
720.11	766.5	7727.66	7727.66
720.61	766	7762.69	7762.69
721.11	765.5	7764.1	7764.1
721.61	765	7753.34	7753.34
722.11	764.5	7748.48	7748.48
722.61	764	7802.17	7802.17
723.11	763.5	7820.34	7820.34
723.61	763	7836.31	7836.31
724.11	762.5	7814.1	7814.1
724.61	762	7772.17	7772.17
725.11	761.5	7795.07	7795.07
725.61	761	7860.38	7860.38
726.11	760.5	7912.03	7912.03
726.61	760	7813.45	7813.45
727.11	759.5	7802.55	7802.55
727.61	759	7834.07	7834.07
728.11	758.5	7914.83	7914.83
728.61	758	7846.28	7846.28
729.11	757.5	7800.38	7800.38
729.61	757	7869.31	7869.31
730.11	756.5	7907.76	7907.76
730.61	756	7926.45	7926.45
731.11	755.5	7866.93	7866.93
731.61	755	7926.17	7926.17
732.11	754.5	7939.14	7939.14
732.61	754	7931.45	7931.45
733.11	753.5	7974.31	7974.31
733.61	753	7882.9	7882.9
734.11	752.5	7919.52	7919.52
734.61	752	7937.03	7937.03
735.11	751.5	7968.9	7968.9
735.61	751	7875.9	7875.9
736.11	750.5	8007.59	8007.59
736.61	750	8066.66	8066.66
737.11	749.5	8044.59	8044.59
737.61	749	8074.76	8074.76
738.11	748.5	8019.48	8019.48
738.61	748	8004.28	8004.28
739.11	747.5	7971.38	7971.38
739.61	747	8071.72	8071.72
740.11	746.5	8123.52	8123.52
740.61	746	8163.07	8163.07
741.11	745.5	8086.34	8086.34
741.61	745	8058.03	8058.03
742.11	744.5	8138.45	8138.45
742.61	744	8077.38	8077.38
743.11	743.5	8066.48	8066.48
743.61	743	8100.62	8100.62
744.11	742.5	8145.9	8145.9
744.61	742	8164.66	8164.66
745.11	741.5	8185.79	8185.79
745.61	741	8088.76	8088.76
746.11	740.5	8166.07	8166.07
746.61	740	8164.66	8164.66
747.11	739.5	8220.55	8220.55
747.61	739	8278.34	8278.34
748.11	738.5	8216.24	8216.24
748.61	738	8137.03	8137.03
749.11	737.5	8116.17	8116.17
749.61	737	8114.62	8114.62
750.11	736.5	8289.86	8289.86
750.61	736	8165.45	8165.45
751.11	735.5	8177.72	8177.72
751.61	735	8063.9	8063.9
752.11	734.5	8113.17	8113.17
752.61	734	8165.66	8165.66
753.11	733.5	8194.1	8194.1
753.61	733	8254.21	8254.21
754.11	732.5	8194.03	8194.03
754.61	732	8240	8240
755.11	731.5	8178.21	8178.21
755.61	731	8111.03	8111.03
756.11	730.5	8169.97	8169.97
756.61	730	8192.76	8192.76
757.11	729.5	8277.93	8277.93
757.61	729	8265.38	8265.38
758.11	728.5	8259.41	8259.41
758.61	728	8363.79	8363.79
759.11	727.5	8359.28	8359.28
759.61	727	8358.45	8358.45
760.11	726.5	8370.97	8370.97
760.61	726	8394.62	8394.62
761.11	725.5	8431.31	8431.31
761.61	725	8508.9	8508.9
762.11	724.5	8583.34	8583.34
762.61	724	8530.55	8530.55
763.11	723.5	8485.79	8485.79
763.61	723	8550.34	8550.34
764.11	722.5	8693.66	8693.66
764.61	722	8791.1	8791.1
765.11	721.5	8957.62	8957.62
765.61	721	8936.59	8936.59
766.11	720.5	8958.62	8958.62
766.61	720	8992.21	8992.21
767.11	719.5	9010.66	9010.66
767.61	719	8992.66	8992.66
768.11	718.5	8937.17	8937.17
768.61	718	9008.41	9008.41
769.11	717.5	8936.72	8936.72
769.61	717	8844.17	8844.17
770.11	716.5	8768.69	8768.69
770.61	716	8753.69	8753.69
771.11	715.5	8672.9	8672.9
771.61	715	8584.76	8584.76
772.11	714.5	8545.34	8545.34
772.61	714	8475.93	8475.93
773.11	713.5	8371.59	8371.59
773.61	713	8420.93	8420.93
774.11	712.5	8325.69	8325.69
774.61	712	8324.76	8324.76
775.11	711.5	8316.86	8316.86
775.61	711	8191.31	8191.31
776.11	710.5	8248.24	8248.24
776.61	710	8223.55	8223.55
777.11	709.5	8146.76	8146.76
777.61	709	8206.21	8206.21
778.11	708.5	8211.38	8211.38
778.61	708	8138.38	8138.38
779.11	707.5	8143.59	8143.59
779.61	707	8074.03	8074.03
780.11	706.5	8146.38	8146.38
780.61	706	8148.45	8148.45
781.11	705.5	8083.31	8083.31
781.61	705	8110.62	8110.62
782.11	704.5	8136.45	8136.45
782.61	704	8090.76	8090.76
783.11	703.5	8050.79	8050.79
783.61	703	8125.69	8125.69
784.11	702.5	8179.72	8179.72
784.61	702	8124.62	8124.62
785.11	701.5	8142.24	8142.24
785.61	701	8090.83	8090.83
786.11	700.5	8019.55	8019.55
786.61	700	8078.03	8078.03
787.11	699.5	8002.17	8002.17
787.61	699	8141.21	8141.21
788.11	698.5	8095.97	8095.97
788.61	698	8097.03	8097.03
789.11	697.5	8139.14	8139.14
789.61	697	8185.14	8185.14
790.11	696.5	8166.76	8166.76
790.61	696	8145.79	8145.79
791.11	695.5	8156.9	8156.9
791.61	695	8238.86	8238.86
792.11	694.5	8131.48	8131.48
792.61	694	8164.14	8164.14
793.11	693.5	8204.93	8204.93
793.61	693	8125.62	8125.62
794.11	692.5	8139.62	8139.62
794.61	692	8254.66	8254.66
795.11	691.5	8245.03	8245.03
795.61	691	8207.97	8207.97
796.11	690.5	8234.79	8234.79
796.61	690	8200.76	8200.76
797.11	689.5	8254.28	8254.28
797.61	689	8222.93	8222.93
798.11	688.5	8237.07	8237.07
798.61	688	8202.1	8202.1
799.11	687.5	8234.66	8234.66
799.61	687	8240.45	8240.45
800.11	686.5	8301.24	8301.24
800.61	686	8252.24	8252.24
801.11	685.5	8241.1	8241.1
801.61	685	8259.41	8259.41
802.11	684.5	8300.9	8300.9
802.61	684	8258.45	8258.45
803.11	683.5	8244.41	8244.41
803.61	683	8298.55	8298.55
804.11	682.5	8344.86	8344.86
804.61	682	8279.03	8279.03
805.11	681.5	8330.1	8330.1
805.61	681	8328.55	8328.55
806.11	680.5	8340.72	8340.72
806.61	680	8343.48	8343.48
807.11	679.5	8307.31	8307.31
807.61	679	8382.14	8382.14
808.11	678.5	8287.76	8287.76
808.61	678	8320.21	8320.21
809.11	677.5	8509.07	8509.07
809.61	677	8388.59	8388.59
810.11	676.5	8352.76	8352.76
810.61	676	8424	8424
811.11	675.5	8351.69	8351.69
811.61	675	8408.34	8408.34
812.11	674.5	8413.86	8413.86
812.61	674	8450.93	8450.93
813.11	673.5	8395.62	8395.62
813.61	673	8374.59	8374.59
814.11	672.5	8326.86	8326.86
814.61	672	8452.72	8452.72
815.11	671.5	8464.14	8464.14
815.61	671	8476.52	8476.52
816.11	670.5	8495.83	8495.83
816.61	670	8465.03	8465.03
817.11	669.5	8491.83	8491.83
817.61	669	8507.66	8507.66
818.11	668.5	8481.1	8481.1
818.61	668	8476.24	8476.24
819.11	667.5	8470.66	8470.66
819.61	667	8450.48	8450.48
820.11	666.5	8526.52	8526.52
820.61	666	8520.17	8520.17
821.11	665.5	8542.79	8542.79
821.61	665	8411.9	8411.9
822.11	664.5	8562.86	8562.86
822.61	664	8593.17	8593.17
823.11	663.5	8592.45	8592.45
823.61	663	8556.17	8556.17
824.11	662.5	8580.97	8580.97
824.61	662	8585.83	8585.83
825.11	661.5	8492.28	8492.28
825.61	661	8613.55	8613.55
826.11	660.5	8618.28	8618.28
826.61	660	8664.62	8664.62
827.11	659.5	8699.83	8699.83
827.61	659	8624.07	8624.07
828.11	658.5	8589.83	8589.83
828.61	658	8617.93	8617.93
829.11	657.5	8730.31	8730.31
829.61	657	8598.9	8598.9
830.11	656.5	8702.45	8702.45
830.61	656	8731.93	8731.93
831.11	655.5	8732.03	8732.03
831.61	655	8688.48	8688.48
832.11	654.5	8803.03	8803.03
832.61	654	8709.83	8709.83
833.11	653.5	8623.97	8623.97
833.61	653	8636.86	8636.86
834.11	652.5	8695.41	8695.41
834.61	652	8773.76	8773.76
835.11	651.5	8731.62	8731.62
835.61	651	8735.28	8735.28
836.11	650.5	8701.66	8701.66
836.61	650	8721.41	8721.41
837.11	649.5	8769.28	8769.28
837.61	649	8755.72	8755.72
838.11	648.5	8746.03	8746.03
838.61	648	8839.97	8839.97
839.11	647.5	8806.45	8806.45
839.61	647	8805.38	8805.38
840.11	646.5	8815.97	8815.97
840.61	646	8860.83	8860.83
841.11	645.5	8866.17	8866.17
841.61	645	8803.55	8803.55
842.11	644.5	8861.59	8861.59
842.61	644	8859.83	8859.83
843.11	643.5	8914.48	8914.48
843.61	643	8841.41	8841.41
844.11	642.5	8928.03	8928.03
844.61	642	8921.24	8921.24
845.11	641.5	9013.48	9013.48
845.61	641	8968.03	8968.03
846.11	640.5	8952.72	8952.72
846.61	640	8955.79	8955.79
847.11	639.5	8957.45	8957.45
847.61	639	9000	9000
848.11	638.5	9010.62	9010.62
848.61	638	9009.52	9009.52
849.11	637.5	9024.69	9024.69
849.61	637	9023.31	9023.31
850.11	636.5	9024.28	9024.28
850.61	636	9011.1	9011.1
851.11	635.5	8989.9	8989.9
851.61	635	9090.72	9090.72
852.11	634.5	9054.9	9054.9
852.61	634	9115.79	9115.79
853.11	633.5	9155.72	9155.72
853.61	633	9144.76	9144.76
854.11	632.5	9082.03	9082.03
854.61	632	9109.72	9109.72
855.11	631.5	9226.45	9226.45
855.61	631	9193.66	9193.66
856.11	630.5	9291.21	9291.21
856.61	630	9299.9	9299.9
857.11	629.5	9297.48	9297.48
857.61	629	9280.03	9280.03
858.11	628.5	9206.93	9206.93
858.61	628	9296.66	9296.66
859.11	627.5	9389.1	9389.1
859.61	627	9381.21	9381.21
860.11	626.5	9331.52	9331.52
860.61	626	9385.76	9385.76
861.11	625.5	9403.17	9403.17
861.61	625	9358.55	9358.55
862.11	624.5	9380.83	9380.83
862.61	624	9298.59	9298.59
863.11	623.5	9231.62	9231.62
863.61	623	9144.07	9144.07
864.11	622.5	9209.31	9209.31
864.61	622	9252.45	9252.45
865.11	621.5	9143.93	9143.93
865.61	621	9025.86	9025.86
866.11	620.5	9076.93	9076.93
866.61	620	9009.86	9009.86
867.11	619.5	9076.03	9076.03
867.61	619	9128.55	9128.55
868.11	618.5	9162.97	9162.97
868.61	618	9090.93	9090.93
869.11	617.5	9084.83	9084.83
869.61	617	9059.14	9059.14
870.11	616.5	9043.76	9043.76
870.61	616	9043.72	9043.72
871.11	615.5	9048.07	9048.07
871.61	615	9022.86	9022.86
872.11	614.5	9071.76	9071.76
872.61	614	9128.34	9128.34
873.11	613.5	9114.62	9114.62
873.61	613	9147.66	9147.66
874.11	612.5	9214.24	9214.24
874.61	612	9256.38	9256.38
875.11	611.5	9255.66	9255.66
875.61	611	9226.38	9226.38
876.11	610.5	9345.34	9345.34
876.61	610	9342	9342
877.11	609.5	9449.76	9449.76
877.61	609	9574.24	9574.24
878.11	608.5	9736.83	9736.83
878.61	608	9782.1	9782.1
879.11	607.5	10017.1	10017.1
879.61	607	10255.7	10255.7
880.11	606.5	10703.1	10703.1
880.61	606	11438.7	11438.7
881.11	605.5	12251.3	12251.3
881.61	605	13368.5	13368.5
882.11	604.5	14604	14604
882.61	604	14908.6	14908.6
883.11	603.5	14062.4	14062.4
883.61	603	12727.7	12727.7
884.11	602.5	11481.1	11481.1
884.61	602	10639.9	10639.9
885.11	601.5	10125.7	10125.7
885.61	601	9732.83	9732.83
886.11	600.5	9470.83	9470.83
886.61	600	9388.83	9388.83
887.11	599.5	9350.97	9350.97
887.61	599	9245.38	9245.38
888.11	598.5	9145.79	9145.79
888.61	598	9185.28	9185.28
889.11	597.5	9070.31	9070.31
889.61	597	9069.72	9069.72
890.11	596.5	9042.55	9042.55
890.61	596	9010.69	9010.69
891.11	595.5	9006.55	9006.55
891.61	595	9056.76	9056.76
892.11	594.5	9064.1	9064.1
892.61	594	8952.24	8952.24
893.11	593.5	8826.9	8826.9
893.61	593	8737.69	8737.69
894.11	592.5	8492.72	8492.72
894.61	592	8482.34	8482.34
895.11	591.5	8470.79	8470.79
895.61	591	8380.21	8380.21
896.11	590.5	8259.38	8259.38
896.61	590	8266.41	8266.41
897.11	589.5	8281.59	8281.59
897.61	589	8278.72	8278.72
898.11	588.5	8199.45	8199.45
898.61	588	8274.86	8274.86
899.11	587.5	8156.28	8156.28
899.61	587	8097.1	8097.1
900.11	586.5	8182.41	8182.41
900.61	586	8186.83	8186.83
901.11	585.5	8101.69	8101.69
901.61	585	8041.34	8041.34
902.11	584.5	8156.48	8156.48
902.61	584	8076.34	8076.34
903.11	583.5	8059.41	8059.41
903.61	583	8143.83	8143.83
904.11	582.5	8185.62	8185.62
904.61	582	8199.69	8199.69
905.11	581.5	8206.83	8206.83
905.61	581	8206.93	8206.93
906.11	580.5	8281.48	8281.48
906.61	580	8429.48	8429.48
907.11	579.5	8406.86	8406.86
907.61	579	8510.69	8510.69
908.11	578.5	8667.03	8667.03
908.61	578	8837.38	8837.38
909.11	577.5	9179.07	9179.07
909.61	577	9451.07	9451.07
910.11	576.5	9818.1	9818.1
910.61	576	10551.8	10551.8
911.11	575.5	11427.7	11427.7
911.61	575	12726.6	12726.6
912.11	574.5	14739	14739
912.61	574	17118	17118
913.11	573.5	18864.7	18864.7
913.61	573	18681.8	18681.8
914.11	572.5	16549.2	16549.2
914.61	572	13924.9	13924.9
915.11	571.5	11731.8	11731.8
915.61	571	10186.3	10186.3
916.11	570.5	9210.17	9210.17
916.61	570	8500.28	8500.28
917.11	569.5	7987.31	7987.31
917.61	569	7582.97	7582.97
918.11	568.5	7275.52	7275.52
918.61	568	7131.76	7131.76
919.11	567.5	7004.45	7004.45
919.61	567	6813.1	6813.1
920.11	566.5	6758.34	6758.34
920.61	566	6636.86	6636.86
921.11	565.5	6565.45	6565.45
921.61	565	6510.31	6510.31
922.11	564.5	6467.45	6467.45
922.61	564	6398.1	6398.1
923.11	563.5	6471.76	6471.76
923.61	563	6449.69	6449.69
924.11	562.5	6432.48	6432.48
924.61	562	6362.45	6362.45
925.11	561.5	6350.52	6350.52
925.61	561	6296.34	6296.34
926.11	560.5	6390.83	6390.83
926.61	560	6313.76	6313.76
927.11	559.5	6290.59	6290.59
927.61	559	6258.97	6258.97
928.11	558.5	6333.59	6333.59
928.61	558	6335.55	6335.55
929.11	557.5	6311.72	6311.72
929.61	557	6320.28	6320.28
930.11	556.5	6315.41	6315.41
930.61	556	6238.48	6238.48
931.11	555.5	6245.14	6245.14
931.61	555	6237.1	6237.1
932.11	554.5	6283.03	6283.03
932.61	554	6288.31	6288.31
933.11	553.5	6283.52	6283.52
933.61	553	6314.62	6314.62
934.11	552.5	6322.93	6322.93
934.61	552	6221.97	6221.97
935.11	551.5	6278.24	6278.24
935.61	551	6272	6272
936.11	550.5	6219.28	6219.28
936.61	550	6284.31	6284.31
937.11	549.5	6290.48	6290.48
937.61	549	6263.9	6263.9
938.11	548.5	6374.21	6374.21
938.61	548	6323.03	6323.03
939.11	547.5	6349.69	6349.69
939.61	547	6261.83	6261.83
940.11	546.5	6201.83	6201.83
940.61	546	6258.9	6258.9
941.11	545.5	6319.17	6319.17
941.61	545	6314.28	6314.28
942.11	544.5	6373.55	6373.55
942.61	544	6320.62	6320.62
943.11	543.5	6357.48	6357.48
943.61	543	6363.41	6363.41
944.11	542.5	6297.34	6297.34
944.61	542	6274.1	6274.1
945.11	541.5	6338.41	6338.41
945.61	541	6343.66	6343.66
946.11	540.5	6360.55	6360.55
946.61	540	6367.1	6367.1
947.11	539.5	6342.72	6342.72
947.61	539	6344.52	6344.52
948.11	538.5	6332.59	6332.59
948.61	538	6342.21	6342.21
949.11	537.5	6328.52	6328.52
949.61	537	6346.31	6346.31
950.11	536.5	6380.38	6380.38
950.61	536	6415.34	6415.34
951.11	535.5	6417.52	6417.52
951.61	535	6448.48	6448.48
952.11	534.5	6375.83	6375.83
952.61	534	6458.9	6458.9
953.11	533.5	6590.38	6590.38
953.61	533	6706.86	6706.86
954.11	532.5	6704.1	6704.1
954.61	532	6658.14	6658.14
955.11	531.5	6656.55	6656.55
955.61	531	6646.97	6646.97
956.11	530.5	6532.66	6532.66
956.61	530	6513.66	6513.66
957.11	529.5	6399.72	6399.72
957.61	529	6418.66	6418.66
958.11	528.5	6465.69	6465.69
958.61	528	6481.69	6481.69
959.11	527.5	6459.83	6459.83
959.61	527	6422.59	6422.59
960.11	526.5	6445.76	6445.76
960.61	526	6462.79	6462.79
961.11	525.5	6489.48	6489.48
961.61	525	6485.48	6485.48
962.11	524.5	6442.97	6442.97
962.61	524	6440.62	6440.62
963.11	523.5	6443.52	6443.52
963.61	523	6459.62	6459.62
964.11	522.5	6527.66	6527.66
964.61	522	6509.31	6509.31
965.11	521.5	6500.93	6500.93
965.61	521	6444.45	6444.45
966.11	520.5	6421.59	6421.59
966.61	520	6562.52	6562.52
967.11	519.5	6590.17	6590.17
967.61	519	6567.41	6567.41
968.11	518.5	6506.31	6506.31
968.61	518	6511.97	6511.97
969.11	517.5	6547.59	6547.59
969.61	517	6565.52	6565.52
970.11	516.5	6552.21	6552.21
970.61	516	6601.69	6601.69
971.11	515.5	6621	6621
971.61	515	6561.07	6561.07
972.11	514.5	6559.72	6559.72
972.61	514	6517.55	6517.55
973.11	513.5	6582.9	6582.9
973.61	513	6580.93	6580.93
974.11	512.5	6617.24	6617.24
974.61	512	6644.76	6644.76
975.11	511.5	6648.76	6648.76
975.61	511	6584.38	6584.38
976.11	510.5	6619.79	6619.79
976.61	510	6583.03	6583.03
977.11	509.5	6535.69	6535.69
977.61	509	6611.21	6611.21
978.11	508.5	6637.52	6637.52
978.61	508	6646.07	6646.07
979.11	507.5	6650.69	6650.69
979.61	507	6662	6662
980.11	506.5	6631.59	6631.59
980.61	506	6595.62	6595.62
981.11	505.5	6651.24	6651.24
981.61	505	6661.79	6661.79
982.11	504.5	6699.93	6699.93
982.61	504	6712.93	6712.93
983.11	503.5	6647.34	6647.34
983.61	503	6720.38	6720.38
984.11	502.5	6732.31	6732.31
984.61	502	6706.48	6706.48
985.11	501.5	6714.34	6714.34
985.61	501	6798.83	6798.83
986.11	500.5	6750.52	6750.52
986.61	500	6762.97	6762.97
987.11	499.5	6715.66	6715.66
987.61	499	6709.93	6709.93
988.11	498.5	6741.07	6741.07
988.61	498	6782.45	6782.45
989.11	497.5	6773.34	6773.34
989.61	497	6784.86	6784.86
990.11	496.5	6764.1	6764.1
990.61	496	6834.07	6834.07
991.11	495.5	6889.07	6889.07
991.61	495	6763.14	6763.14
992.11	494.5	6718.79	6718.79
992.61	494	6734.07	6734.07
993.11	493.5	6806.03	6806.03
993.61	493	6788.21	6788.21
994.11	492.5	6761.52	6761.52
994.61	492	6804.59	6804.59
995.11	491.5	6792.07	6792.07
995.61	491	6821.97	6821.97
996.11	490.5	6789.38	6789.38
996.61	490	6826.17	6826.17
997.11	489.5	6835.03	6835.03
997.61	489	6820.9	6820.9
998.11	488.5	6920.93	6920.93
998.61	488	6969.79	6969.79
999.11	487.5	6933.62	6933.62
999.61	487	6917	6917
1000.11	486.5	6893.93	6893.93
1000.61	486	6859.62	6859.62
1001.11	485.5	6917.38	6917.38
1001.61	485	6915.38	6915.38
1002.11	484.5	6860.17	6860.17
1002.61	484	6895.17	6895.17
1003.11	483.5	6950.48	6950.48
1003.61	483	6927.31	6927.31
1004.11	482.5	6907.59	6907.59
1004.61	482	6924.28	6924.28
1005.11	481.5	6946.83	6946.83
1005.61	481	6949.86	6949.86
1006.11	480.5	6883.45	6883.45
1006.61	480	6933.59	6933.59
1007.11	479.5	6922.66	6922.66
1007.61	479	6960.9	6960.9
1008.11	478.5	6892.38	6892.38
1008.61	478	6946.79	6946.79
1009.11	477.5	6907.31	6907.31
1009.61	477	6984.62	6984.62
1010.11	476.5	7045.41	7045.41
1010.61	476	7010.1	7010.1
1011.11	475.5	6974.9	6974.9
1011.61	475	7055.97	7055.97
1012.11	474.5	7009.03	7009.03
1012.61	474	7027.55	7027.55
1013.11	473.5	6958.9	6958.9
1013.61	473	7000.21	7000.21
1014.11	472.5	7055.1	7055.1
1014.61	472	7018.62	7018.62
1015.11	471.5	7005.03	7005.03
1015.61	471	7151.97	7151.97
1016.11	470.5	7090.31	7090.31
1016.61	470	7071.76	7071.76
1017.11	469.5	7059.28	7059.28
1017.61	469	7121.52	7121.52
1018.11	468.5	7138.93	7138.93
1018.61	468	7173.48	7173.48
1019.11	467.5	7086.24	7086.24
1019.61	467	7145.79	7145.79
1020.11	466.5	7193.79	7193.79
1020.61	466	7125.83	7125.83
1021.11	465.5	7135.21	7135.21
1021.61	465	7179.59	7179.59
1022.11	464.5	7208.48	7208.48
1022.61	464	7154.97	7154.97
1023.11	463.5	7166.1	7166.1
1023.61	463	7292.21	7292.21
1024.11	462.5	7248.48	7248.48
1024.61	462	7177.1	7177.1
1025.11	461.5	7223.66	7223.66
1025.61	461	7279.97	7279.97
1026.11	460.5	7234.93	7234.93
1026.61	460	7260.34	7260.34
1027.11	459.5	7247.48	7247.48
1027.61	459	7317.72	7317.72
1028.11	458.5	7258.97	7258.97
1028.61	458	7277.9	7277.9
1029.11	457.5	7222.31	7222.31
1029.61	457	7258.48	7258.48
1030.11	456.5	7266.69	7266.69
1030.61	456	7305.14	7305.14
1031.11	455.5	7327.38	7327.38
1031.61	455	7340.07	7340.07
1032.11	454.5	7362.1	7362.1
1032.61	454	7356.69	7356.69
1033.11	453.5	7290.41	7290.41
1033.61	453	7337.86	7337.86
1034.11	452.5	7314.28	7314.28
1034.61	452	7380.59	7380.59
1035.11	451.5	7467.07	7467.07
1035.61	451	7435.1	7435.1
1036.11	450.5	7419.17	7419.17
1036.61	450	7375.72	7375.72
1037.11	449.5	7401.31	7401.31
1037.61	449	7327.34	7327.34
1038.11	448.5	7383.52	7383.52
1038.61	448	7423.38	7423.38
1039.11	447.5	7402.31	7402.31
1039.61	447	7394.79	7394.79
1040.11	446.5	7410.34	7410.34
1040.61	446	7434.45	7434.45
1041.11	445.5	7346.17	7346.17
1041.61	445	7312.66	7312.66
1042.11	444.5	7304.07	7304.07
1042.61	444	7367.1	7367.1
1043.11	443.5	7284.76	7284.76
1043.61	443	7419.86	7419.86
1044.11	442.5	7429.66	7429.66
1044.61	442	7474.97	7474.97
1045.11	441.5	7398.79	7398.79
1045.61	441	7385.41	7385.41
1046.11	440.5	7424.93	7424.93
1046.61	440	7414.41	7414.41
1047.11	439.5	7509.66	7509.66
1047.61	439	7466.52	7466.52
1048.11	438.5	7403.76	7403.76
1048.61	438	7478.03	7478.03
1049.11	437.5	7494.41	7494.41
1049.61	437	7497.24	7497.24
1050.11	436.5	7482	7482
1050.61	436	7430.66	7430.66
1051.11	435.5	7428.72	7428.72
1051.61	435	7473.69	7473.69
1052.11	434.5	7428.52	7428.52
1052.61	434	7534.1	7534.1
1053.11	433.5	7462.31	7462.31
1053.61	433	7486.97	7486.97
1054.11	432.5	7503.24	7503.24
1054.61	432	7533.17	7533.17
1055.11	431.5	7568.14	7568.14
1055.61	431	7548.17	7548.17
1056.11	430.5	7592.9	7592.9
1056.61	430	7598.86	7598.86
1057.11	429.5	7572.93	7572.93
1057.61	429	7566.97	7566.97
1058.11	428.5	7594.31	7594.31
1058.61	428	7587.03	7587.03
1059.11	427.5	7656.93	7656.93
1059.61	427	7628.97	7628.97
1060.11	426.5	7532.48	7532.48
1060.61	426	7619.72	7619.72
1061.11	425.5	7693.66	7693.66
1061.61	425	7716.41	7716.41
1062.11	424.5	7696	7696
1062.61	424	7648.69	7648.69
1063.11	423.5	7751.72	7751.72
1063.61	423	7756.1	7756.1
1064.11	422.5	7689.97	7689.97
1064.61	422	7620.34	7620.34
1065.11	421.5	7714.69	7714.69
1065.61	421	7779.83	7779.83
1066.11	420.5	7803.97	7803.97
1066.61	420	7803.03	7803.03
1067.11	419.5	7686.66	7686.66
1067.61	419	7621.72	7621.72
1068.11	418.5	7755.28	7755.28
1068.61	418	7724.55	7724.55
1069.11	417.5	7737.45	7737.45
1069.61	417	7755.24	7755.24
1070.11	416.5	7818.86	7818.86
1070.61	416	7760.07	7760.07
1071.11	415.5	7733.66	7733.66
1071.61	415	7757.59	7757.59
1072.11	414.5	7832.72	7832.72
1072.61	414	7759.48	7759.48
1073.11	413.5	7817.59	7817.59
1073.61	413	7829.66	7829.66
1074.11	412.5	7821.48	7821.48
1074.61	412	7790.03	7790.03
1075.11	411.5	7851.17	7851.17
1075.61	411	7917.97	7917.97
1076.11	410.5	7886.41	7886.41
1076.61	410	7883.62	7883.62
1077.11	409.5	7989.21	7989.21
1077.61	409	7939.34	7939.34
1078.11	408.5	7913.1	7913.1
1078.61	408	7970.83	7970.83
1079.11	407.5	7973.1	7973.1
1079.61	407	8058.93	8058.93
1080.11	406.5	8105.66	8105.66
1080.61	406	8080.1	8080.1
1081.11	405.5	8137.69	8137.69
1081.61	405	8174.62	8174.62
1082.11	404.5	8214.03	8214.03
1082.61	404	8264.55	8264.55
1083.11	403.5	8332.41	8332.41
1083.61	403	8462.76	8462.76
1084.11	402.5	8478.76	8478.76
1084.61	402	8524.24	8524.24
1085.11	401.5	8640.48	8640.48
1085.61	401	8604.72	8604.72
1086.11	400.5	8696.52	8696.52
1086.61	400	8812.28	8812.28
1087.11	399.5	8809.83	8809.83
1087.61	399	8883.24	8883.24
1088.11	398.5	8857.48	8857.48
1088.61	398	8826.1	8826.1
1089.11	397.5	8926.21	8926.21
1089.61	397	8758.9	8758.9
1090.11	396.5	8671.1	8671.1
1090.61	396	9662.24	9662.24
1091.11	395.5	10993.3	10993.3
1091.61	395	9543	9543
1092.11	394.5	8806.24	8806.24
1092.61	394	8785.1	8785.1
1093.11	393.5	8656.14	8656.14
1093.61	393	8709.31	8709.31
1094.11	392.5	8751.62	8751.62
1094.61	392	8736.93	8736.93
1095.11	391.5	8766.66	8766.66
1095.61	391	8332.86	8332.86
1096.11	390.5	8155.79	8155.79
1096.61	390	9402.59	9402.59
1097.11	389.5	10988.8	10988.8
1097.61	389	8814.41	8814.41
1098.11	388.5	7581.86	7581.86
1098.61	388	7399.14	7399.14
1099.11	387.5	7303.03	7303.03
1099.61	387	7287.17	7287.17
1100.11	386.5	7235.66	7235.66
1100.61	386	7149.86	7149.86
1101.11	385.5	7047.14	7047.14
1101.61	385	6999.59	6999.59
1102.11	384.5	6930.03	6930.03
1102.61	384	6922.97	6922.97
1103.11	383.5	6927.62	6927.62
1103.61	383	6927.86	6927.86
1104.11	382.5	6990.76	6990.76
1104.61	382	6938.59	6938.59
1105.11	381.5	6805.59	6805.59
1105.61	381	6658.52	6658.52
1106.11	380.5	6497.76	6497.76
1106.61	380	6449.34	6449.34
1107.11	379.5	6485.14	6485.14
1107.61	379	6601.86	6601.86
1108.11	378.5	7057.52	7057.52
1108.61	378	7404.17	7404.17
1109.11	377.5	6946.55	6946.55
1109.61	377	6821.97	6821.97
1110.11	376.5	7284.34	7284.34
1110.61	376	8305.21	8305.21
1111.11	375.5	11157.4	11157.4
1111.61	375	23337.3	23337.3
1112.11	374.5	54078.6	54078.6
1112.61	374	44189.3	44189.3
1113.11	373.5	11372.6	11372.6
1113.61	373	6342.14	6342.14
1114.11	372.5	6132.21	6132.21
1114.61	372	6249.66	6249.66
1115.11	371.5	5296.48	5296.48
1115.61	371	4863.21	4863.21
1116.11	370.5	5304.55	5304.55
1116.61	370	6745.31	6745.31
1117.11	369.5	11331	11331
1117.61	369	29236.2	29236.2
1118.11	368.5	73525.5	73525.5
1118.61	368	59331	59331
1119.11	367.5	11885.4	11885.4
1119.61	367	3984.28	3984.28
1120.11	366.5	2585.13	2585.13
1120.61	366	2075.41	2075.41
1121.11	365.5	1762.99	1762.99
1121.61	365	1612.62	1612.62
1122.11	364.5	1478.72	1478.72
1122.61	364	1372.6	1372.6
1123.11	363.5	1326.85	1326.85
1123.61	363	1312.48	1312.48
1124.11	362.5	1266.73	1266.73
1124.61	362	1257.87	1257.87
1125.11	361.5	1171.93	1171.93
1125.61	361	1177.09	1177.09
1126.11	360.5	1197.58	1197.58
1126.61	360	1178.5	1178.5
1127.11	359.5	1194.72	1194.72
1127.61	359	1180.32	1180.32
1128.11	358.5	1188.16	1188.16
1128.61	358	1193.34	1193.34
1129.11	357.5	1132.35	1132.35
1129.61	357	1149.18	1149.18
1130.11	356.5	1157.37	1157.37
1130.61	356	1153.99	1153.99
1131.11	355.5	1149.69	1149.69
1131.61	355	1167.01	1167.01
1132.11	354.5	1153.78	1153.78
1132.61	354	1142.2	1142.2
1133.11	353.5	1136.3	1136.3
1133.61	353	1131.52	1131.52
1134.11	352.5	1151.52	1151.52
1134.61	352	1175.78	1175.78
1135.11	351.5	1158.61	1158.61
1135.61	351	1156.52	1156.52
1136.11	350.5	1139.54	1139.54
1136.61	350	1140.82	1140.82
1137.11	349.5	1133.34	1133.34
1137.61	349	1155.35	1155.35
1138.11	348.5	1165.21	1165.21
1138.61	348	1154.43	1154.43
1139.11	347.5	1168.64	1168.64
1139.61	347	1153.07	1153.07
1140.11	346.5	1152.09	1152.09
1140.61	346	1137.14	1137.14
1141.11	345.5	1161.49	1161.49
1141.61	345	1162.79	1162.79
1142.11	344.5	1135.53	1135.53
1142.61	344	1150.09	1150.09
1143.11	343.5	1166.71	1166.71
1143.61	343	1159.73	1159.73
1144.11	342.5	1136.23	1136.23
1144.61	342	1168.43	1168.43
1145.11	341.5	1147.24	1147.24
1145.61	341	1160.37	1160.37
1146.11	340.5	1154.79	1154.79
1146.61	340	1153.62	1153.62
1147.11	339.5	1155.12	1155.12
1147.61	339	1132.75	1132.75
1148.11	338.5	1134.01	1134.01
1148.61	338	1137.93	1137.93
1149.11	337.5	1160.6	1160.6
1149.61	337	1152.44	1152.44
1150.11	336.5	1170.23	1170.23
1150.61	336	1144.49	1144.49
1151.11	335.5	1146.76	1146.76
1151.61	335	1151.43	1151.43
1152.11	334.5	1162.99	1162.99
1152.61	334	1176.07	1176.07
1153.11	333.5	1182.61	1182.61
1153.61	333	1154.78	1154.78
1154.11	332.5	1143.92	1143.92
1154.61	332	1184.64	1184.64
1155.11	331.5	1171.9	1171.9
1155.61	331	1165.5	1165.5
1156.11	330.5	1149.78	1149.78
1156.61	330	1149.39	1149.39
1157.11	329.5	1139.86	1139.86
1157.61	329	1166.16	1166.16
1158.11	328.5	1164.47	1164.47
1158.61	328	1182.04	1182.04
1159.11	327.5	1154.96	1154.96
1159.61	327	1194.99	1194.99
1160.11	326.5	1179.74	1179.74
1160.61	326	1181.27	1181.27
1161.11	325.5	1179.33	1179.33
1161.61	325	1190.26	1190.26
1162.11	324.5	1200.55	1200.55
1162.61	324	1176.06	1176.06
1163.11	323.5	1165.42	1165.42
1163.61	323	1167.66	1167.66
1164.11	322.5	1165.23	1165.23
1164.61	322	1211.81	1211.81
1165.11	321.5	1233.07	1233.07
1165.61	321	1192.2	1192.2
1166.11	320.5	1197.62	1197.62
1166.61	320	1195.3	1195.3
1167.11	319.5	1206.83	1206.83
1167.61	319	1234.02	1234.02
1168.11	318.5	1209.79	1209.79
1168.61	318	1212.96	1212.96
1169.11	317.5	1192.14	1192.14
1169.61	317	1205.39	1205.39
1170.11	316.5	1191.38	1191.38
1170.61	316	1192.98	1192.98
1171.11	315.5	1218.53	1218.53
1171.61	315	1224.7	1224.7
1172.11	314.5	1193.52	1193.52
1172.61	314	1189.96	1189.96
1173.11	313.5	1197.95	1197.95
1173.61	313	1204.67	1204.67
1174.11	312.5	1194.63	1194.63
1174.61	312	1203.72	1203.72
1175.11	311.5	1204.66	1204.66
1175.61	311	1202.33	1202.33
1176.11	310.5	1219.41	1219.41
1176.61	310	1216.35	1216.35
1177.11	309.5	1239.02	1239.02
1177.61	309	1209.55	1209.55
1178.11	308.5	1239.89	1239.89
1178.61	308	1218.67	1218.67
1179.11	307.5	1248.13	1248.13
1179.61	307	1239.8	1239.8
1180.11	306.5	1220.68	1220.68
1180.61	306	1228.7	1228.7
1181.11	305.5	1228.08	1228.08
1181.61	305	1205.76	1205.76
1182.11	304.5	1223.35	1223.35
1182.61	304	1218.56	1218.56
1183.11	303.5	1212.03	1212.03
1183.61	303	1227.09	1227.09
1184.11	302.5	1227.02	1227.02
1184.61	302	1195.22	1195.22
1185.11	301.5	1185.33	1185.33
1185.61	301	1236.31	1236.31
1186.11	300.5	1205.38	1205.38
1186.61	300	1204.4	1204.4
1187.11	299.5	1215.59	1215.59
1187.61	299	1234.27	1234.27
1188.11	298.5	1211.92	1211.92
1188.61	298	1222.62	1222.62
1189.11	297.5	1235.64	1235.64
1189.61	297	1221	1221
1190.11	296.5	1210.17	1210.17
1190.61	296	1225.95	1225.95
1191.11	295.5	1227.27	1227.27
1191.61	295	1253.77	1253.77
1192.11	294.5	1227.38	1227.38
1192.61	294	1234.72	1234.72
1193.11	293.5	1209.32	1209.32
1193.61	293	1256.22	1256.22
1194.11	292.5	1252.56	1252.56
1194.61	292	1199.55	1199.55
1195.11	291.5	1213.3	1213.3
1195.61	291	1234.48	1234.48
1196.11	290.5	1238.8	1238.8
1196.61	290	1259.47	1259.47
1197.11	289.5	1289.81	1289.81
1197.61	289	1288	1288
1198.11	288.5	1280.54	1280.54
1198.61	288	1311.44	1311.44
1199.11	287.5	1303.29	1303.29
1199.61	287	1327.6	1327.6
1200.11	286.5	1407.36	1407.36
1200.61	286	1429.74	1429.74
1201.11	285.5	1593.1	1593.1
1201.61	285	1864.17	1864.17
1202.11	284.5	1872.01	1872.01
1202.61	284	1491.34	1491.34
1203.11	283.5	1243.27	1243.27
1203.61	283	1260.71	1260.71
1204.11	282.5	1236.06	1236.06
1204.61	282	1221.25	1221.25
1205.11	281.5	1224.38	1224.38
1205.61	281	1228.37	1228.37
1206.11	280.5	1233.83	1233.83
1206.61	280	1221.65	1221.65
1207.11	279.5	1204.92	1204.92
1207.61	279	1226.63	1226.63
1208.11	278.5	1214.51	1214.51
1208.61	278	1215.86	1215.86
1209.11	277.5	1235.19	1235.19
1209.61	277	1236.48	1236.48
1210.11	276.5	1208.58	1208.58
1210.61	276	1234.71	1234.71
1211.11	275.5	1226.91	1226.91
1211.61	275	1236.86	1236.86
1212.11	274.5	1231.5	1231.5
1212.61	274	1269.42	1269.42
1213.11	273.5	1253.18	1253.18
1213.61	273	1225.58	1225.58
1214.11	272.5	1257.49	1257.49
1214.61	272	1246.76	1246.76
1215.11	271.5	1236.85	1236.85
1215.61	271	1236.89	1236.89
1216.11	270.5	1228.77	1228.77
1216.61	270	1267.33	1267.33
1217.11	269.5	1265.47	1265.47
1217.61	269	1272.71	1272.71
1218.11	268.5	1252.71	1252.71
1218.61	268	1261.78	1261.78
1219.11	267.5	1272.74	1272.74
1219.61	267	1247.15	1247.15
1220.11	266.5	1265.28	1265.28
1220.61	266	1241.95	1241.95
1221.11	265.5	1260.53	1260.53
1221.61	265	1240.61	1240.61
1222.11	264.5	1241.61	1241.61
1222.61	264	1238.58	1238.58
1223.11	263.5	1219.57	1219.57
1223.61	263	1257.18	1257.18
1224.11	262.5	1266.08	1266.08
1224.61	262	1274.6	1274.6
1225.11	261.5	1281.11	1281.11
1225.61	261	1248.62	1248.62
1226.11	260.5	1253.9	1253.9
1226.61	260	1242.44	1242.44
1227.11	259.5	1250.36	1250.36
1227.61	259	1248.35	1248.35
1228.11	258.5	1259.35	1259.35
1228.61	258	1281.72	1281.72
1229.11	257.5	1307.37	1307.37
1229.61	257	1279.3	1279.3
1230.11	256.5	1257.48	1257.48
1230.61	256	1254.69	1254.69
1231.11	255.5	1265.03	1265.03
1231.61	255	1290.42	1290.42
1232.11	254.5	1274.44	1274.44
1232.61	254	1306.8	1306.8
1233.11	253.5	1279.25	1279.25
1233.61	253	1249.38	1249.38
1234.11	252.5	1232.86	1232.86
1234.61	252	1285.25	1285.25
1235.11	251.5	1286.39	1286.39
1235.61	251	1266.37	1266.37
1236.11	250.5	1280.41	1280.41
1236.61	250	1276.12	1276.12
1237.11	249.5	1269.64	1269.64
1237.61	249	1289.16	1289.16
1238.11	248.5	1295.27	1295.27
1238.61	248	1295.79	1295.79
1239.11	247.5	1309.86	1309.86
1239.61	247	1289.27	1289.27
1240.11	246.5	1283.4	1283.4
1240.61	246	1271.5	1271.5
1241.11	245.5	1305.13	1305.13
1241.61	245	1318.46	1318.46
1242.11	244.5	1346.84	1346.84
1242.61	244	1356.77	1356.77
1243.11	243.5	1321.56	1321.56
1243.61	243	1345.26	1345.26
1244.11	242.5	1377.22	1377.22
1244.61	242	1375.39	1375.39
1245.11	241.5	1332.23	1332.23
1245.61	241	1274	1274
1246.11	240.5	1297.02	1297.02
1246.61	240	1275.04	1275.04
1247.11	239.5	1286.44	1286.44
1247.61	239	1310.79	1310.79
1248.11	238.5	1295.76	1295.76
1248.61	238	1327.94	1327.94
1249.11	237.5	1347.57	1347.57
1249.61	237	1312.99	1312.99
1250.11	236.5	1310.4	1310.4
1250.61	236	1319.37	1319.37
1251.11	235.5	1329.15	1329.15
1251.61	235	1330.14	1330.14
1252.11	234.5	1302.9	1302.9
1252.61	234	1329.6	1329.6
1253.11	233.5	1347.59	1347.59
1253.61	233	1323.01	1323.01
1254.11	232.5	1335.11	1335.11
1254.61	232	1329.81	1329.81
1255.11	231.5	1306.43	1306.43
1255.61	231	1329.9	1329.9
1256.11	230.5	1351.27	1351.27
1256.61	230	1319.97	1319.97
1257.11	229.5	1325.1	1325.1
1257.61	229	1357.52	1357.52
1258.11	228.5	1342.06	1342.06
1258.61	228	1365.83	1365.83
1259.11	227.5	1369.53	1369.53
1259.61	227	1359.4	1359.4
1260.11	226.5	1360.39	1360.39
1260.61	226	1416.69	1416.69
1261.11	225.5	1418.44	1418.44
1261.61	225	1421.7	1421.7
1262.11	224.5	1386.37	1386.37
1262.61	224	1330.67	1330.67
1263.11	223.5	1352	1352
1263.61	223	1346.26	1346.26
1264.11	222.5	1346.04	1346.04
1264.61	222	1346.56	1346.56
1265.11	221.5	1332.6	1332.6
1265.61	221	1325.96	1325.96
1266.11	220.5	1341.77	1341.77
1266.61	220	1346.21	1346.21
1267.11	219.5	1343.64	1343.64
1267.61	219	1343.39	1343.39
1268.11	218.5	1362.87	1362.87
1268.61	218	1353.06	1353.06
1269.11	217.5	1338.63	1338.63
1269.61	217	1357.47	1357.47
1270.11	216.5	1330.81	1330.81
1270.61	216	1316.79	1316.79
1271.11	215.5	1316.64	1316.64
1271.61	215	1350.3	1350.3
1272.11	214.5	1359.19	1359.19
1272.61	214	1331.25	1331.25
1273.11	213.5	1352.51	1352.51
1273.61	213	1342.25	1342.25
1274.11	212.5	1332.23	1332.23
1274.61	212	1363.57	1363.57
1275.11	211.5	1393.27	1393.27
1275.61	211	1373.49	1373.49
1276.11	210.5	1412.52	1412.52
1276.61	210	1372.03	1372.03
1277.11	209.5	1328.61	1328.61
1277.61	209	1389.57	1389.57
1278.11	208.5	1378.56	1378.56
1278.61	208	1364.05	1364.05
1279.11	207.5	1348.71	1348.71
1279.61	207	1371.26	1371.26
1280.11	206.5	1339.99	1339.99
1280.61	206	1381.76	1381.76
1281.11	205.5	1391.86	1391.86
1281.61	205	1399.34	1399.34
1282.11	204.5	1379.88	1379.88
1282.61	204	1408.83	1408.83
1283.11	203.5	1390.46	1390.46
1283.61	203	1352.35	1352.35
1284.11	202.5	1347.17	1347.17
1284.61	202	1346.92	1346.92
1285.11	201.5	1384.83	1384.83
1285.61	201	1375.17	1375.17
1286.11	200.5	1395.94	1395.94
1286.61	200	1412.98	1412.98
1287.11	199.5	1391.32	1391.32
1287.61	199	1404.57	1404.57
1288.11	198.5	1413.07	1413.07
1288.61	198	1401.86	1401.86
1289.11	197.5	1411.84	1411.84
1289.61	197	1367.05	1367.05
1290.11	196.5	1381.53	1381.53
1290.61	196	1427.44	1427.44
1291.11	195.5	1438.55	1438.55
1291.61	195	1417.51	1417.51
1292.11	194.5	1397.39	1397.39
1292.61	194	1397.58	1397.58
1293.11	193.5	1417.12	1417.12
1293.61	193	1411.92	1411.92
1294.11	192.5	1406.98	1406.98
1294.61	192	1423.4	1423.4
1295.11	191.5	1372.59	1372.59
1295.61	191	1412.75	1412.75
1296.11	190.5	1397.29	1397.29
1296.61	190	1379.4	1379.4
1297.11	189.5	1448.91	1448.91
1297.61	189	1442.64	1442.64
1298.11	188.5	1410.04	1410.04
1298.61	188	1389.77	1389.77
1299.11	187.5	1424.27	1424.27
1299.61	187	1435.4	1435.4
1300.11	186.5	1410.83	1410.83
1300.61	186	1413.32	1413.32
1301.11	185.5	1451.76	1451.76
1301.61	185	1427.81	1427.81
1302.11	184.5	1440.92	1440.92
1302.61	184	1461.02	1461.02
1303.11	183.5	1454.68	1454.68
1303.61	183	1468.08	1468.08
1304.11	182.5	1456.15	1456.15
1304.61	182	1444.18	1444.18
1305.11	181.5	1440.67	1440.67
1305.61	181	1435.57	1435.57
1306.11	180.5	1451.01	1451.01
1306.61	180	1454.27	1454.27
1307.11	179.5	1426.61	1426.61
1307.61	179	1475.1	1475.1
1308.11	178.5	1475.75	1475.75
1308.61	178	1443.97	1443.97
1309.11	177.5	1443.3	1443.3
1309.61	177	1467.73	1467.73
1310.11	176.5	1462.95	1462.95
1310.61	176	1489.15	1489.15
1311.11	175.5	1476.83	1476.83
1311.61	175	1502.73	1502.73
1312.11	174.5	1483.46	1483.46
1312.61	174	1465.41	1465.41
1313.11	173.5	1473.06	1473.06
1313.61	173	1468.03	1468.03
1314.11	172.5	1469.62	1469.62
1314.61	172	1468.37	1468.37
1315.11	171.5	1498	1498
1315.61	171	1455.14	1455.14
1316.11	170.5	1505.33	1505.33
1316.61	170	1491.14	1491.14
1317.11	169.5	1503.51	1503.51
1317.61	169	1534.73	1534.73
1318.11	168.5	1487.04	1487.04
1318.61	168	1487.43	1487.43
1319.11	167.5	1515.78	1515.78
1319.61	167	1486.21	1486.21
1320.11	166.5	1534.99	1534.99
1320.61	166	1525.37	1525.37
1321.11	165.5	1539.96	1539.96
1321.61	165	1520.2	1520.2
1322.11	164.5	1512.28	1512.28
1322.61	164	1530.21	1530.21
1323.11	163.5	1503.75	1503.75
1323.61	163	1568.8	1568.8
1324.11	162.5	1621.48	1621.48
1324.61	162	1644.67	1644.67
1325.11	161.5	1619.81	1619.81
1325.61	161	1705.26	1705.26
1326.11	160.5	1631.03	1631.03
1326.61	160	1526.98	1526.98
1327.11	159.5	1514.26	1514.26
1327.61	159	1519.62	1519.62
1328.11	158.5	1505.68	1505.68
1328.61	158	1538.3	1538.3
1329.11	157.5	1517.34	1517.34
1329.61	157	1523.65	1523.65
1330.11	156.5	1501.7	1501.7
1330.61	156	1519.9	1519.9
1331.11	155.5	1520.07	1520.07
1331.61	155	1532.22	1532.22
1332.11	154.5	1521.9	1521.9
1332.61	154	1557.46	1557.46
1333.11	153.5	1550.57	1550.57
1333.61	153	1531.6	1531.6
1334.11	152.5	1559.83	1559.83
1334.61	152	1520.2	1520.2
1335.11	151.5	1549.56	1549.56
1335.61	151	1546.86	1546.86
1336.11	150.5	1542.77	1542.77
1336.61	150	1545.14	1545.14
1337.11	149.5	1527.38	1527.38
1337.61	149	1504.52	1504.52
1338.11	148.5	1525.6	1525.6
1338.61	148	1519.54	1519.54
1339.11	147.5	1563.76	1563.76
1339.61	147	1560.42	1560.42
1340.11	146.5	1565	1565
1340.61	146	1534.34	1534.34
1341.11	145.5	1556.62	1556.62
1341.61	145	1528.04	1528.04
1342.11	144.5	1525.83	1525.83
1342.61	144	1533.8	1533.8
1343.11	143.5	1542.19	1542.19
1343.61	143	1562.89	1562.89
1344.11	142.5	1567.22	1567.22
1344.61	142	1559.89	1559.89
1345.11	141.5	1588.82	1588.82
1345.61	141	1556.01	1556.01
1346.11	140.5	1589.08	1589.08
1346.61	140	1603.57	1603.57
1347.11	139.5	1576.45	1576.45
1347.61	139	1564.12	1564.12
1348.11	138.5	1557.77	1557.77
1348.61	138	1607.95	1607.95
1349.11	137.5	1563.44	1563.44
1349.61	137	1585.27	1585.27
1350.11	136.5	1593.27	1593.27
1350.61	136	1589.04	1589.04
1351.11	135.5	1578.37	1578.37
1351.61	135	1585.5	1585.5
1352.11	134.5	1588.59	1588.59
1352.61	134	1602.02	1602.02
1353.11	133.5	1604.36	1604.36
1353.61	133	1612.73	1612.73
1354.11	132.5	1614.67	1614.67
1354.61	132	1635.09	1635.09
1355.11	131.5	1565.32	1565.32
1355.61	131	1605.68	1605.68
1356.11	130.5	1586.74	1586.74
1356.61	130	1591.47	1591.47
1357.11	129.5	1631.26	1631.26
1357.61	129	1600.68	1600.68
1358.11	128.5	1612.41	1612.41
1358.61	128	1600.77	1600.77
1359.11	127.5	1615.55	1615.55
1359.61	127	1612.5	1612.5
1360.11	126.5	1653.15	1653.15
1360.61	126	1656.73	1656.73
1361.11	125.5	1625.53	1625.53
1361.61	125	1645.8	1645.8
1362.11	124.5	1634.59	1634.59
1362.61	124	1652.12	1652.12
1363.11	123.5	1677.54	1677.54
1363.61	123	1667.25	1667.25
1364.11	122.5	1632.41	1632.41
1364.61	122	1640.3	1640.3
1365.11	121.5	1620.77	1620.77
1365.61	121	1635.53	1635.53
1366.11	120.5	1629.97	1629.97
1366.61	120	1641.87	1641.87
1367.11	119.5	1657.29	1657.29
1367.61	119	1648.61	1648.61
1368.11	118.5	1642.55	1642.55
1368.61	118	1647.83	1647.83
1369.11	117.5	1645.33	1645.33
1369.61	117	1630.76	1630.76
1370.11	116.5	1644.21	1644.21
1370.61	116	1641.17	1641.17
1371.11	115.5	1602.41	1602.41
1371.61	115	1679.85	1679.85
1372.11	114.5	1686.29	1686.29
1372.61	114	1649.06	1649.06
1373.11	113.5	1647.11	1647.11
1373.61	113	1617.68	1617.68
1374.11	112.5	1621.97	1621.97
1374.61	112	1647.3	1647.3
1375.11	111.5	1655.44	1655.44
1375.61	111	1658.5	1658.5
1376.11	110.5	1656.29	1656.29
1376.61	110	1676.32	1676.32
1377.11	109.5	1678.88	1678.88
1377.61	109	1690.67	1690.67
1378.11	108.5	1667.3	1667.3
1378.61	108	1632.96	1632.96
1379.11	107.5	1687.63	1687.63
1379.61	107	1705.07	1705.07
1380.11	106.5	1679.37	1679.37
1380.61	106	1712.87	1712.87
1381.11	105.5	1671.25	1671.25
1381.61	105	1709.43	1709.43
1382.11	104.5	1723.27	1723.27
1382.61	104	1759.58	1759.58
1383.11	103.5	1723.52	1723.52
1383.61	103	1758.98	1758.98
1384.11	102.5	1787.17	1787.17
1384.61	102	1780.79	1780.79
1385.11	101.5	1825.87	1825.87
1385.61	101	1851.33	1851.33
1386.11	100.5	1895.67	1895.67
1386.61	100	1932.33	1932.33
1387.11	99.5	2002.9	2002.9
1387.61	99	2083.5	2083.5
1388.11	98.5	2141.73	2141.73
1388.61	98	2216.25	2216.25
1389.11	97.5	2292.58	2292.58
1389.61	97	2319.44	2319.44
1390.11	96.5	2292.39	2292.39
1390.61	96	2180.87	2180.87
1391.11	95.5	2070.95	2070.95
1391.61	95	1978.07	1978.07
1392.11	94.5	1881.67	1881.67
1392.61	94	1799.66	1799.66
1393.11	93.5	1787.99	1787.99
1393.61	93	1687.58	1687.58
1394.11	92.5	1705.02	1705.02
1394.61	92	1704.98	1704.98
1395.11	91.5	1698.57	1698.57
1395.61	91	1661.17	1661.17
1396.11	90.5	1626.27	1626.27
1396.61	90	1610.34	1610.34
1397.11	89.5	1638.83	1638.83
1397.61	89	1682.12	1682.12
1398.11	88.5	1645.43	1645.43
1398.61	88	1588.71	1588.71
1399.11	87.5	1647.23	1647.23
1399.61	87	1687.96	1687.96
1400.11	86.5	1673.98	1673.98
1400.61	86	1641.75	1641.75
1401.11	85.5	1617.97	1617.97
1401.61	85	1628.86	1628.86
1402.11	84.5	1641.69	1641.69
1402.61	84	1637.67	1637.67
1403.11	83.5	1639.32	1639.32
1403.61	83	1655.87	1655.87
1404.11	82.5	1648.47	1648.47
1404.61	82	1651.95	1651.95
1405.11	81.5	1612.01	1612.01
1405.61	81	1635.75	1635.75
1406.11	80.5	1616.5	1616.5
1406.61	80	1619.75	1619.75
1407.11	79.5	1629.18	1629.18
1407.61	79	1592.66	1592.66
1408.11	78.5	1592.57	1592.57
1408.61	78	1565.56	1565.56
1409.11	77.5	1566.6	1566.6
1409.61	77	1548.26	1548.26
1410.11	76.5	1528.54	1528.54
1410.61	76	1583.08	1583.08
1411.11	75.5	1611.4	1611.4
1411.61	75	1596.85	1596.85
1412.11	74.5	1586.74	1586.74
1412.61	74	1577.42	1577.42
1413.11	73.5	1577.45	1577.45
1413.61	73	1579	1579
1414.11	72.5	1546.36	1546.36
1414.61	72	1596.7	1596.7
1415.11	71.5	1619.83	1619.83
1415.61	71	1599.23	1599.23
1416.11	70.5	1672.7	1672.7
1416.61	70	1689.22	1689.22
1417.11	69.5	1725.43	1725.43
1417.61	69	1731.53	1731.53
1418.11	68.5	1749.93	1749.93
1418.61	68	1790.48	1790.48
1419.11	67.5	1849.82	1849.82
1419.61	67	1948.44	1948.44
1420.11	66.5	1967.9	1967.9
1420.61	66	2046.02	2046.02
1421.11	65.5	2097.3	2097.3
1421.61	65	2146.97	2146.97
1422.11	64.5	2194.1	2194.1
1422.61	64	2238.45	2238.45
1423.11	63.5	2247.7	2247.7
1423.61	63	2324.57	2324.57
1424.11	62.5	2304.18	2304.18
1424.61	62	2314.32	2314.32
1425.11	61.5	2361.77	2361.77
1425.61	61	2402.38	2402.38
1426.11	60.5	2449.54	2449.54
1426.61	60	2452.74	2452.74
1427.11	59.5	2475.73	2475.73
1427.61	59	2530.21	2530.21
1428.11	58.5	2460.27	2460.27
1428.61	58	2450.61	2450.61
1429.11	57.5	2367.39	2367.39
1429.61	57	2282.97	2282.97
1430.11	56.5	2223.94	2223.94
1430.61	56	2089.22	2089.22
1431.11	55.5	1966.34	1966.34
1431.61	55	1774.85	1774.85
1432.11	54.5	1651.44	1651.44
1432.61	54	1520.94	1520.94
1433.11	53.5	1431.4	1431.4
1433.61	53	1313.79	1313.79
1434.11	52.5	1255.11	1255.11
1434.61	52	1173.74	1173.74
1435.11	51.5	1107.5	1107.5
1435.61	51	1054.55	1054.55
1436.11	50.5	1030.92	1030.92
1436.61	50	1002.67	1002.67
1437.11	49.5	939.1	939.1
1437.61	49	945.931	945.931
1438.11	48.5	871.224	871.224
1438.61	48	861.872	861.872
1439.11	47.5	851.272	851.272
1439.61	47	800.69	800.69
1440.11	46.5	828.359	828.359
1440.61	46	823.434	823.434
1441.11	45.5	807.031	807.031
1441.61	45	775.014	775.014
1442.11	44.5	766.679	766.679
1442.61	44	754.934	754.934
1443.11	43.5	790.934	790.934
1443.61	43	791.293	791.293
1444.11	42.5	786.959	786.959
1444.61	42	776.421	776.421
1445.11	41.5	772.497	772.497
1445.61	41	758.124	758.124
1446.11	40.5	807.01	807.01
1446.61	40	789.962	789.962
1447.11	39.5	771.166	771.166
1447.61	39	790.693	790.693
1448.11	38.5	789.917	789.917
1448.61	38	796.721	796.721
1449.11	37.5	783.493	783.493
1449.61	37	780.679	780.679
1450.11	36.5	801.59	801.59
1450.61	36	794.838	794.838
1451.11	35.5	814.772	814.772
1451.61	35	816.59	816.59
1452.11	34.5	818.552	818.552
1452.61	34	789.193	789.193
1453.11	33.5	808.603	808.603
1453.61	33	840.921	840.921
1454.11	32.5	861.676	861.676
1454.61	32	843.334	843.334
1455.11	31.5	855.362	855.362
1455.61	31	875.552	875.552
1456.11	30.5	869.055	869.055
1456.61	30	888.786	888.786
1457.11	29.5	867.252	867.252
1457.61	29	867.355	867.355
1458.11	28.5	927.7	927.7
1458.61	28	960.59	960.59
1459.11	27.5	927.476	927.476
1459.61	27	899.924	899.924
1460.11	26.5	860.117	860.117
1460.61	26	871.793	871.793
1461.11	25.5	881.152	881.152
1461.61	25	799.248	799.248
1462.11	24.5	715.393	715.393
1462.61	24	694.428	694.428
1463.11	23.5	702.41	702.41
1463.61	23	700.772	700.772
1464.11	22.5	673.81	673.81
1464.61	22	679.352	679.352
1465.11	21.5	695.007	695.007
1465.61	21	757.259	757.259
1466.11	20.5	748.4	748.4
1466.61	20	655.245	655.245
1467.11	19.5	647.476	647.476
1467.61	19	640.479	640.479
1468.11	18.5	646.707	646.707
1468.61	18	658.148	658.148
1469.11	17.5	662.169	662.169
1469.61	17	667.007	667.007
1470.11	16.5	642.428	642.428
1470.61	16	660.662	660.662
1471.11	15.5	686.5	686.5
1471.61	15	693.962	693.962
1472.11	14.5	674.521	674.521
1472.61	14	681.741	681.741
1473.11	13.5	697.966	697.966
1473.61	13	680.262	680.262
1474.11	12.5	680.879	680.879
1474.61	12	647.19	647.19
1475.11	11.5	651.421	651.421
1475.61	11	668.059	668.059
1476.11	10.5	701.783	701.783
1476.61	10	725.134	725.134
1477.11	9.5	747.503	747.503
1477.61	9	830.531	830.531
1478.11	8.5	929.879	929.879
1478.61	8	1303.29	1303.29
1479.11	7.5	2427.08	2427.08
1479.61	7	4046.9	4046.9
1480.11	6.5	4755.93	4755.93
1480.61	6	4832.9	4832.9
1481.11	5.5	5265.72	5265.72
1481.61	5	5751.24	5751.24
1482.11	4.5	5396.66	5396.66
1482.61	4	3332.05	3332.05
1483.11	3.5	801.745	801.745
1483.61	3	340.563	340.563
1484.11	2.5	302.508	302.508
1484.61	2	272.962	272.962
1485.11	1.5	260.121	260.121
1485.61	1	242.07	242.07
1486.11	0.5	216.761	216.761
1486.61	-2.27374e-013	114.801	114.801