c:\users\mark\owncloud\muelheim group\projects\gas phase background\ex340_cec356_ag he largearea.vms
Ag3d
	Characteristic Energy eV	1486.61	Acquisition Time s	0.8
KE_Ag3d	BE_Ag3d	CPS_Ag3d
1036.61	450	8936.94
1036.71	449.9	9015.11
1036.81	449.8	8993.79
1036.91	449.7	9019.4
1037.01	449.6	9084.69
1037.11	449.5	8935.32
1037.21	449.4	9032.67
1037.31	449.3	9131.16
1037.41	449.2	9006.24
1037.51	449.1	9025.7
1037.61	449	9011.02
1037.71	448.9	9001.99
1037.81	448.8	8984.91
1037.91	448.7	9138.86
1038.01	448.6	9135.64
1038.11	448.5	9102.31
1038.21	448.4	8953.07
1038.31	448.3	8953.46
1038.41	448.2	8981.63
1038.51	448.1	9050.66
1038.61	448	9022.75
1038.71	447.9	8962.65
1038.81	447.8	9078.02
1038.91	447.7	8976.69
1039.01	447.6	9035.23
1039.11	447.5	9001.77
1039.21	447.4	8974.3
1039.31	447.3	8926.44
1039.41	447.2	9096.59
1039.51	447.1	8982.64
1039.61	447	9119.74
1039.71	446.9	9066.65
1039.81	446.8	8879.57
1039.91	446.7	8914.06
1040.01	446.6	8995.45
1040.11	446.5	9102.1
1040.21	446.4	9081.71
1040.31	446.3	8967.44
1040.41	446.2	8903.3
1040.51	446.1	8996.01
1040.61	446	8919.69
1040.71	445.9	8898.6
1040.81	445.8	8950.2
1040.91	445.7	9018.34
1041.01	445.6	9040.32
1041.11	445.5	8959.54
1041.21	445.4	8923.15
1041.31	445.3	8991.63
1041.41	445.2	9018.02
1041.51	445.1	8900.94
1041.61	445	9086.49
1041.71	444.9	9151.48
1041.81	444.8	9051.81
1041.91	444.7	9087.35
1042.01	444.6	9085.38
1042.11	444.5	8860.54
1042.21	444.4	9035.45
1042.31	444.3	9095.59
1042.41	444.2	9033.25
1042.51	444.1	8892.56
1042.61	444	9074.2
1042.71	443.9	9094.77
1042.81	443.8	9044.87
1042.91	443.7	8895.14
1043.01	443.6	8883.64
1043.11	443.5	8984.38
1043.21	443.4	8866.69
1043.31	443.3	8965.1
1043.41	443.2	9051.52
1043.51	443.1	8981.6
1043.61	443	9177.77
1043.71	442.9	9172.15
1043.81	442.8	8918.11
1043.91	442.7	9129.77
1044.01	442.6	9144.01
1044.11	442.5	9009.56
1044.21	442.4	9067.58
1044.31	442.3	8966.09
1044.41	442.2	9055.75
1044.51	442.1	9029.34
1044.61	442	8970.66
1044.71	441.9	8948.56
1044.81	441.8	8896.38
1044.91	441.7	8966.51
1045.01	441.6	8961.67
1045.11	441.5	9152.64
1045.21	441.4	9105.17
1045.31	441.3	9058.07
1045.41	441.2	9040.94
1045.51	441.1	9139.25
1045.61	441	9154.76
1045.71	440.9	8866.41
1045.81	440.8	9145.39
1045.91	440.7	9011.38
1046.01	440.6	9032.5
1046.11	440.5	9069.07
1046.21	440.4	9063.76
1046.31	440.3	9049.6
1046.41	440.2	9050.35
1046.51	440.1	9079.87
1046.61	440	9006.12
1046.71	439.9	8974
1046.81	439.8	8927.36
1046.91	439.7	9048.41
1047.01	439.6	8978.09
1047.11	439.5	9060.01
1047.21	439.4	9004.02
1047.31	439.3	8894.45
1047.41	439.2	9013.72
1047.51	439.1	9012.25
1047.61	439	9022.5
1047.71	438.9	9117.31
1047.81	438.8	8969.38
1047.91	438.7	9010.11
1048.01	438.6	9088.64
1048.11	438.5	8976.06
1048.21	438.4	9055.81
1048.31	438.3	8927.22
1048.41	438.2	8979.61
1048.51	438.1	9017.79
1048.61	438	9098.49
1048.71	437.9	8896.85
1048.81	437.8	8916.46
1048.91	437.7	9172.98
1049.01	437.6	9114.99
1049.11	437.5	9065.72
1049.21	437.4	9168.92
1049.31	437.3	9160.81
1049.41	437.2	9100.69
1049.51	437.1	9057.73
1049.61	437	8973.1
1049.71	436.9	8996.85
1049.81	436.8	9161.64
1049.91	436.7	8855.16
1050.01	436.6	8950.26
1050.11	436.5	8991.51
1050.21	436.4	8985.26
1050.31	436.3	9181.49
1050.41	436.2	8939.66
1050.51	436.1	8989.84
1050.61	436	9011.2
1050.71	435.9	9080.92
1050.81	435.8	9046.94
1050.91	435.7	8943.29
1051.01	435.6	9004.57
1051.11	435.5	9074.9
1051.21	435.4	9075.55
1051.31	435.3	8904.02
1051.41	435.2	8963.49
1051.51	435.1	9048.79
1051.61	435	8999.4
1051.71	434.9	9159.11
1051.81	434.8	8997
1051.91	434.7	9002.37
1052.01	434.6	9167.19
1052.11	434.5	9156.94
1052.21	434.4	9204.09
1052.31	434.3	9022.07
1052.41	434.2	9129.1
1052.51	434.1	9098.06
1052.61	434	9243.51
1052.71	433.9	9092.2
1052.81	433.8	9015.8
1052.91	433.7	8972.58
1053.01	433.6	9087.4
1053.11	433.5	9216.35
1053.21	433.4	9083.69
1053.31	433.3	9161.95
1053.41	433.2	9087.07
1053.51	433.1	9223.67
1053.61	433	9170.79
1053.71	432.9	8992.27
1053.81	432.8	9090.46
1053.91	432.7	8887.91
1054.01	432.6	8990.32
1054.11	432.5	9097.75
1054.21	432.4	9135.24
1054.31	432.3	9001.02
1054.41	432.2	9000.24
1054.51	432.1	8947.2
1054.61	432	9002.04
1054.71	431.9	9054.44
1054.81	431.8	9066.7
1054.91	431.7	8860.19
1055.01	431.6	9139.25
1055.11	431.5	9056.5
1055.21	431.4	9050.13
1055.31	431.3	9107.24
1055.41	431.2	9110.24
1055.51	431.1	9075.8
1055.61	431	8990.38
1055.71	430.9	8992.16
1055.81	430.8	8985.75
1055.91	430.7	9081.64
1056.01	430.6	9189.45
1056.11	430.5	9131.17
1056.21	430.4	9108.9
1056.31	430.3	9058.51
1056.41	430.2	9190.34
1056.51	430.1	9151.94
1056.61	430	9122.73
1056.71	429.9	9122.41
1056.81	429.8	9179.7
1056.91	429.7	9074.41
1057.01	429.6	9126.69
1057.11	429.5	9216.14
1057.21	429.4	9307.85
1057.31	429.3	9127.49
1057.41	429.2	9192.75
1057.51	429.1	9128.11
1057.61	429	9102.56
1057.71	428.9	9064.13
1057.81	428.8	9010.06
1057.91	428.7	9146.45
1058.01	428.6	8968.41
1058.11	428.5	9012.8
1058.21	428.4	9175.92
1058.31	428.3	9223.15
1058.41	428.2	9004.13
1058.51	428.1	9244.3
1058.61	428	9115.79
1058.71	427.9	9005.7
1058.81	427.8	9152.77
1058.91	427.7	9100.96
1059.01	427.6	8955.69
1059.11	427.5	9033.41
1059.21	427.4	9187.07
1059.31	427.3	9124.11
1059.41	427.2	9061
1059.51	427.1	9190.52
1059.61	427	9128.34
1059.71	426.9	9252.31
1059.81	426.8	9119.99
1059.91	426.7	9114.07
1060.01	426.6	9150.44
1060.11	426.5	9281.3
1060.21	426.4	9244.15
1060.31	426.3	9397.94
1060.41	426.2	9322.65
1060.51	426.1	9100.86
1060.61	426	9042.16
1060.71	425.9	9104.7
1060.81	425.8	9198.46
1060.91	425.7	9228.64
1061.01	425.6	9144.5
1061.11	425.5	9142.41
1061.21	425.4	9372.1
1061.31	425.3	9245.64
1061.41	425.2	9254.26
1061.51	425.1	9109.89
1061.61	425	9195.75
1061.71	424.9	9290.09
1061.81	424.8	9289.41
1061.91	424.7	9219.42
1062.01	424.6	9204.24
1062.11	424.5	9366.9
1062.21	424.4	9097.47
1062.31	424.3	9171.22
1062.41	424.2	9273.01
1062.51	424.1	9192.92
1062.61	424	9242.31
1062.71	423.9	9214.3
1062.81	423.8	9290.15
1062.91	423.7	9424.6
1063.01	423.6	9280.46
1063.11	423.5	9188.79
1063.21	423.4	9274.55
1063.31	423.3	9222.99
1063.41	423.2	9300.91
1063.51	423.1	9165.06
1063.61	423	9265.9
1063.71	422.9	9309.5
1063.81	422.8	9295.25
1063.91	422.7	9183.54
1064.01	422.6	9225.04
1064.11	422.5	9288.6
1064.21	422.4	9319.11
1064.31	422.3	9274.11
1064.41	422.2	9309.87
1064.51	422.1	9316.34
1064.61	422	9143.92
1064.71	421.9	9119.84
1064.81	421.8	9112.7
1064.91	421.7	9226.26
1065.01	421.6	9116.97
1065.11	421.5	9276.51
1065.21	421.4	9115.52
1065.31	421.3	9285.69
1065.41	421.2	9180.54
1065.51	421.1	9231.25
1065.61	421	9129.99
1065.71	420.9	9258.84
1065.81	420.8	9264.66
1065.91	420.7	9220.38
1066.01	420.6	9114.2
1066.11	420.5	9309.27
1066.21	420.4	9315.96
1066.31	420.3	9159.47
1066.41	420.2	9109.79
1066.51	420.1	9189.61
1066.61	420	9189.63
1066.71	419.9	9334.82
1066.81	419.8	9216.24
1066.91	419.7	9153.09
1067.01	419.6	9186.34
1067.11	419.5	9342.6
1067.21	419.4	9349.75
1067.31	419.3	9200.55
1067.41	419.2	9246.82
1067.51	419.1	9063.76
1067.61	419	8982.73
1067.71	418.9	9056.41
1067.81	418.8	9076.15
1067.91	418.7	9109.82
1068.01	418.6	9198.09
1068.11	418.5	9401.27
1068.21	418.4	9290.21
1068.31	418.3	9075.97
1068.41	418.2	9208.81
1068.51	418.1	9137.42
1068.61	418	9398.34
1068.71	417.9	9259.14
1068.81	417.8	9165.76
1068.91	417.7	9291.38
1069.01	417.6	9362.74
1069.11	417.5	9181.1
1069.21	417.4	9055.27
1069.31	417.3	9320.49
1069.41	417.2	9072.71
1069.51	417.1	9186.46
1069.61	417	9026.52
1069.71	416.9	9076.17
1069.81	416.8	9140.56
1069.91	416.7	9114.42
1070.01	416.6	9231.2
1070.11	416.5	9172.1
1070.21	416.4	9114.87
1070.31	416.3	8972.58
1070.41	416.2	9230.15
1070.51	416.1	9277.96
1070.61	416	9285.04
1070.71	415.9	9289.45
1070.81	415.8	9300.52
1070.91	415.7	9335.45
1071.01	415.6	9131.41
1071.11	415.5	9125.08
1071.21	415.4	9295.49
1071.31	415.3	9176.82
1071.41	415.2	9337.44
1071.51	415.1	9281.29
1071.61	415	9285.86
1071.71	414.9	9290.94
1071.81	414.8	9240.48
1071.91	414.7	9303.19
1072.01	414.6	9270.89
1072.11	414.5	9317.32
1072.21	414.4	9274.79
1072.31	414.3	9216.91
1072.41	414.2	9252.52
1072.51	414.1	9321.6
1072.61	414	9322
1072.71	413.9	9317.2
1072.81	413.8	9269.79
1072.91	413.7	9270.49
1073.01	413.6	9380.17
1073.11	413.5	9424.57
1073.21	413.4	9404.56
1073.31	413.3	9299.1
1073.41	413.2	9266
1073.51	413.1	9307.29
1073.61	413	9455.64
1073.71	412.9	9304.71
1073.81	412.8	9330.4
1073.91	412.7	9314.92
1074.01	412.6	9202.51
1074.11	412.5	9427.59
1074.21	412.4	9347.52
1074.31	412.3	9249.45
1074.41	412.2	9341.56
1074.51	412.1	9239.61
1074.61	412	9279.61
1074.71	411.9	9421.49
1074.81	411.8	9234.5
1074.91	411.7	9273.89
1075.01	411.6	9354.2
1075.11	411.5	9348.99
1075.21	411.4	9415.95
1075.31	411.3	9353.26
1075.41	411.2	9503.34
1075.51	411.1	9462.59
1075.61	411	9420.26
1075.71	410.9	9466.73
1075.81	410.8	9397.54
1075.91	410.7	9404.66
1076.01	410.6	9330.52
1076.11	410.5	9505.46
1076.21	410.4	9448.85
1076.31	410.3	9359.4
1076.41	410.2	9503.05
1076.51	410.1	9490.34
1076.61	410	9443.04
1076.71	409.9	9390.38
1076.81	409.8	9432.66
1076.91	409.7	9441.39
1077.01	409.6	9437.9
1077.11	409.5	9604.41
1077.21	409.4	9699.06
1077.31	409.3	9484.96
1077.41	409.2	9650.63
1077.51	409.1	9510.92
1077.61	409	9564.92
1077.71	408.9	9647.32
1077.81	408.8	9470.54
1077.91	408.7	9575.92
1078.01	408.6	9535.63
1078.11	408.5	9572.07
1078.21	408.4	9556.44
1078.31	408.3	9647.82
1078.41	408.2	9549.66
1078.51	408.1	9443.21
1078.61	408	9601.79
1078.71	407.9	9592.4
1078.81	407.8	9515.66
1078.91	407.7	9536.59
1079.01	407.6	9560.3
1079.11	407.5	9815.95
1079.21	407.4	9637.34
1079.31	407.3	9725.65
1079.41	407.2	9534.24
1079.51	407.1	9485.4
1079.61	407	9486.38
1079.71	406.9	9571.3
1079.81	406.8	9705.61
1079.91	406.7	9855.36
1080.01	406.6	9740.72
1080.11	406.5	9769.49
1080.21	406.4	9704.01
1080.31	406.3	9731.01
1080.41	406.2	9725.45
1080.51	406.1	9711.86
1080.61	406	9864.42
1080.71	405.9	9816.3
1080.81	405.8	9686.39
1080.91	405.7	9610.59
1081.01	405.6	9744.59
1081.11	405.5	9752.32
1081.21	405.4	9818.69
1081.31	405.3	9758.24
1081.41	405.2	9749.79
1081.51	405.1	9939.35
1081.61	405	9830.59
1081.71	404.9	9827.94
1081.81	404.8	9863.66
1081.91	404.7	9794.15
1082.01	404.6	9911.51
1082.11	404.5	9915.7
1082.21	404.4	10037.6
1082.31	404.3	9801.26
1082.41	404.2	9839.75
1082.51	404.1	9799.09
1082.61	404	9779.96
1082.71	403.9	10021.5
1082.81	403.8	10117
1082.91	403.7	10069.2
1083.01	403.6	9912.73
1083.11	403.5	10010.4
1083.21	403.4	10050.2
1083.31	403.3	9918.21
1083.41	403.2	9835.26
1083.51	403.1	9770.14
1083.61	403	9961.16
1083.71	402.9	9898.45
1083.81	402.8	10086.2
1083.91	402.7	9833.29
1084.01	402.6	9865.8
1084.11	402.5	9828.9
1084.21	402.4	9692.98
1084.31	402.3	9883.84
1084.41	402.2	10135.8
1084.51	402.1	10176.5
1084.61	402	9957.49
1084.71	401.9	9892.5
1084.81	401.8	10157.7
1084.91	401.7	10132.5
1085.01	401.6	10240.3
1085.11	401.5	10102.7
1085.21	401.4	10183.9
1085.31	401.3	10265.6
1085.41	401.2	10210.4
1085.51	401.1	10223.2
1085.61	401	10255.1
1085.71	400.9	10165.3
1085.81	400.8	10239.5
1085.91	400.7	10377.2
1086.01	400.6	10468.1
1086.11	400.5	10495.7
1086.21	400.4	10446.1
1086.31	400.3	10434.2
1086.41	400.2	10445.1
1086.51	400.1	10483.1
1086.61	400	10313.8
1086.71	399.9	10433.4
1086.81	399.8	10430.4
1086.91	399.7	10412.3
1087.01	399.6	10331.8
1087.11	399.5	10342.3
1087.21	399.4	10579.3
1087.31	399.3	10581.7
1087.41	399.2	10387.2
1087.51	399.1	10663.5
1087.61	399	10528.7
1087.71	398.9	10408.6
1087.81	398.8	10500.5
1087.91	398.7	10490.4
1088.01	398.6	10515.3
1088.11	398.5	10370.9
1088.21	398.4	10371.2
1088.31	398.3	10501.6
1088.41	398.2	10477.7
1088.51	398.1	10608
1088.61	398	10403.6
1088.71	397.9	10536
1088.81	397.8	10726.7
1088.91	397.7	10519.3
1089.01	397.6	10451.4
1089.11	397.5	10406.7
1089.21	397.4	10512.7
1089.31	397.3	10466.7
1089.41	397.2	10271.9
1089.51	397.1	10272.5
1089.61	397	10269.9
1089.71	396.9	10240.5
1089.81	396.8	10360.3
1089.91	396.7	10325.6
1090.01	396.6	10198.7
1090.11	396.5	10445.5
1090.21	396.4	10442.1
1090.31	396.3	10621.2
1090.41	396.2	10520.4
1090.51	396.1	10544.1
1090.61	396	10540.5
1090.71	395.9	10472.4
1090.81	395.8	10577.2
1090.91	395.7	10504.5
1091.01	395.6	10598.1
1091.11	395.5	10540.7
1091.21	395.4	10645.1
1091.31	395.3	10634.4
1091.41	395.2	10637.3
1091.51	395.1	10577.9
1091.61	395	10828.9
1091.71	394.9	10725.9
1091.81	394.8	10756.7
1091.91	394.7	10885.7
1092.01	394.6	10874.3
1092.11	394.5	10947.8
1092.21	394.4	10906.3
1092.31	394.3	10907.4
1092.41	394.2	10931.3
1092.51	394.1	10812.5
1092.61	394	10963.5
1092.71	393.9	10957.7
1092.81	393.8	11087.9
1092.91	393.7	11141.3
1093.01	393.6	10998.3
1093.11	393.5	10940.7
1093.21	393.4	11033.3
1093.31	393.3	10906.3
1093.41	393.2	11106.8
1093.51	393.1	10955.5
1093.61	393	11011.3
1093.71	392.9	10911.3
1093.81	392.8	10994
1093.91	392.7	10951.7
1094.01	392.6	10974.1
1094.11	392.5	11180.6
1094.21	392.4	10936.6
1094.31	392.3	10938.1
1094.41	392.2	10933.9
1094.51	392.1	11002.3
1094.61	392	10862.9
1094.71	391.9	10815.1
1094.81	391.8	10605.4
1094.91	391.7	10871.7
1095.01	391.6	10876
1095.11	391.5	10884.8
1095.21	391.4	10867.2
1095.31	391.3	10780.6
1095.41	391.2	10705.1
1095.51	391.1	10781.9
1095.61	391	10710.2
1095.71	390.9	10774.8
1095.81	390.8	10806.2
1095.91	390.7	10726.6
1096.01	390.6	10525.9
1096.11	390.5	10679.8
1096.21	390.4	10725.1
1096.31	390.3	10669.4
1096.41	390.2	10605.7
1096.51	390.1	10546.9
1096.61	390	10723.4
1096.71	389.9	10810.6
1096.81	389.8	10617.5
1096.91	389.7	10504.7
1097.01	389.6	10608.1
1097.11	389.5	10499.1
1097.21	389.4	10474.9
1097.31	389.3	10598.4
1097.41	389.2	10537.9
1097.51	389.1	10431.3
1097.61	389	10374
1097.71	388.9	10553.6
1097.81	388.8	10731.1
1097.91	388.7	10591.6
1098.01	388.6	10594.2
1098.11	388.5	10539
1098.21	388.4	10478.1
1098.31	388.3	10454.7
1098.41	388.2	10591.9
1098.51	388.1	10865
1098.61	388	10768.2
1098.71	387.9	10585
1098.81	387.8	10614
1098.91	387.7	10591.6
1099.01	387.6	10519.3
1099.11	387.5	10677.4
1099.21	387.4	10673
1099.31	387.3	10598.1
1099.41	387.2	10656
1099.51	387.1	10771.4
1099.61	387	10829.9
1099.71	386.9	10772.5
1099.81	386.8	10722.2
1099.91	386.7	10656.1
1100.01	386.6	10663.2
1100.11	386.5	10656.6
1100.21	386.4	10628.4
1100.31	386.3	10680
1100.41	386.2	10639.7
1100.51	386.1	10606.7
1100.61	386	10539.1
1100.71	385.9	10581.3
1100.81	385.8	10501.7
1100.91	385.7	10479.9
1101.01	385.6	10548
1101.11	385.5	10551.1
1101.21	385.4	10293.4
1101.31	385.3	10459.3
1101.41	385.2	10534.4
1101.51	385.1	10450.5
1101.61	385	10447.8
1101.71	384.9	10395.3
1101.81	384.8	10413.9
1101.91	384.7	10393.8
1102.01	384.6	10400.2
1102.11	384.5	10497.8
1102.21	384.4	10536.9
1102.31	384.3	10466.3
1102.41	384.2	10535.9
1102.51	384.1	10634.4
1102.61	384	10519.3
1102.71	383.9	10345.8
1102.81	383.8	10508.8
1102.91	383.7	10526.8
1103.01	383.6	10495
1103.11	383.5	10461.1
1103.21	383.4	10524.2
1103.31	383.3	10694.8
1103.41	383.2	10736.5
1103.51	383.1	10629.8
1103.61	383	10813.5
1103.71	382.9	10864.7
1103.81	382.8	10903.4
1103.91	382.7	10885.6
1104.01	382.6	10930.4
1104.11	382.5	11079.4
1104.21	382.4	10917.3
1104.31	382.3	10894.2
1104.41	382.2	10864.4
1104.51	382.1	10975.1
1104.61	382	10939.7
1104.71	381.9	10899.8
1104.81	381.8	10799.5
1104.91	381.7	10765.5
1105.01	381.6	10691.1
1105.11	381.5	10985.4
1105.21	381.4	10637.5
1105.31	381.3	10539.2
1105.41	381.2	10610.4
1105.51	381.1	10469.7
1105.61	381	10510.6
1105.71	380.9	10618.2
1105.81	380.8	10556.9
1105.91	380.7	10472.1
1106.01	380.6	10434.5
1106.11	380.5	10207.8
1106.21	380.4	10256.8
1106.31	380.3	10290.5
1106.41	380.2	10287.7
1106.51	380.1	10339.1
1106.61	380	10191.3
1106.71	379.9	10096.1
1106.81	379.8	10277.3
1106.91	379.7	10306.8
1107.01	379.6	10380.5
1107.11	379.5	10221.2
1107.21	379.4	10290.6
1107.31	379.3	10444
1107.41	379.2	10595.6
1107.51	379.1	10646.4
1107.61	379	10618.2
1107.71	378.9	10773
1107.81	378.8	10849.5
1107.91	378.7	11061.1
1108.01	378.6	11397.5
1108.11	378.5	11414.6
1108.21	378.4	11845.2
1108.31	378.3	12179.7
1108.41	378.2	12360.1
1108.51	378.1	12482.9
1108.61	378	12534.7
1108.71	377.9	12170.4
1108.81	377.8	11818.2
1108.91	377.7	11117.8
1109.01	377.6	10851.5
1109.11	377.5	10692.4
1109.21	377.4	10473.7
1109.31	377.3	10591.8
1109.41	377.2	10627.1
1109.51	377.1	10840.6
1109.61	377	10955.2
1109.71	376.9	10916.3
1109.81	376.8	11118.9
1109.91	376.7	11195.6
1110.01	376.6	11305.4
1110.11	376.5	11457.6
1110.21	376.4	11802.1
1110.31	376.3	12299.3
1110.41	376.2	12418.2
1110.51	376.1	12899.9
1110.61	376	13232.6
1110.71	375.9	13719
1110.81	375.8	14375
1110.91	375.7	15175.3
1111.01	375.6	16048.1
1111.11	375.5	17126.6
1111.21	375.4	19353.1
1111.31	375.3	21824.3
1111.41	375.2	24951.6
1111.51	375.1	29635.4
1111.61	375	35186.4
1111.71	374.9	42552.6
1111.81	374.8	52518.2
1111.91	374.7	65094.3
1112.01	374.6	79238.6
1112.11	374.5	94574.1
1112.21	374.4	108972
1112.31	374.3	116288
1112.41	374.2	112012
1112.51	374.1	95186
1112.61	374	72107
1112.71	373.9	49516.9
1112.81	373.8	33893.4
1112.91	373.7	24082.5
1113.01	373.6	18272.8
1113.11	373.5	15139.1
1113.21	373.4	13047.4
1113.31	373.3	11802.8
1113.41	373.2	10960.8
1113.51	373.1	10318.8
1113.61	373	9935.77
1113.71	372.9	9854.6
1113.81	372.8	9742.35
1113.91	372.7	9732.51
1114.01	372.6	9930.45
1114.11	372.5	10182.5
1114.21	372.4	10493.3
1114.31	372.3	10557.6
1114.41	372.2	10709.5
1114.51	372.1	10897.1
1114.61	372	10678
1114.71	371.9	9981.52
1114.81	371.8	9451.89
1114.91	371.7	8667.61
1115.01	371.6	8059.35
1115.11	371.5	7638.96
1115.21	371.4	7206.01
1115.31	371.3	6866.2
1115.41	371.2	6920.89
1115.51	371.1	6851.75
1115.61	371	6807.89
1115.71	370.9	6992.09
1115.81	370.8	7123.15
1115.91	370.7	7361.77
1116.01	370.6	7655.27
1116.11	370.5	7844.81
1116.21	370.4	8221.51
1116.31	370.3	8531.65
1116.41	370.2	8903.15
1116.51	370.1	9479.79
1116.61	370	10190.5
1116.71	369.9	10917.8
1116.81	369.8	11811.1
1116.91	369.7	12869.2
1117.01	369.6	14544.2
1117.11	369.5	16529
1117.21	369.4	19144
1117.31	369.3	22865.1
1117.41	369.2	27944
1117.51	369.1	34395.5
1117.61	369	42754
1117.71	368.9	53946.8
1117.81	368.8	68069.5
1117.91	368.7	85665.8
1118.01	368.6	106591
1118.11	368.5	128801
1118.21	368.4	148345
1118.31	368.3	159046
1118.41	368.2	152864
1118.51	368.1	130009
1118.61	368	97461
1118.71	367.9	64550
1118.81	367.8	41363.4
1118.91	367.7	27078.4
1119.01	367.6	19165.1
1119.11	367.5	13907.8
1119.21	367.4	10781
1119.31	367.3	8862.11
1119.41	367.2	7389.86
1119.51	367.1	6474.47
1119.61	367	5601.41
1119.71	366.9	5034.45
1119.81	366.8	4572.02
1119.91	366.7	4218.3
1120.01	366.6	3878.71
1120.11	366.5	3579.88
1120.21	366.4	3472.51
1120.31	366.3	3302.99
1120.41	366.2	3144.88
1120.51	366.1	2972.8
1120.61	366	2816.26
1120.71	365.9	2713.56
1120.81	365.8	2611.11
1120.91	365.7	2494.9
1121.01	365.6	2462.8
1121.11	365.5	2300.65
1121.21	365.4	2276.57
1121.31	365.3	2234.29
1121.41	365.2	2188.27
1121.51	365.1	2136.85
1121.61	365	2077.52
1121.71	364.9	2064.14
1121.81	364.8	1979.49
1121.91	364.7	1933.38
1122.01	364.6	1910.3
1122.11	364.5	1978.57
1122.21	364.4	1934.3
1122.31	364.3	1879.65
1122.41	364.2	1785.77
1122.51	364.1	1698.55
1122.61	364	1749.31
1122.71	363.9	1744.23
1122.81	363.8	1724.02
1122.91	363.7	1714.47
1123.01	363.6	1687.35
1123.11	363.5	1631.41
1123.21	363.4	1631.06
1123.31	363.3	1598.6
1123.41	363.2	1672.86
1123.51	363.1	1667.68
1123.61	363	1628.33
1123.71	362.9	1632.76
1123.81	362.8	1604.59
1123.91	362.7	1597.65
1124.01	362.6	1606
1124.11	362.5	1610.59
1124.21	362.4	1539.33
1124.31	362.3	1541.22
1124.41	362.2	1550.66
1124.51	362.1	1490.71
1124.61	362	1498.15
1124.71	361.9	1480.41
1124.81	361.8	1472.99
1124.91	361.7	1464.21
1125.01	361.6	1445.51
1125.11	361.5	1455.55
1125.21	361.4	1448.82
1125.31	361.3	1475.56
1125.41	361.2	1458.16
1125.51	361.1	1495.94
1125.61	361	1459.16
1125.71	360.9	1471.41
1125.81	360.8	1492.19
1125.91	360.7	1467.71
1126.01	360.6	1461.97
1126.11	360.5	1458.1
1126.21	360.4	1463.75
1126.31	360.3	1376.49
1126.41	360.2	1376.99
1126.51	360.1	1415.01
1126.61	360	1458.2
1126.71	359.9	1448.75
1126.81	359.8	1446.99
1126.91	359.7	1448.03
1127.01	359.6	1352.4
1127.11	359.5	1398.21
1127.21	359.4	1419.43
1127.31	359.3	1388.19
1127.41	359.2	1450.86
1127.51	359.1	1459.45
1127.61	359	1401.06
1127.71	358.9	1341.8
1127.81	358.8	1396.89
1127.91	358.7	1467.56
1128.01	358.6	1446.74
1128.11	358.5	1421.14
1128.21	358.4	1430.12
1128.31	358.3	1334.84
1128.41	358.2	1371
1128.51	358.1	1356.21
1128.61	358	1311.6
1128.71	357.9	1378.75
1128.81	357.8	1371.47
1128.91	357.7	1439.31
1129.01	357.6	1365.09
1129.11	357.5	1374.99
1129.21	357.4	1423.06
1129.31	357.3	1451.74
1129.41	357.2	1379.3
1129.51	357.1	1375.89
1129.61	357	1375.48
1129.71	356.9	1410.63
1129.81	356.8	1396.19
1129.91	356.7	1474.4
1130.01	356.6	1470.27
1130.11	356.5	1381.54
1130.21	356.4	1431.11
1130.31	356.3	1372.38
1130.41	356.2	1353.69
1130.51	356.1	1418.93
1130.61	356	1363.24
1130.71	355.9	1361.89
1130.81	355.8	1400.74
1130.91	355.7	1352.82
1131.01	355.6	1338.11
1131.11	355.5	1352.54
1131.21	355.4	1349.4
1131.31	355.3	1362.31
1131.41	355.2	1360.39
1131.51	355.1	1414.64
1131.61	355	1358.79
1131.71	354.9	1344.7
1131.81	354.8	1362.5
1131.91	354.7	1430.59
1132.01	354.6	1359.43
1132.11	354.5	1371.79
1132.21	354.4	1358.77
1132.31	354.3	1388.85
1132.41	354.2	1327.26
1132.51	354.1	1323.03
1132.61	354	1326.85
1132.71	353.9	1366.18
1132.81	353.8	1359.29
1132.91	353.7	1414.61
1133.01	353.6	1359.55
1133.11	353.5	1377.11
1133.21	353.4	1356.09
1133.31	353.3	1331.1
1133.41	353.2	1382.95
1133.51	353.1	1365.86
1133.61	353	1382.14
1133.71	352.9	1382.96
1133.81	352.8	1319.65
1133.91	352.7	1343.76
1134.01	352.6	1364.4
1134.11	352.5	1347.16
1134.21	352.4	1302.94
1134.31	352.3	1343.59
1134.41	352.2	1350.8
1134.51	352.1	1300.97
1134.61	352	1352.5
1134.71	351.9	1365.81
1134.81	351.8	1328.19
1134.91	351.7	1382.81
1135.01	351.6	1376.31
1135.11	351.5	1328.75
1135.21	351.4	1337.85
1135.31	351.3	1393.34
1135.41	351.2	1359.33
1135.51	351.1	1310.58
1135.61	351	1361.76
1135.71	350.9	1276.64
1135.81	350.8	1330.48
1135.91	350.7	1369.49
1136.01	350.6	1353
1136.11	350.5	1370.97
1136.21	350.4	1307.25
1136.31	350.3	1370.04
1136.41	350.2	1369.09
1136.51	350.1	1371.99
1136.61	350	1342.46