c:\users\mark\owncloud\muelheim group\projects\gas phase background\ex340_cec356_ag he largearea.vms
Pr:Ag3p
	Characteristic Energy eV	1486.61	Acquisition Time s	0.7
KE_Pr:Ag3p	BE_Pr:Ag3p	CPS_Pr:Ag3p
686.61	800	3731.69
686.71	799.9	3779.39
686.81	799.8	3756.63
686.91	799.7	3771.28
687.01	799.6	3672.67
687.11	799.5	3712.59
687.21	799.4	3867.06
687.31	799.3	3693.35
687.41	799.2	3701.5
687.51	799.1	3595.38
687.61	799	3738.55
687.71	798.9	3626.87
687.81	798.8	3763.18
687.91	798.7	3786.63
688.01	798.6	3710.01
688.11	798.5	3835.03
688.21	798.4	3864.62
688.31	798.3	3788.9
688.41	798.2	3675.99
688.51	798.1	3838.31
688.61	798	3646.69
688.71	797.9	3686.08
688.81	797.8	3735.68
688.91	797.7	3669.64
689.01	797.6	3704.37
689.11	797.5	3775.08
689.21	797.4	3706.62
689.31	797.3	3718.95
689.41	797.2	3761.03
689.51	797.1	3703.08
689.61	797	3798.57
689.71	796.9	3716.35
689.81	796.8	3886.73
689.91	796.7	3903.11
690.01	796.6	3731.57
690.11	796.5	3768.02
690.21	796.4	3720.35
690.31	796.3	3905.5
690.41	796.2	3716.95
690.51	796.1	3928.02
690.61	796	3775.98
690.71	795.9	3685.64
690.81	795.8	3488.99
690.91	795.7	3751.24
691.01	795.6	3800.06
691.11	795.5	3653.03
691.21	795.4	3782.22
691.31	795.3	3896.32
691.41	795.2	3925.46
691.51	795.1	3818.37
691.61	795	3778.86
691.71	794.9	3919.01
691.81	794.8	3774
691.91	794.7	3889.06
692.01	794.6	3846.7
692.11	794.5	3766.26
692.21	794.4	3692.32
692.31	794.3	3756.9
692.41	794.2	3810.19
692.51	794.1	3744.23
692.61	794	3766.52
692.71	793.9	3803.2
692.81	793.8	3651.16
692.91	793.7	3810.14
693.01	793.6	3727.76
693.11	793.5	3719.87
693.21	793.4	3665.17
693.31	793.3	3706.11
693.41	793.2	3674.59
693.51	793.1	3763.02
693.61	793	3911.31
693.71	792.9	3756.23
693.81	792.8	3763.14
693.91	792.7	3687.77
694.01	792.6	3704.48
694.11	792.5	3774.64
694.21	792.4	3843.25
694.31	792.3	3897.16
694.41	792.2	3986.09
694.51	792.1	3791.25
694.61	792	3764
694.71	791.9	3752.92
694.81	791.8	3731.56
694.91	791.7	3839.15
695.01	791.6	3831.28
695.11	791.5	3739.49
695.21	791.4	3901
695.31	791.3	3932.49
695.41	791.2	3705.59
695.51	791.1	3812.56
695.61	791	3843.43
695.71	790.9	3570.88
695.81	790.8	3570.07
695.91	790.7	3812.58
696.01	790.6	3806.3
696.11	790.5	3804.36
696.21	790.4	3701.03
696.31	790.3	3593.22
696.41	790.2	3752.88
696.51	790.1	3842.99
696.61	790	3673.66
696.71	789.9	3847.04
696.81	789.8	3907.46
696.91	789.7	3929.84
697.01	789.6	3812.36
697.11	789.5	3689.29
697.21	789.4	3744.66
697.31	789.3	3772.66
697.41	789.2	3733.22
697.51	789.1	3811.34
697.61	789	3724.09
697.71	788.9	3847.91
697.81	788.8	3866.88
697.91	788.7	3854.62
698.01	788.6	4026.53
698.11	788.5	3844.02
698.21	788.4	3883.58
698.31	788.3	3941.75
698.41	788.2	3927.69
698.51	788.1	3797.47
698.61	788	3846.25
698.71	787.9	3847.64
698.81	787.8	3812.04
698.91	787.7	3805.44
699.01	787.6	3995.67
699.11	787.5	3716.8
699.21	787.4	3733.72
699.31	787.3	3725.04
699.41	787.2	3808.48
699.51	787.1	3905
699.61	787	3801.86
699.71	786.9	3814.09
699.81	786.8	3824.8
699.91	786.7	3771.17
700.01	786.6	3559.14
700.11	786.5	3719.44
700.21	786.4	3914.15
700.31	786.3	4002.26
700.41	786.2	4048.11
700.51	786.1	3908.43
700.61	786	3824.57
700.71	785.9	3662.46
700.81	785.8	3923.63
700.91	785.7	3895.08
701.01	785.6	3824.67
701.11	785.5	3866.2
701.21	785.4	3724.79
701.31	785.3	3685.51
701.41	785.2	3919.6
701.51	785.1	3989.14
701.61	785	3747.11
701.71	784.9	3742.98
701.81	784.8	3820.22
701.91	784.7	3951.81
702.01	784.6	3822.72
702.11	784.5	3756.45
702.21	784.4	3775.68
702.31	784.3	3767.09
702.41	784.2	3841.46
702.51	784.1	3913.7
702.61	784	3774.3
702.71	783.9	3661.38
702.81	783.8	3642.28
702.91	783.7	3891.72
703.01	783.6	3863.33
703.11	783.5	3921.61
703.21	783.4	3825.44
703.31	783.3	3747.76
703.41	783.2	3797.59
703.51	783.1	3766.07
703.61	783	3869.39
703.71	782.9	3884.62
703.81	782.8	3881.55
703.91	782.7	3888.16
704.01	782.6	3947.52
704.11	782.5	3933.65
704.21	782.4	3800.98
704.31	782.3	3697
704.41	782.2	3958.49
704.51	782.1	3917.18
704.61	782	3900.9
704.71	781.9	3980.39
704.81	781.8	3793.89
704.91	781.7	3784.88
705.01	781.6	3890.06
705.11	781.5	3857.29
705.21	781.4	3919.15
705.31	781.3	3822.8
705.41	781.2	3872.92
705.51	781.1	3965
705.61	781	3905.35
705.71	780.9	4006.83
705.81	780.8	3958.13
705.91	780.7	3688.22
706.01	780.6	3757.84
706.11	780.5	3992.6
706.21	780.4	3917.01
706.31	780.3	3957.29
706.41	780.2	3816.79
706.51	780.1	3682.82
706.61	780	3662.1
706.71	779.9	3803.86
706.81	779.8	3973.36
706.91	779.7	3871.69
707.01	779.6	3781.04
707.11	779.5	3925.03
707.21	779.4	3856.39
707.31	779.3	3988.81
707.41	779.2	3900.77
707.51	779.1	3793.93
707.61	779	3810.54
707.71	778.9	3908.53
707.81	778.8	3963.06
707.91	778.7	3810.71
708.01	778.6	3814.97
708.11	778.5	3939.44
708.21	778.4	3958.86
708.31	778.3	4125.68
708.41	778.2	4021.68
708.51	778.1	3913.61
708.61	778	3799.34
708.71	777.9	3892.1
708.81	777.8	4045.98
708.91	777.7	3856.44
709.01	777.6	3810.91
709.11	777.5	3911.98
709.21	777.4	3992.36
709.31	777.3	3931.93
709.41	777.2	3833.69
709.51	777.1	3743.99
709.61	777	3741.47
709.71	776.9	3692.45
709.81	776.8	3745.67
709.91	776.7	4016.31
710.01	776.6	3946.34
710.11	776.5	4069.02
710.21	776.4	3961.22
710.31	776.3	3981.18
710.41	776.2	3720.85
710.51	776.1	3916.1
710.61	776	4009.41
710.71	775.9	3931.11
710.81	775.8	3865.44
710.91	775.7	3762.99
711.01	775.6	3719.23
711.11	775.5	3739.84
711.21	775.4	3887.97
711.31	775.3	3798.18
711.41	775.2	3882.54
711.51	775.1	3973.04
711.61	775	3925.23
711.71	774.9	3735.34
711.81	774.8	3857.82
711.91	774.7	3806.49
712.01	774.6	3808
712.11	774.5	3914.26
712.21	774.4	3861.75
712.31	774.3	3986.95
712.41	774.2	3845.92
712.51	774.1	3983.17
712.61	774	3890.48
712.71	773.9	3757.21
712.81	773.8	3902.75
712.91	773.7	3919.3
713.01	773.6	3922.87
713.11	773.5	4086.26
713.21	773.4	3896.53
713.31	773.3	3882.53
713.41	773.2	3960.16
713.51	773.1	3761.7
713.61	773	3884.1
713.71	772.9	4123.42
713.81	772.8	4048.05
713.91	772.7	3797.62
714.01	772.6	3768.42
714.11	772.5	3957.6
714.21	772.4	3972.18
714.31	772.3	3862.7
714.41	772.2	3963
714.51	772.1	3889.46
714.61	772	3958.52
714.71	771.9	4118.33
714.81	771.8	3947.82
714.91	771.7	3903.89
715.01	771.6	3869.82
715.11	771.5	3862.97
715.21	771.4	3965.79
715.31	771.3	4054.73
715.41	771.2	4109.03
715.51	771.1	3948.94
715.61	771	3900.83
715.71	770.9	4024.34
715.81	770.8	3952.37
715.91	770.7	3883.9
716.01	770.6	3860.98
716.11	770.5	3992.8
716.21	770.4	4027.94
716.31	770.3	4003.22
716.41	770.2	3795.37
716.51	770.1	3986.08
716.61	770	4005.66
716.71	769.9	4011.02
716.81	769.8	4095.62
716.91	769.7	4068.72
717.01	769.6	4041.25
717.11	769.5	3780.84
717.21	769.4	3962.47
717.31	769.3	4073.77
717.41	769.2	4020.34
717.51	769.1	4171.97
717.61	769	4080.67
717.71	768.9	4103.08
717.81	768.8	3978.09
717.91	768.7	3921.27
718.01	768.6	4029.64
718.11	768.5	3916.49
718.21	768.4	3897.04
718.31	768.3	3930.58
718.41	768.2	4050.79
718.51	768.1	3835.36
718.61	768	3952.53
718.71	767.9	4020.14
718.81	767.8	3860.46
718.91	767.7	3995.01
719.01	767.6	3981.08
719.11	767.5	4028.51
719.21	767.4	3956.25
719.31	767.3	3787.6
719.41	767.2	4020.16
719.51	767.1	3898.57
719.61	767	4051.62
719.71	766.9	3937.86
719.81	766.8	3800.66
719.91	766.7	3927.86
720.01	766.6	4032.24
720.11	766.5	3962.94
720.21	766.4	3998.66
720.31	766.3	3962.36
720.41	766.2	4074.5
720.51	766.1	4066.98
720.61	766	3991.48
720.71	765.9	3799.8
720.81	765.8	4072.63
720.91	765.7	4086.77
721.01	765.6	4220.38
721.11	765.5	4070.49
721.21	765.4	3924.59
721.31	765.3	3842.21
721.41	765.2	3981.15
721.51	765.1	4016.2
721.61	765	3903.96
721.71	764.9	4104.97
721.81	764.8	4063.45
721.91	764.7	4073.99
722.01	764.6	3799.19
722.11	764.5	3981.31
722.21	764.4	4160.61
722.31	764.3	3955.09
722.41	764.2	3932.75
722.51	764.1	4238.92
722.61	764	4016.03
722.71	763.9	4090.53
722.81	763.8	4052.29
722.91	763.7	3917.4
723.01	763.6	4107.94
723.11	763.5	3924.32
723.21	763.4	3954.12
723.31	763.3	3908.28
723.41	763.2	4039.84
723.51	763.1	4001.66
723.61	763	3950
723.71	762.9	4025.94
723.81	762.8	4146.77
723.91	762.7	4076.33
724.01	762.6	4114.22
724.11	762.5	4091.01
724.21	762.4	4069.62
724.31	762.3	3951.76
724.41	762.2	4081.06
724.51	762.1	3970.56
724.61	762	3958.63
724.71	761.9	4095.94
724.81	761.8	3983.12
724.91	761.7	4114.08
725.01	761.6	4081.65
725.11	761.5	3956.67
725.21	761.4	4075.94
725.31	761.3	4013.57
725.41	761.2	4166.74
725.51	761.1	4040.7
725.61	761	3935.74
725.71	760.9	4185.82
725.81	760.8	4185.86
725.91	760.7	4062.62
726.01	760.6	4054.19
726.11	760.5	4190.52
726.21	760.4	3972.84
726.31	760.3	4088.72
726.41	760.2	3943.2
726.51	760.1	4122.64
726.61	760	4098.7
726.71	759.9	3943.28
726.81	759.8	4075.66
726.91	759.7	4131.17
727.01	759.6	4048.22
727.11	759.5	4213.2
727.21	759.4	4170.39
727.31	759.3	4061.27
727.41	759.2	4125.74
727.51	759.1	4052.25
727.61	759	4227.1
727.71	758.9	3931.99
727.81	758.8	4051.71
727.91	758.7	3975.75
728.01	758.6	3871.91
728.11	758.5	3943.98
728.21	758.4	4029.62
728.31	758.3	4046.92
728.41	758.2	4319.82
728.51	758.1	4151.64
728.61	758	4106.51
728.71	757.9	4087.38
728.81	757.8	4160.96
728.91	757.7	4153.99
729.01	757.6	4147.87
729.11	757.5	4000.56
729.21	757.4	4063.9
729.31	757.3	4172.02
729.41	757.2	4069.06
729.51	757.1	4147.23
729.61	757	4038.86
729.71	756.9	4142.11
729.81	756.8	4066.97
729.91	756.7	4165.02
730.01	756.6	4111.71
730.11	756.5	4127.03
730.21	756.4	4303.19
730.31	756.3	4222.05
730.41	756.2	4146.44
730.51	756.1	4041.29
730.61	756	4209.57
730.71	755.9	4370.91
730.81	755.8	4123.05
730.91	755.7	4124.39
731.01	755.6	4120.55
731.11	755.5	3981.3
731.21	755.4	4251.62
731.31	755.3	4188.19
731.41	755.2	4080.28
731.51	755.1	4111.07
731.61	755	4219.35
731.71	754.9	4086.35
731.81	754.8	4130.83
731.91	754.7	3974.33
732.01	754.6	4178.62
732.11	754.5	4231.82
732.21	754.4	4272.74
732.31	754.3	4079.84
732.41	754.2	4115
732.51	754.1	4318.39
732.61	754	4416.09
732.71	753.9	4160.7
732.81	753.8	4178.33
732.91	753.7	4179.75
733.01	753.6	4185.36
733.11	753.5	4178.27
733.21	753.4	4270.65
733.31	753.3	4163.04
733.41	753.2	4073
733.51	753.1	4129.53
733.61	753	4170.63
733.71	752.9	4151.78
733.81	752.8	4203.47
733.91	752.7	4329.8
734.01	752.6	4038.73
734.11	752.5	4242.57
734.21	752.4	4130.7
734.31	752.3	4173.25
734.41	752.2	4170.4
734.51	752.1	3849.21
734.61	752	4247.55
734.71	751.9	4075.79
734.81	751.8	3929.88
734.91	751.7	4074.5
735.01	751.6	4182.57
735.11	751.5	4226.67
735.21	751.4	4098.69
735.31	751.3	4011.11
735.41	751.2	4166.41
735.51	751.1	4210.83
735.61	751	3987.74
735.71	750.9	4138.74
735.81	750.8	4035.15
735.91	750.7	4190.03
736.01	750.6	4324.52
736.11	750.5	4190.56
736.21	750.4	4118.2
736.31	750.3	4193.39
736.41	750.2	4246.96
736.51	750.1	4290.07
736.61	750	4245
736.71	749.9	4132.36
736.81	749.8	4322.79
736.91	749.7	4172.76
737.01	749.6	4076.67
737.11	749.5	4084.74
737.21	749.4	4187.91
737.31	749.3	4356.38
737.41	749.2	4266.5
737.51	749.1	4148.08
737.61	749	4053.64
737.71	748.9	4026.08
737.81	748.8	4313.32
737.91	748.7	4133.82
738.01	748.6	4225.77
738.11	748.5	4033.11
738.21	748.4	4160.56
738.31	748.3	4189.94
738.41	748.2	4409.85
738.51	748.1	4391.42
738.61	748	4307.63
738.71	747.9	4318.09
738.81	747.8	4380.4
738.91	747.7	4322.17
739.01	747.6	4260.51
739.11	747.5	4182.24
739.21	747.4	4233.46
739.31	747.3	4250.17
739.41	747.2	4165.03
739.51	747.1	4160.27
739.61	747	4229.72
739.71	746.9	4270.68
739.81	746.8	4263.03
739.91	746.7	4331.35
740.01	746.6	4211.77
740.11	746.5	4314.12
740.21	746.4	4326.12
740.31	746.3	4146.87
740.41	746.2	4317.24
740.51	746.1	4217.65
740.61	746	4350.86
740.71	745.9	4312.1
740.81	745.8	4174.51
740.91	745.7	4208.77
741.01	745.6	4317.37
741.11	745.5	4203.35
741.21	745.4	4284.25
741.31	745.3	4208.33
741.41	745.2	4332.85
741.51	745.1	4299.36
741.61	745	4274.06
741.71	744.9	4280.98
741.81	744.8	4308.17
741.91	744.7	4281.73
742.01	744.6	4314.69
742.11	744.5	4202.82
742.21	744.4	4266.31
742.31	744.3	4175.78
742.41	744.2	4281.49
742.51	744.1	4264.28
742.61	744	4219.79
742.71	743.9	4328.47
742.81	743.8	4314.4
742.91	743.7	4273.53
743.01	743.6	4326.15
743.11	743.5	4501.99
743.21	743.4	4323.91
743.31	743.3	4499.43
743.41	743.2	4309.28
743.51	743.1	4397.69
743.61	743	4497.77
743.71	742.9	4370.2
743.81	742.8	4286.54
743.91	742.7	4354.73
744.01	742.6	4358.67
744.11	742.5	4363.27
744.21	742.4	4326.5
744.31	742.3	4409.26
744.41	742.2	4470.44
744.51	742.1	4215.12
744.61	742	4278.98
744.71	741.9	4359.74
744.81	741.8	4365.96
744.91	741.7	4217.71
745.01	741.6	4346.75
745.11	741.5	4676.44
745.21	741.4	4359.67
745.31	741.3	4294.15
745.41	741.2	4440.09
745.51	741.1	4303.48
745.61	741	4277.23
745.71	740.9	4345.29
745.81	740.8	4289.71
745.91	740.7	4385.76
746.01	740.6	4394.13
746.11	740.5	4318.15
746.21	740.4	4314.79
746.31	740.3	4261.45
746.41	740.2	4318.25
746.51	740.1	4199.34
746.61	740	4278.65
746.71	739.9	4274.11
746.81	739.8	4430.74
746.91	739.7	4515.42
747.01	739.6	4581.38
747.11	739.5	4317.07
747.21	739.4	4217.59
747.31	739.3	4189.19
747.41	739.2	4446.75
747.51	739.1	4559.43
747.61	739	4476.12
747.71	738.9	4420.03
747.81	738.8	4420.46
747.91	738.7	4466.53
748.01	738.6	4418.87
748.11	738.5	4162.5
748.21	738.4	4334.85
748.31	738.3	4265.71
748.41	738.2	4539.1
748.51	738.1	4413.84
748.61	738	4372.49
748.71	737.9	4386.43
748.81	737.8	4533.49
748.91	737.7	4418.09
749.01	737.6	4170.7
749.11	737.5	4215.7
749.21	737.4	4323.11
749.31	737.3	4435.44
749.41	737.2	4481.87
749.51	737.1	4423.92
749.61	737	4298.76
749.71	736.9	4494.32
749.81	736.8	4428.35
749.91	736.7	4446.68
750.01	736.6	4546.11
750.11	736.5	4651.94
750.21	736.4	4421.13
750.31	736.3	4372.67
750.41	736.2	4275.78
750.51	736.1	4353.1
750.61	736	4510.07
750.71	735.9	4546.03
750.81	735.8	4459.03
750.91	735.7	4327.31
751.01	735.6	4468.56
751.11	735.5	4396.08
751.21	735.4	4379
751.31	735.3	4373.68
751.41	735.2	4373.73
751.51	735.1	4399.48
751.61	735	4376.32
751.71	734.9	4446.44
751.81	734.8	4419.27
751.91	734.7	4513.08
752.01	734.6	4459.88
752.11	734.5	4450.36
752.21	734.4	4512.46
752.31	734.3	4416.34
752.41	734.2	4348.46
752.51	734.1	4408.46
752.61	734	4579.63
752.71	733.9	4527.05
752.81	733.8	4602.48
752.91	733.7	4640.13
753.01	733.6	4562.72
753.11	733.5	4496.77
753.21	733.4	4363.64
753.31	733.3	4474.99
753.41	733.2	4776.35
753.51	733.1	4513.77
753.61	733	4490.87
753.71	732.9	4444.17
753.81	732.8	4644.18
753.91	732.7	4447.03
754.01	732.6	4570.99
754.11	732.5	4698.75
754.21	732.4	4533.09
754.31	732.3	4415.35
754.41	732.2	4411.24
754.51	732.1	4566.55
754.61	732	4493.02
754.71	731.9	4461.57
754.81	731.8	4408.88
754.91	731.7	4476.21
755.01	731.6	4600.47
755.11	731.5	4530.43
755.21	731.4	4615.92
755.31	731.3	4618.2
755.41	731.2	4540.55
755.51	731.1	4549.69
755.61	731	4599.91
755.71	730.9	4419.14
755.81	730.8	4558.56
755.91	730.7	4404.01
756.01	730.6	4658.75
756.11	730.5	4597.64
756.21	730.4	4623.27
756.31	730.3	4582.02
756.41	730.2	4467.54
756.51	730.1	4500.72
756.61	730	4592.91
756.71	729.9	4659.99
756.81	729.8	4676
756.91	729.7	4590.32
757.01	729.6	4612.1
757.11	729.5	4655.13
757.21	729.4	4481.71
757.31	729.3	4344.56
757.41	729.2	4542.35
757.51	729.1	4628.82
757.61	729	4770.2
757.71	728.9	4613.52
757.81	728.8	4540.62
757.91	728.7	4705.59
758.01	728.6	4621.64
758.11	728.5	4529.01
758.21	728.4	4560.96
758.31	728.3	4705.45
758.41	728.2	4572.96
758.51	728.1	4759.59
758.61	728	4749.54
758.71	727.9	4732.85
758.81	727.8	4603.22
758.91	727.7	4728.33
759.01	727.6	4572.58
759.11	727.5	4848.84
759.21	727.4	4624.98
759.31	727.3	4867.77
759.41	727.2	4763.38
759.51	727.1	4731.74
759.61	727	4694.54
759.71	726.9	4927.71
759.81	726.8	4895.48
759.91	726.7	4897.01
760.01	726.6	4735.13
760.11	726.5	4814.58
760.21	726.4	4964.82
760.31	726.3	4952.91
760.41	726.2	4781.47
760.51	726.1	4986.4
760.61	726	4792.42
760.71	725.9	4675.55
760.81	725.8	4891.53
760.91	725.7	5053.4
761.01	725.6	4950.92
761.11	725.5	4907.92
761.21	725.4	4984.56
761.31	725.3	5014.74
761.41	725.2	4872.25
761.51	725.1	4942.28
761.61	725	4894.46
761.71	724.9	4955.09
761.81	724.8	5122.2
761.91	724.7	5053.09
762.01	724.6	5023.95
762.11	724.5	5019.03
762.21	724.4	5134.99
762.31	724.3	5191.66
762.41	724.2	4972.52
762.51	724.1	5265.67
762.61	724	5250.84
762.71	723.9	5422.77
762.81	723.8	5281.45
762.91	723.7	5292.35
763.01	723.6	5359.34
763.11	723.5	5340.32
763.21	723.4	5288.78
763.31	723.3	5255.16
763.41	723.2	5291.92
763.51	723.1	5285.02
763.61	723	5279.82
763.71	722.9	5335.17
763.81	722.8	5558.42
763.91	722.7	5591.09
764.01	722.6	5499.88
764.11	722.5	5463.08
764.21	722.4	5550.04
764.31	722.3	5458.28
764.41	722.2	5610.19
764.51	722.1	5711.89
764.61	722	5618.03
764.71	721.9	5571.24
764.81	721.8	5655.5
764.91	721.7	5837.62
765.01	721.6	5670.68
765.11	721.5	5512.5
765.21	721.4	5663.74
765.31	721.3	5835.1
765.41	721.2	5970.06
765.51	721.1	5973.65
765.61	721	5724.04
765.71	720.9	5730.34
765.81	720.8	5921.32
765.91	720.7	5826.36
766.01	720.6	5943.35
766.11	720.5	5822.64
766.21	720.4	5789.72
766.31	720.3	5893.37
766.41	720.2	5859.54
766.51	720.1	5904.3
766.61	720	5945.43
766.71	719.9	5996.42
766.81	719.8	6125.49
766.91	719.7	5926.14
767.01	719.6	5985.18
767.11	719.5	5913.39
767.21	719.4	6040.31
767.31	719.3	6221.14
767.41	719.2	6022.42
767.51	719.1	5845.09
767.61	719	5947.4
767.71	718.9	6060.73
767.81	718.8	6175.44
767.91	718.7	6197.15
768.01	718.6	6005.34
768.11	718.5	6037.69
768.21	718.4	5970.18
768.31	718.3	5797.95
768.41	718.2	5895.17
768.51	718.1	5906.31
768.61	718	5895.78
768.71	717.9	5864.93
768.81	717.8	5739.94
768.91	717.7	5783.29
769.01	717.6	5761.91
769.11	717.5	5841.71
769.21	717.4	5671.56
769.31	717.3	5750.55
769.41	717.2	5803.27
769.51	717.1	5761.34
769.61	717	5670.65
769.71	716.9	5785.05
769.81	716.8	5601.54
769.91	716.7	5356.01
770.01	716.6	5661.59
770.11	716.5	5480.61
770.21	716.4	5514.54
770.31	716.3	5544.56
770.41	716.2	5430.98
770.51	716.1	5411.91
770.61	716	5371.01
770.71	715.9	5125.03
770.81	715.8	5232.79
770.91	715.7	5334.38
771.01	715.6	5388.08
771.11	715.5	5275.27
771.21	715.4	5014.76
771.31	715.3	5134.58
771.41	715.2	5004.08
771.51	715.1	5085.04
771.61	715	5046.16
771.71	714.9	4966.66
771.81	714.8	4952.32
771.91	714.7	4950.65
772.01	714.6	4914.23
772.11	714.5	4827.72
772.21	714.4	4835.31
772.31	714.3	4764.51
772.41	714.2	4944.24
772.51	714.1	5065.94
772.61	714	4997.34
772.71	713.9	4772.24
772.81	713.8	4685.16
772.91	713.7	4673.01
773.01	713.6	4658.44
773.11	713.5	4786.7
773.21	713.4	4740.34
773.31	713.3	4613.56
773.41	713.2	4704.67
773.51	713.1	4690.19
773.61	713	4654.44
773.71	712.9	4581.31
773.81	712.8	4702.78
773.91	712.7	4694.07
774.01	712.6	4504.99
774.11	712.5	4478.64
774.21	712.4	4464.51
774.31	712.3	4478.1
774.41	712.2	4476.55
774.51	712.1	4324.37
774.61	712	4435.87
774.71	711.9	4229.98
774.81	711.8	4380.44
774.91	711.7	4398.81
775.01	711.6	4502.76
775.11	711.5	4520.8
775.21	711.4	4501.35
775.31	711.3	4579.02
775.41	711.2	4295.1
775.51	711.1	4307.62
775.61	711	4185.03
775.71	710.9	4163.05
775.81	710.8	4406.35
775.91	710.7	4327.81
776.01	710.6	4387.6
776.11	710.5	4346.08
776.21	710.4	4313.16
776.31	710.3	4273.92
776.41	710.2	4287.03
776.51	710.1	4227.36
776.61	710	4209.68
776.71	709.9	4279.13
776.81	709.8	4404.38
776.91	709.7	4329.92
777.01	709.6	4386.13
777.11	709.5	4332.8
777.21	709.4	4248.23
777.31	709.3	4130.8
777.41	709.2	4184.11
777.51	709.1	4187.54
777.61	709	4098.78
777.71	708.9	3973.74
777.81	708.8	3941.79
777.91	708.7	4189.2
778.01	708.6	4187.66
778.11	708.5	4202.53
778.21	708.4	4134.98
778.31	708.3	4248.86
778.41	708.2	4094.5
778.51	708.1	4137.98
778.61	708	4219.02
778.71	707.9	3874.28
778.81	707.8	3815.8
778.91	707.7	4052.81
779.01	707.6	4031.58
779.11	707.5	4057.14
779.21	707.4	3990.14
779.31	707.3	4168.87
779.41	707.2	4046.42
779.51	707.1	4017.74
779.61	707	4026.83
779.71	706.9	3916.79
779.81	706.8	4099.23
779.91	706.7	4024.01
780.01	706.6	3959.06
780.11	706.5	4050.59
780.21	706.4	3976.55
780.31	706.3	3935.99
780.41	706.2	3876.2
780.51	706.1	3791.27
780.61	706	3862.78
780.71	705.9	3923.74
780.81	705.8	3964.42
780.91	705.7	3975.73
781.01	705.6	3900.79
781.11	705.5	3922.87
781.21	705.4	4057.96
781.31	705.3	3899.45
781.41	705.2	4083.54
781.51	705.1	4046.72
781.61	705	3974.18
781.71	704.9	4110.3
781.81	704.8	3917.04
781.91	704.7	3885.1
782.01	704.6	3771.94
782.11	704.5	3940.83
782.21	704.4	3859.39
782.31	704.3	3889.74
782.41	704.2	4053.67
782.51	704.1	4012.03
782.61	704	3902.61
782.71	703.9	3789.28
782.81	703.8	3919.24
782.91	703.7	3918.78
783.01	703.6	3969.35
783.11	703.5	4062.61
783.21	703.4	4023.65
783.31	703.3	3899.96
783.41	703.2	3913.06
783.51	703.1	3874.89
783.61	703	4190.53
783.71	702.9	4086.13
783.81	702.8	3976.72
783.91	702.7	3986.14
784.01	702.6	3884.51
784.11	702.5	3823.49
784.21	702.4	3907.59
784.31	702.3	4200.58
784.41	702.2	3932.54
784.51	702.1	4082.52
784.61	702	4013.99
784.71	701.9	3940.35
784.81	701.8	4010.46
784.91	701.7	3856.92
785.01	701.6	3884.86
785.11	701.5	3905.29
785.21	701.4	3791.29
785.31	701.3	3995.47
785.41	701.2	4056.12
785.51	701.1	3981.72
785.61	701	4033.44
785.71	700.9	3949.71
785.81	700.8	3929.9
785.91	700.7	4066.31
786.01	700.6	3785.92
786.11	700.5	3802.85
786.21	700.4	3835.12
786.31	700.3	3830.2
786.41	700.2	4007.35
786.51	700.1	3921.68
786.61	700	3867.85
786.71	699.9	3943.38
786.81	699.8	3787.46
786.91	699.7	3977.43
787.01	699.6	3870.86
787.11	699.5	3789.98
787.21	699.4	3908.49
787.31	699.3	4038.42
787.41	699.2	3872.92
787.51	699.1	3884.64
787.61	699	3960.51
787.71	698.9	3880.39
787.81	698.8	3884.61
787.91	698.7	3805.93
788.01	698.6	3790.62
788.11	698.5	3959.12
788.21	698.4	3855.6
788.31	698.3	3799.25
788.41	698.2	3833.94
788.51	698.1	3793.57
788.61	698	3923.07
788.71	697.9	3740.09
788.81	697.8	3820.78
788.91	697.7	3798.36
789.01	697.6	3806.22
789.11	697.5	3915.8
789.21	697.4	3841.11
789.31	697.3	3700.6
789.41	697.2	3859.34
789.51	697.1	4038.64
789.61	697	3940.15
789.71	696.9	3871.26
789.81	696.8	3914.49
789.91	696.7	3955.52
790.01	696.6	3885.17
790.11	696.5	3900.32
790.21	696.4	3811.83
790.31	696.3	3796.75
790.41	696.2	3872.44
790.51	696.1	4057.84
790.61	696	3901.81
790.71	695.9	3852.13
790.81	695.8	3822.63
790.91	695.7	3848.19
791.01	695.6	3768.03
791.11	695.5	3773.04
791.21	695.4	4027.84
791.31	695.3	3833.91
791.41	695.2	3890.12
791.51	695.1	3762.05
791.61	695	3753.61
791.71	694.9	3932.92
791.81	694.8	3834.73
791.91	694.7	3840.57
792.01	694.6	3825.06
792.11	694.5	3907.03
792.21	694.4	3860.11
792.31	694.3	3763.72
792.41	694.2	3835.18
792.51	694.1	3813.52
792.61	694	3888.28
792.71	693.9	3816.78
792.81	693.8	3797.65
792.91	693.7	3734
793.01	693.6	3835.24
793.11	693.5	4033.41
793.21	693.4	3895.63
793.31	693.3	3639.56
793.41	693.2	3831.92
793.51	693.1	3844.83
793.61	693	3905.24
793.71	692.9	4042.31
793.81	692.8	4029.3
793.91	692.7	3882.15
794.01	692.6	3841.76
794.11	692.5	3949.81
794.21	692.4	3962.02
794.31	692.3	3895.44
794.41	692.2	4044.95
794.51	692.1	3926.32
794.61	692	3920.24
794.71	691.9	3805.6
794.81	691.8	3832.72
794.91	691.7	3987.85
795.01	691.6	3827.55
795.11	691.5	3886.57
795.21	691.4	3817.68
795.31	691.3	3845
795.41	691.2	3796.59
795.51	691.1	3893.41
795.61	691	3858.97
795.71	690.9	3982.71
795.81	690.8	4023.34
795.91	690.7	3758.19
796.01	690.6	3781.71
796.11	690.5	3850.09
796.21	690.4	3632.15
796.31	690.3	3937.81
796.41	690.2	3990.83
796.51	690.1	3811.46
796.61	690	3930.93
796.71	689.9	3930.42
796.81	689.8	3772.54
796.91	689.7	3967.96
797.01	689.6	3813.32
797.11	689.5	3912.95
797.21	689.4	3990.51
797.31	689.3	4124.44
797.41	689.2	3848.02
797.51	689.1	3840.83
797.61	689	3892.29
797.71	688.9	3935.86
797.81	688.8	4028.72
797.91	688.7	3959.69
798.01	688.6	4107.44
798.11	688.5	3819.95
798.21	688.4	4105.67
798.31	688.3	3999.78
798.41	688.2	4058.51
798.51	688.1	3764.08
798.61	688	3958.94
798.71	687.9	3924.1
798.81	687.8	3821.63
798.91	687.7	3876.58
799.01	687.6	3966.45
799.11	687.5	3898.21
799.21	687.4	3719.94
799.31	687.3	3776.51
799.41	687.2	3924.23
799.51	687.1	3880.48
799.61	687	3659.37
799.71	686.9	3730.81
799.81	686.8	3806.28
799.91	686.7	3931.04
800.01	686.6	3801.26
800.11	686.5	3824.69
800.21	686.4	3908.49
800.31	686.3	3965.86
800.41	686.2	3970.57
800.51	686.1	3843.56
800.61	686	3926.17
800.71	685.9	3884.17
800.81	685.8	3825.15
800.91	685.7	3755.39
801.01	685.6	3961.63
801.11	685.5	3970.78
801.21	685.4	4088.23
801.31	685.3	3886.63
801.41	685.2	3898.88
801.51	685.1	3940.53
801.61	685	3872.04
801.71	684.9	3889.06
801.81	684.8	3884.15
801.91	684.7	3842.82
802.01	684.6	3907.28
802.11	684.5	4004.02
802.21	684.4	3925.86
802.31	684.3	3903.36
802.41	684.2	4061.17
802.51	684.1	4097.26
802.61	684	3944.94
802.71	683.9	4034.1
802.81	683.8	3999.11
802.91	683.7	3702.46
803.01	683.6	3955.77
803.11	683.5	3826.96
803.21	683.4	3756.65
803.31	683.3	3823.4
803.41	683.2	3957.62
803.51	683.1	3870.39
803.61	683	3948.37
803.71	682.9	3873.74
803.81	682.8	3931.66
803.91	682.7	3969.41
804.01	682.6	3929.74
804.11	682.5	3992.84
804.21	682.4	3941.53
804.31	682.3	3883.64
804.41	682.2	3856.88
804.51	682.1	3961.33
804.61	682	3848.36
804.71	681.9	4142.75
804.81	681.8	3912.21
804.91	681.7	4014.99
805.01	681.6	4021.88
805.11	681.5	3980.3
805.21	681.4	3919.28
805.31	681.3	4106.39
805.41	681.2	3998.96
805.51	681.1	3983.67
805.61	681	3921.45
805.71	680.9	3794.8
805.81	680.8	3736.92
805.91	680.7	3873.3
806.01	680.6	3873.83
806.11	680.5	3927.76
806.21	680.4	3899.79
806.31	680.3	3878.3
806.41	680.2	3888.33
806.51	680.1	3961.66
806.61	680	3988.34
806.71	679.9	4153.25
806.81	679.8	4067.11
806.91	679.7	4077.82
807.01	679.6	4015.06
807.11	679.5	3882.62
807.21	679.4	4029.71
807.31	679.3	3922.72
807.41	679.2	4015.66
807.51	679.1	4004.42
807.61	679	3969.17
807.71	678.9	4071.98
807.81	678.8	3981.26
807.91	678.7	3874.05
808.01	678.6	3937.11
808.11	678.5	3787.08
808.21	678.4	3835.12
808.31	678.3	4150.29
808.41	678.2	4001.54
808.51	678.1	3882.28
808.61	678	3941.73
808.71	677.9	3901.85
808.81	677.8	4108.43
808.91	677.7	4049.95
809.01	677.6	3981.15
809.11	677.5	3792.44
809.21	677.4	3954.94
809.31	677.3	3985.19
809.41	677.2	3832.25
809.51	677.1	3874.59
809.61	677	3928.91
809.71	676.9	3976.2
809.81	676.8	3996.11
809.91	676.7	4064.65
810.01	676.6	3965.14
810.11	676.5	3945.53
810.21	676.4	4066.64
810.31	676.3	4094.84
810.41	676.2	4035.52
810.51	676.1	3980.6
810.61	676	3916.69
810.71	675.9	3940.31
810.81	675.8	3909.5
810.91	675.7	3871.64
811.01	675.6	3936.98
811.11	675.5	3878.63
811.21	675.4	3928.27
811.31	675.3	3979.8
811.41	675.2	3963.69
811.51	675.1	3927.55
811.61	675	3933.07
811.71	674.9	3956.85
811.81	674.8	4003.92
811.91	674.7	4128.91
812.01	674.6	4056.42
812.11	674.5	4127.29
812.21	674.4	3999.54
812.31	674.3	3870.84
812.41	674.2	3836.74
812.51	674.1	3978.93
812.61	674	4038.92
812.71	673.9	3876.14
812.81	673.8	3952.21
812.91	673.7	3893.19
813.01	673.6	4036.59
813.11	673.5	3943.35
813.21	673.4	4046.8
813.31	673.3	3993.98
813.41	673.2	4058.74
813.51	673.1	4039.72
813.61	673	3962.45
813.71	672.9	4145.51
813.81	672.8	3959.59
813.91	672.7	4045.17
814.01	672.6	4092.37
814.11	672.5	3974.17
814.21	672.4	3909.12
814.31	672.3	3852.1
814.41	672.2	3787.29
814.51	672.1	3875.53
814.61	672	3878.93
814.71	671.9	3991.42
814.81	671.8	3938.29
814.91	671.7	3903.82
815.01	671.6	4057.02
815.11	671.5	4032.1
815.21	671.4	3904.92
815.31	671.3	3787.75
815.41	671.2	3822.07
815.51	671.1	4101.24
815.61	671	4216.38
815.71	670.9	4046.9
815.81	670.8	3823.23
815.91	670.7	3950.25
816.01	670.6	3813.31
816.11	670.5	3846.04
816.21	670.4	3959.5
816.31	670.3	3774.65
816.41	670.2	3821.85
816.51	670.1	3837.27
816.61	670	4024.59
816.71	669.9	4022.38
816.81	669.8	4057.11
816.91	669.7	3820.26
817.01	669.6	3987.33
817.11	669.5	3994.21
817.21	669.4	4061.79
817.31	669.3	3995.4
817.41	669.2	4004.9
817.51	669.1	3895.82
817.61	669	3991.56
817.71	668.9	4223.2
817.81	668.8	4124.71
817.91	668.7	4004.87
818.01	668.6	3996.69
818.11	668.5	3927.15
818.21	668.4	3832.65
818.31	668.3	4246.06
818.41	668.2	4104.56
818.51	668.1	4137.09
818.61	668	4072.81
818.71	667.9	3922.81
818.81	667.8	3950.65
818.91	667.7	4023.36
819.01	667.6	3991.59
819.11	667.5	4039.79
819.21	667.4	4186.93
819.31	667.3	3890.43
819.41	667.2	3980.1
819.51	667.1	3960
819.61	667	4060.22
819.71	666.9	3937.39
819.81	666.8	3963.59
819.91	666.7	3920.2
820.01	666.6	4005.24
820.11	666.5	3920.98
820.21	666.4	4011.58
820.31	666.3	4086.58
820.41	666.2	3919.09
820.51	666.1	3850.79
820.61	666	3807.66
820.71	665.9	3890.54
820.81	665.8	3928.41
820.91	665.7	4013.27
821.01	665.6	4109.11
821.11	665.5	3731.07
821.21	665.4	3850.06
821.31	665.3	4065.88
821.41	665.2	3876.81
821.51	665.1	3764.44
821.61	665	3943.96
821.71	664.9	4063.47
821.81	664.8	3885.4
821.91	664.7	3957.86
822.01	664.6	4112.02
822.11	664.5	4114.59
822.21	664.4	3941.52
822.31	664.3	3777.29
822.41	664.2	3889.19
822.51	664.1	4110.7
822.61	664	4038.97
822.71	663.9	4069.78
822.81	663.8	4036.81
822.91	663.7	4140.97
823.01	663.6	3845.77
823.11	663.5	3940.03
823.21	663.4	4090.95
823.31	663.3	4060.09
823.41	663.2	3918.48
823.51	663.1	3795.8
823.61	663	3971.97
823.71	662.9	4156.8
823.81	662.8	3972.54
823.91	662.7	3950.61
824.01	662.6	3997.26
824.11	662.5	3989.68
824.21	662.4	3990.2
824.31	662.3	4116.17
824.41	662.2	4083.33
824.51	662.1	3921.8
824.61	662	4060.11
824.71	661.9	3962.14
824.81	661.8	3867.26
824.91	661.7	3925.98
825.01	661.6	4057.44
825.11	661.5	4154.59
825.21	661.4	4137.9
825.31	661.3	4149.44
825.41	661.2	4271.95
825.51	661.1	4007.68
825.61	661	4104.04
825.71	660.9	4054.23
825.81	660.8	3879.59
825.91	660.7	3960.79
826.01	660.6	3962.49
826.11	660.5	4107.04
826.21	660.4	4125.03
826.31	660.3	3954.6
826.41	660.2	4047.83
826.51	660.1	4129.15
826.61	660	4086.68
826.71	659.9	4060.44
826.81	659.8	4255.98
826.91	659.7	4193.72
827.01	659.6	4035.39
827.11	659.5	4157.39
827.21	659.4	4179.66
827.31	659.3	3969.78
827.41	659.2	4086.47
827.51	659.1	4039.2
827.61	659	4301.25
827.71	658.9	3995.67
827.81	658.8	3984.26
827.91	658.7	4041.03
828.01	658.6	4199.7
828.11	658.5	4148.53
828.21	658.4	4078.89
828.31	658.3	4179.63
828.41	658.2	4017.09
828.51	658.1	4240.05
828.61	658	4223.49
828.71	657.9	4072.39
828.81	657.8	4265.08
828.91	657.7	4255.36
829.01	657.6	3882.62
829.11	657.5	3979.67
829.21	657.4	4007.62
829.31	657.3	3992.47
829.41	657.2	4019.46
829.51	657.1	4225.01
829.61	657	4278.33
829.71	656.9	4073.62
829.81	656.8	4112.05
829.91	656.7	4073.92
830.01	656.6	4167.22
830.11	656.5	4133.47
830.21	656.4	4005.91
830.31	656.3	4037.53
830.41	656.2	4193.83
830.51	656.1	4073.52
830.61	656	4220.48
830.71	655.9	4084.84
830.81	655.8	4138.23
830.91	655.7	4217.64
831.01	655.6	4312.2
831.11	655.5	4053.49
831.21	655.4	4124.95
831.31	655.3	4089.7
831.41	655.2	4285.3
831.51	655.1	3987.18
831.61	655	4024.88
831.71	654.9	4175.16
831.81	654.8	4099.33
831.91	654.7	3974.29
832.01	654.6	4028.44
832.11	654.5	4116.05
832.21	654.4	4079.72
832.31	654.3	4055.6
832.41	654.2	4119.23
832.51	654.1	4027.41
832.61	654	4000.41
832.71	653.9	3963.72
832.81	653.8	4236.82
832.91	653.7	4200.17
833.01	653.6	4125.96
833.11	653.5	4341.08
833.21	653.4	4355.3
833.31	653.3	4231.41
833.41	653.2	4256.09
833.51	653.1	4068.58
833.61	653	4199.09
833.71	652.9	4148.32
833.81	652.8	4180.01
833.91	652.7	4074.38
834.01	652.6	4173.4
834.11	652.5	4009.32
834.21	652.4	4167.09
834.31	652.3	4243.92
834.41	652.2	4101.66
834.51	652.1	4148.82
834.61	652	4209.16
834.71	651.9	4012.93
834.81	651.8	4221.65
834.91	651.7	4290.66
835.01	651.6	4216.09
835.11	651.5	4099.03
835.21	651.4	4047.51
835.31	651.3	4109.28
835.41	651.2	4193.46
835.51	651.1	4274.78
835.61	651	4172.98
835.71	650.9	4246.02
835.81	650.8	4296.04
835.91	650.7	4159.2
836.01	650.6	4165.49
836.11	650.5	4251.7
836.21	650.4	4020.89
836.31	650.3	3984.41
836.41	650.2	3967.19
836.51	650.1	4160.93
836.61	650	3888.8
836.71	649.9	3989.57
836.81	649.8	4104
836.91	649.7	4225.81
837.01	649.6	4045.81
837.11	649.5	4263.19
837.21	649.4	4239.26
837.31	649.3	4043.42
837.41	649.2	4003.96
837.51	649.1	4093.68
837.61	649	4189.59
837.71	648.9	4114.15
837.81	648.8	4177.63
837.91	648.7	4121.92
838.01	648.6	3975.52
838.11	648.5	4169.9
838.21	648.4	4024.6
838.31	648.3	4040.66
838.41	648.2	4127.65
838.51	648.1	4113.58
838.61	648	4120.52
838.71	647.9	4046.98
838.81	647.8	4048.88
838.91	647.7	4191.24
839.01	647.6	4194.15
839.11	647.5	4071.71
839.21	647.4	4155.71
839.31	647.3	4175.87
839.41	647.2	4165.53
839.51	647.1	4085.79
839.61	647	4231.91
839.71	646.9	3966.67
839.81	646.8	4038.05
839.91	646.7	4090.55
840.01	646.6	4227.4
840.11	646.5	4117.07
840.21	646.4	4039.42
840.31	646.3	4177.16
840.41	646.2	4050.86
840.51	646.1	4099.35
840.61	646	4175.56
840.71	645.9	4325.68
840.81	645.8	4118.59
840.91	645.7	4113.14
841.01	645.6	4178.52
841.11	645.5	4317.25
841.21	645.4	4098.37
841.31	645.3	4111.07
841.41	645.2	4140.92
841.51	645.1	4212.4
841.61	645	4203.08
841.71	644.9	4109.19
841.81	644.8	4097.52
841.91	644.7	4129.28
842.01	644.6	4156.69
842.11	644.5	4099.14
842.21	644.4	4104.44
842.31	644.3	4020.08
842.41	644.2	4105.94
842.51	644.1	4264.45
842.61	644	4114.74
842.71	643.9	4037.98
842.81	643.8	4013.59
842.91	643.7	4120.64
843.01	643.6	4167.1
843.11	643.5	4105.08
843.21	643.4	4250.55
843.31	643.3	4314.57
843.41	643.2	4328.42
843.51	643.1	4353.25
843.61	643	4376.24
843.71	642.9	4229.01
843.81	642.8	4181.92
843.91	642.7	4139.2
844.01	642.6	4122.97
844.11	642.5	4213.25
844.21	642.4	4047.26
844.31	642.3	4154.57
844.41	642.2	4309.09
844.51	642.1	4197.45
844.61	642	4345.77
844.71	641.9	4328.74
844.81	641.8	4164.04
844.91	641.7	4362.4
845.01	641.6	4316.12
845.11	641.5	4275.78
845.21	641.4	4299.62
845.31	641.3	4034.71
845.41	641.2	4229.48
845.51	641.1	4151.93
845.61	641	4190.64
845.71	640.9	4260.72
845.81	640.8	4211.69
845.91	640.7	4181.46
846.01	640.6	4253.24
846.11	640.5	4004.04
846.21	640.4	4168.31
846.31	640.3	4184.62
846.41	640.2	4236.62
846.51	640.1	4464.06
846.61	640	4192.53
846.71	639.9	4217.81
846.81	639.8	4284.76
846.91	639.7	4277.84
847.01	639.6	4299.58
847.11	639.5	4283.81
847.21	639.4	4134.95
847.31	639.3	4154.37
847.41	639.2	4314.52
847.51	639.1	4152.97
847.61	639	4236.99
847.71	638.9	4343.93
847.81	638.8	4363.5
847.91	638.7	4425.5
848.01	638.6	4285.27
848.11	638.5	4254.82
848.21	638.4	4208.79
848.31	638.3	4267.92
848.41	638.2	4183.44
848.51	638.1	4341.76
848.61	638	4372.59
848.71	637.9	4324.53
848.81	637.8	4142.59
848.91	637.7	3975.3
849.01	637.6	4393.38
849.11	637.5	4292.85
849.21	637.4	4311.43
849.31	637.3	4263.51
849.41	637.2	4158.39
849.51	637.1	4171.45
849.61	637	4369.09
849.71	636.9	4241.9
849.81	636.8	4148.41
849.91	636.7	4357.34
850.01	636.6	4402.86
850.11	636.5	4390.97
850.21	636.4	4319.82
850.31	636.3	4356.97
850.41	636.2	4188.28
850.51	636.1	4351.04
850.61	636	4315.89
850.71	635.9	4361.42
850.81	635.8	4359.93
850.91	635.7	4538.15
851.01	635.6	4380.22
851.11	635.5	4245.43
851.21	635.4	4285.61
851.31	635.3	4353.46
851.41	635.2	4235.99
851.51	635.1	4261.49
851.61	635	4146.14
851.71	634.9	4430.24
851.81	634.8	4127.58
851.91	634.7	4278.6
852.01	634.6	4276.82
852.11	634.5	4423.87
852.21	634.4	4435.27
852.31	634.3	4349.1
852.41	634.2	4587.24
852.51	634.1	4199.89
852.61	634	4395.85
852.71	633.9	4498.09
852.81	633.8	4363.59
852.91	633.7	4362.11
853.01	633.6	4511.34
853.11	633.5	4558.52
853.21	633.4	4263.97
853.31	633.3	4366.66
853.41	633.2	4480.69
853.51	633.1	4422.14
853.61	633	4517.47
853.71	632.9	4550.48
853.81	632.8	4477.17
853.91	632.7	4395.97
854.01	632.6	4495.95
854.11	632.5	4588.01
854.21	632.4	4422.03
854.31	632.3	4376.8
854.41	632.2	4460.34
854.51	632.1	4382.82
854.61	632	4401.93
854.71	631.9	4473.87
854.81	631.8	4296.52
854.91	631.7	4155.96
855.01	631.6	4106.03
855.11	631.5	4491.12
855.21	631.4	4575.02
855.31	631.3	4582.2
855.41	631.2	4424.22
855.51	631.1	4465.9
855.61	631	4492.86
855.71	630.9	4685.07
855.81	630.8	4589.73
855.91	630.7	4575.25
856.01	630.6	4555.58
856.11	630.5	4446.25
856.21	630.4	4546.11
856.31	630.3	4526.36
856.41	630.2	4498.29
856.51	630.1	4525.54
856.61	630	4615.13
856.71	629.9	4486.88
856.81	629.8	4437.1
856.91	629.7	4572.52
857.01	629.6	4559.31
857.11	629.5	4688.16
857.21	629.4	4413.54
857.31	629.3	4441.45
857.41	629.2	4660.27
857.51	629.1	4251.01
857.61	629	4644.33
857.71	628.9	4648.33
857.81	628.8	4537.85
857.91	628.7	4570.21
858.01	628.6	4501.33
858.11	628.5	4442.76
858.21	628.4	4348.43
858.31	628.3	4399.87
858.41	628.2	4667.95
858.51	628.1	4592.97
858.61	628	4457.91
858.71	627.9	4574.88
858.81	627.8	4333.38
858.91	627.7	4348.81
859.01	627.6	4558.27
859.11	627.5	4580.19
859.21	627.4	4511.36
859.31	627.3	4424.85
859.41	627.2	4551.44
859.51	627.1	4597.58
859.61	627	4709.94
859.71	626.9	4490.77
859.81	626.8	4474.82
859.91	626.7	4496.6
860.01	626.6	4703.08
860.11	626.5	4627.65
860.21	626.4	4447.76
860.31	626.3	4352.37
860.41	626.2	4299.17
860.51	626.1	4601.82
860.61	626	4525.88
860.71	625.9	4377.34
860.81	625.8	4446.96
860.91	625.7	4418.4
861.01	625.6	4570.27
861.11	625.5	4480.63
861.21	625.4	4614.04
861.31	625.3	4639.95
861.41	625.2	4603.81
861.51	625.1	4568.11
861.61	625	4745.68
861.71	624.9	4520.73
861.81	624.8	4436.66
861.91	624.7	4395.87
862.01	624.6	4474.15
862.11	624.5	4380.49
862.21	624.4	4458.57
862.31	624.3	4539.89
862.41	624.2	4412.23
862.51	624.1	4560.95
862.61	624	4639.76
862.71	623.9	4528.38
862.81	623.8	4535.62
862.91	623.7	4693.07
863.01	623.6	4501.57
863.11	623.5	4574.54
863.21	623.4	4632.11
863.31	623.3	4565.62
863.41	623.2	4607.83
863.51	623.1	4690.17
863.61	623	4695.12
863.71	622.9	4565.52
863.81	622.8	4452.09
863.91	622.7	4681.93
864.01	622.6	4717.53
864.11	622.5	4531.63
864.21	622.4	4606.24
864.31	622.3	4718.29
864.41	622.2	4510.62
864.51	622.1	4520.4
864.61	622	4539.72
864.71	621.9	4635.05
864.81	621.8	4508.64
864.91	621.7	4567.42
865.01	621.6	4689.94
865.11	621.5	4664.11
865.21	621.4	4666.2
865.31	621.3	4749.18
865.41	621.2	4780.02
865.51	621.1	4732.27
865.61	621	4460.76
865.71	620.9	4528.4
865.81	620.8	4840.18
865.91	620.7	4732.49
866.01	620.6	4502.17
866.11	620.5	4670.05
866.21	620.4	4735.59
866.31	620.3	4543.79
866.41	620.2	4587.01
866.51	620.1	4635.22
866.61	620	4678.36
866.71	619.9	4603.98
866.81	619.8	4533.96
866.91	619.7	4598.53
867.01	619.6	4550.21
867.11	619.5	4869.55
867.21	619.4	4729.74
867.31	619.3	4754.85
867.41	619.2	4585.82
867.51	619.1	4560.85
867.61	619	4725.23
867.71	618.9	4818.58
867.81	618.8	4675.74
867.91	618.7	4464.29
868.01	618.6	4529.53
868.11	618.5	4693.94
868.21	618.4	4730.41
868.31	618.3	4548
868.41	618.2	4647.1
868.51	618.1	4613.99
868.61	618	4599.3
868.71	617.9	4682.92
868.81	617.8	4580.77
868.91	617.7	4342.36
869.01	617.6	4487.08
869.11	617.5	4688.54
869.21	617.4	4820.18
869.31	617.3	4652.11
869.41	617.2	4664.41
869.51	617.1	4687.42
869.61	617	4783.27
869.71	616.9	4525.27
869.81	616.8	4795.24
869.91	616.7	4764.39
870.01	616.6	4755.78
870.11	616.5	4682.28
870.21	616.4	4603.35
870.31	616.3	4616.83
870.41	616.2	4778.98
870.51	616.1	4806.8
870.61	616	4707.79
870.71	615.9	4638.08
870.81	615.8	4593.78
870.91	615.7	4600.16
871.01	615.6	4671.61
871.11	615.5	4539.68
871.21	615.4	4533.54
871.31	615.3	4902.86
871.41	615.2	4514.31
871.51	615.1	4641.97
871.61	615	4822.43
871.71	614.9	4814.13
871.81	614.8	4597.87
871.91	614.7	4695.06
872.01	614.6	4955.26
872.11	614.5	4610.59
872.21	614.4	4703.98
872.31	614.3	4732.91
872.41	614.2	4844.14
872.51	614.1	4692.48
872.61	614	4588.35
872.71	613.9	4755.49
872.81	613.8	4708.89
872.91	613.7	4968.15
873.01	613.6	4780.49
873.11	613.5	4679.02
873.21	613.4	4787.65
873.31	613.3	4889.74
873.41	613.2	4964.67
873.51	613.1	5066.46
873.61	613	4950.62
873.71	612.9	5020.65
873.81	612.8	4799.42
873.91	612.7	4780.23
874.01	612.6	4809.31
874.11	612.5	4974.23
874.21	612.4	4874.19
874.31	612.3	5002
874.41	612.2	5026.7
874.51	612.1	4934.18
874.61	612	4908.59
874.71	611.9	5105.51
874.81	611.8	5008.99
874.91	611.7	5110.38
875.01	611.6	5030.76
875.11	611.5	5095.43
875.21	611.4	4828.46
875.31	611.3	5055.58
875.41	611.2	5045.31
875.51	611.1	5107.28
875.61	611	5158.3
875.71	610.9	5007.64
875.81	610.8	5166.45
875.91	610.7	5215.19
876.01	610.6	5293.73
876.11	610.5	5292.96
876.21	610.4	5037.73
876.31	610.3	5105.06
876.41	610.2	5148.81
876.51	610.1	5123.85
876.61	610	5186.43
876.71	609.9	5302.83
876.81	609.8	5208.97
876.91	609.7	5149.67
877.01	609.6	5227.02
877.11	609.5	5334.23
877.21	609.4	5362.67
877.31	609.3	5425.96
877.41	609.2	5612
877.51	609.1	5676.58
877.61	609	5648.48
877.71	608.9	5600.67
877.81	608.8	5768.93
877.91	608.7	5725.64
878.01	608.6	5608.72
878.11	608.5	5864.41
878.21	608.4	5854.6
878.31	608.3	5731.71
878.41	608.2	6001.64
878.51	608.1	5830.27
878.61	608	5922.67
878.71	607.9	6004.06
878.81	607.8	6288.33
878.91	607.7	6214.79
879.01	607.6	6138.55
879.11	607.5	6118.18
879.21	607.4	6523.02
879.31	607.3	6477.48
879.41	607.2	6582.13
879.51	607.1	6404.56
879.61	607	6772.15
879.71	606.9	6886.51
879.81	606.8	6804.88
879.91	606.7	7129.95
880.01	606.6	7172.64
880.11	606.5	7273.57
880.21	606.4	7619.79
880.31	606.3	7881.3
880.41	606.2	7939.8
880.51	606.1	8083.02
880.61	606	8420.23
880.71	605.9	8790.88
880.81	605.8	9158.67
880.91	605.7	9396.6
881.01	605.6	9583.11
881.11	605.5	10241.3
881.21	605.4	10656.7
881.31	605.3	10955.3
881.41	605.2	11448.6
881.51	605.1	11963.6
881.61	605	12430.4
881.71	604.9	12684.9
881.81	604.8	13128.9
881.91	604.7	13656.4
882.01	604.6	14250.7
882.11	604.5	14554.9
882.21	604.4	14898.6
882.31	604.3	15098.4
882.41	604.2	14987.7
882.51	604.1	15383
882.61	604	15335.5
882.71	603.9	14871.1
882.81	603.8	14105.1
882.91	603.7	14302
883.01	603.6	14052.6
883.11	603.5	13418
883.21	603.4	13309.2
883.31	603.3	12677
883.41	603.2	12004.2
883.51	603.1	11259.6
883.61	603	10705.8
883.71	602.9	10392.5
883.81	602.8	10084.8
883.91	602.7	9500.9
884.01	602.6	9061.55
884.11	602.5	8744.62
884.21	602.4	8163.7
884.31	602.3	8100.49
884.41	602.2	7904
884.51	602.1	7564.79
884.61	602	7133.44
884.71	601.9	6852.98
884.81	601.8	6827.22
884.91	601.7	6492.57
885.01	601.6	6320.26
885.11	601.5	6338.05
885.21	601.4	6012.95
885.31	601.3	6049.83
885.41	601.2	5911.96
885.51	601.1	5632.84
885.61	601	5579.66
885.71	600.9	5315.88
885.81	600.8	5293.43
885.91	600.7	5285.95
886.01	600.6	5051.45
886.11	600.5	5061.44
886.21	600.4	4908.66
886.31	600.3	5006.82
886.41	600.2	5128.51
886.51	600.1	4856.62
886.61	600	4747.33
886.71	599.9	4671.67
886.81	599.8	4592.83
886.91	599.7	4631.9
887.01	599.6	4782.94
887.11	599.5	4598.38
887.21	599.4	4460.44
887.31	599.3	4436.66
887.41	599.2	4397.87
887.51	599.1	4504.47
887.61	599	4465.81
887.71	598.9	4391.92
887.81	598.8	4609.34
887.91	598.7	4493.07
888.01	598.6	4287.48
888.11	598.5	4335.4
888.21	598.4	4253.86
888.31	598.3	4311.21
888.41	598.2	4086.72
888.51	598.1	4282.62
888.61	598	4204.64
888.71	597.9	4090.1
888.81	597.8	3989
888.91	597.7	4074.93
889.01	597.6	4053.97
889.11	597.5	4062.6
889.21	597.4	4023.91
889.31	597.3	4217.15
889.41	597.2	4159.82
889.51	597.1	4104.89
889.61	597	3884.88
889.71	596.9	4011.69
889.81	596.8	3922.69
889.91	596.7	4156.66
890.01	596.6	3890.51
890.11	596.5	3915.82
890.21	596.4	3998.15
890.31	596.3	3888.95
890.41	596.2	3868.6
890.51	596.1	3735.66
890.61	596	3836.77
890.71	595.9	3845.94
890.81	595.8	3990.54
890.91	595.7	3807.89
891.01	595.6	3828.1
891.11	595.5	3813.73
891.21	595.4	3848.05
891.31	595.3	3958.76
891.41	595.2	3891
891.51	595.1	3788.26
891.61	595	3893.74
891.71	594.9	3861.55
891.81	594.8	3737.56
891.91	594.7	3805.18
892.01	594.6	3919.63
892.11	594.5	3757.28
892.21	594.4	3885.88
892.31	594.3	3798.62
892.41	594.2	3693.91
892.51	594.1	3731.13
892.61	594	3652.85
892.71	593.9	3886.8
892.81	593.8	3982.25
892.91	593.7	3876.26
893.01	593.6	3834.38
893.11	593.5	3732.47
893.21	593.4	3685.08
893.31	593.3	3869.9
893.41	593.2	3915.26
893.51	593.1	3872.91
893.61	593	3746.27
893.71	592.9	3828.09
893.81	592.8	3872.53
893.91	592.7	3778.88
894.01	592.6	3621.71
894.11	592.5	3813.37
894.21	592.4	3732.8
894.31	592.3	4023.28
894.41	592.2	3849.86
894.51	592.1	3731.61
894.61	592	3815.84
894.71	591.9	3777.04
894.81	591.8	3939.95
894.91	591.7	3833.58
895.01	591.6	3759.57
895.11	591.5	3540.02
895.21	591.4	3730.19
895.31	591.3	3755.08
895.41	591.2	3838.13
895.51	591.1	3707.05
895.61	591	3758.39
895.71	590.9	3744.61
895.81	590.8	3821.02
895.91	590.7	3788.83
896.01	590.6	3714.79
896.11	590.5	3868.24
896.21	590.4	3698.79
896.31	590.3	3834.67
896.41	590.2	3562.01
896.51	590.1	3735.82
896.61	590	3814.98
896.71	589.9	3694.82
896.81	589.8	3673.75
896.91	589.7	3726.5
897.01	589.6	3750.88
897.11	589.5	3837.59
897.21	589.4	3733.35
897.31	589.3	3796.45
897.41	589.2	3864.31
897.51	589.1	3721.1
897.61	589	3748.05
897.71	588.9	3801.82
897.81	588.8	3742.37
897.91	588.7	3770.61
898.01	588.6	3733.67
898.11	588.5	3685.66
898.21	588.4	3950.82
898.31	588.3	3629.23
898.41	588.2	3590.09
898.51	588.1	3771.35
898.61	588	3675.63
898.71	587.9	3703.37
898.81	587.8	3770.03
898.91	587.7	3783.08
899.01	587.6	3437.76
899.11	587.5	3705.15
899.21	587.4	3619.71
899.31	587.3	3489.85
899.41	587.2	3613.35
899.51	587.1	3578.33
899.61	587	3505.68
899.71	586.9	3660.07
899.81	586.8	3638.61
899.91	586.7	3645.41
900.01	586.6	3518.02
900.11	586.5	3683.5
900.21	586.4	3882.83
900.31	586.3	3679.65
900.41	586.2	3542.6
900.51	586.1	3572.01
900.61	586	3614.89
900.71	585.9	3574.36
900.81	585.8	3802.11
900.91	585.7	3727.09
901.01	585.6	3801.29
901.11	585.5	3667.94
901.21	585.4	3744.85
901.31	585.3	3802.62
901.41	585.2	3781.09
901.51	585.1	3897.7
901.61	585	3806.44
901.71	584.9	3760
901.81	584.8	3666.18
901.91	584.7	3693.86
902.01	584.6	3757.68
902.11	584.5	3808.16
902.21	584.4	3711.54
902.31	584.3	3729.58
902.41	584.2	3747.63
902.51	584.1	3589.92
902.61	584	3569.83
902.71	583.9	3770.8
902.81	583.8	3703.42
902.91	583.7	3598.85
903.01	583.6	3840.74
903.11	583.5	3903.67
903.21	583.4	3851.42
903.31	583.3	3907.73
903.41	583.2	3886.06
903.51	583.1	3864.6
903.61	583	3751.52
903.71	582.9	3877.42
903.81	582.8	3956.43
903.91	582.7	4022.8
904.01	582.6	3971.68
904.11	582.5	3911.33
904.21	582.4	3976.49
904.31	582.3	4049.57
904.41	582.2	4191.03
904.51	582.1	3944.58
904.61	582	4090.26
904.71	581.9	3983.67
904.81	581.8	3932.16
904.91	581.7	4007.01
905.01	581.6	4127.93
905.11	581.5	4274
905.21	581.4	4260.52
905.31	581.3	4211.65
905.41	581.2	4239.16
905.51	581.1	4337.79
905.61	581	4218.42
905.71	580.9	4273.37
905.81	580.8	4229.09
905.91	580.7	4304.66
906.01	580.6	4242.42
906.11	580.5	4351.53
906.21	580.4	4178.29
906.31	580.3	4213.12
906.41	580.2	4250.06
906.51	580.1	4376.72
906.61	580	4421.84
906.71	579.9	4457.08
906.81	579.8	4529.87
906.91	579.7	4469.03
907.01	579.6	4400.06
907.11	579.5	4422.4
907.21	579.4	4555.84
907.31	579.3	4518.46
907.41	579.2	4492.94
907.51	579.1	4702.69
907.61	579	4705.62
907.71	578.9	4662.64
907.81	578.8	4712.71
907.91	578.7	4778.54
908.01	578.6	4728.63
908.11	578.5	5062.56
908.21	578.4	4990.17
908.31	578.3	4989.59
908.41	578.2	5130.27
908.51	578.1	5108.9
908.61	578	5408.9
908.71	577.9	5366.76
908.81	577.8	5604.62
908.91	577.7	5580.94
909.01	577.6	5443.06
909.11	577.5	5656.06
909.21	577.4	5710.3
909.31	577.3	6032.63
909.41	577.2	6144.04
909.51	577.1	6051.14
909.61	577	6257.6
909.71	576.9	6375.05
909.81	576.8	6455.52
909.91	576.7	6436.36
910.01	576.6	6548.74
910.11	576.5	6845.26
910.21	576.4	6905.6
910.31	576.3	7177.86
910.41	576.2	7573.39
910.51	576.1	7607.35
910.61	576	7561.03
910.71	575.9	8032.13
910.81	575.8	8107.52
910.91	575.7	8596.05
911.01	575.6	8967.86
911.11	575.5	9582.39
911.21	575.4	9841.63
911.31	575.3	10430
911.41	575.2	10906.4
911.51	575.1	11443.5
911.61	575	11755.9
911.71	574.9	12438.5
911.81	574.8	13412.2
911.91	574.7	13832.4
912.01	574.6	14594.4
912.11	574.5	15466.2
912.21	574.4	16140.4
912.31	574.3	17245.9
912.41	574.2	17928.3
912.51	574.1	18627
912.61	574	19799.6
912.71	573.9	20622.4
912.81	573.8	21074.8
912.91	573.7	22103.2
913.01	573.6	22601.4
913.11	573.5	23139.2
913.21	573.4	23218.3
913.31	573.3	23370.6
913.41	573.2	23264.6
913.51	573.1	22945.9
913.61	573	22624.1
913.71	572.9	22353.5
913.81	572.8	21375.6
913.91	572.7	20726.1
914.01	572.6	19536.6
914.11	572.5	18680.1
914.21	572.4	17676.9
914.31	572.3	16558.4
914.41	572.2	15713.9
914.51	572.1	14937.2
914.61	572	13873
914.71	571.9	12948.3
914.81	571.8	12294.7
914.91	571.7	11356.9
915.01	571.6	10603.7
915.11	571.5	9957.74
915.21	571.4	9417.8
915.31	571.3	8957.14
915.41	571.2	8203.06
915.51	571.1	7754.68
915.61	571	7619.74
915.71	570.9	6957.37
915.81	570.8	6667.66
915.91	570.7	6088.2
916.01	570.6	5868.77
916.11	570.5	5495.12
916.21	570.4	5343.32
916.31	570.3	4981.86
916.41	570.2	4676.55
916.51	570.1	4225.71
916.61	570	4104.94
916.71	569.9	3913.71
916.81	569.8	3722.47
916.91	569.7	3737.19
917.01	569.6	3557.04
917.11	569.5	3258.84
917.21	569.4	3176.95
917.31	569.3	2965.54
917.41	569.2	2949.11
917.51	569.1	2822.54
917.61	569	2659.44
917.71	568.9	2659.5
917.81	568.8	2382.55
917.91	568.7	2298.11
918.01	568.6	2162.05
918.11	568.5	2074.32
918.21	568.4	2225.04
918.31	568.3	2157.92
918.41	568.2	2036.49
918.51	568.1	1940.26
918.61	568	1810.98
918.71	567.9	1779.62
918.81	567.8	1911.15
918.91	567.7	1883.29
919.01	567.6	1789.09
919.11	567.5	1632.46
919.21	567.4	1583.04
919.31	567.3	1515.25
919.41	567.2	1469.35
919.51	567.1	1405.37
919.61	567	1268.34
919.71	566.9	1167.4
919.81	566.8	1341.33
919.91	566.7	1380.27
920.01	566.6	1219.99
920.11	566.5	1129.66
920.21	566.4	1073.91
920.31	566.3	1200.93
920.41	566.2	1231.72
920.51	566.1	1096.79
920.61	566	927.134
920.71	565.9	1222.28
920.81	565.8	1011.72
920.91	565.7	776.285
921.01	565.6	904.952
921.11	565.5	1017.65
921.21	565.4	788.753
921.31	565.3	948.973
921.41	565.2	842.478
921.51	565.1	851.882
921.61	565	732.198
921.71	564.9	725.928
921.81	564.8	740.171
921.91	564.7	902.755
922.01	564.6	795.824
922.11	564.5	1001.35
922.21	564.4	789.258
922.31	564.3	842.566
922.41	564.2	767.058
922.51	564.1	786.149
922.61	564	734.196
922.71	563.9	818.128
922.81	563.8	618.044
922.91	563.7	827.844
923.01	563.6	647.543
923.11	563.5	690.855
923.21	563.4	649.323
923.31	563.3	597.49
923.41	563.2	536.184
923.51	563.1	617.791
923.61	563	578.64
923.71	562.9	553.444
923.81	562.8	496.718
923.91	562.7	619.192
924.01	562.6	592.535
924.11	562.5	626.348
924.21	562.4	579.289
924.31	562.3	511.7
924.41	562.2	488.681
924.51	562.1	505.389
924.61	562	428.525
924.71	561.9	464.144
924.81	561.8	498.834
924.91	561.7	409.723
925.01	561.6	383.824
925.11	561.5	290.41
925.21	561.4	304.966
925.31	561.3	338.635
925.41	561.2	262.317
925.51	561.1	455.912
925.61	561	468.777
925.71	560.9	353.083
925.81	560.8	225.259
925.91	560.7	322.392
926.01	560.6	354.808
926.11	560.5	431.466
926.21	560.4	290.266
926.31	560.3	402.85
926.41	560.2	452.318
926.51	560.1	230.527
926.61	560	270.479
926.71	559.9	307.957
926.81	559.8	286.134
926.91	559.7	361.595
927.01	559.6	367.998
927.11	559.5	479.114
927.21	559.4	336.414
927.31	559.3	395.028
927.41	559.2	374.825
927.51	559.1	414.493
927.61	559	404.187
927.71	558.9	528.595
927.81	558.8	418.645
927.91	558.7	302.321
928.01	558.6	338.439
928.11	558.5	371.17
928.21	558.4	307.357
928.31	558.3	364.571
928.41	558.2	301.984
928.51	558.1	207.381
928.61	558	119.505
928.71	557.9	255.657
928.81	557.8	425.45
928.91	557.7	414.899
929.01	557.6	403.561
929.11	557.5	293.208
929.21	557.4	273.339
929.31	557.3	195.368
929.41	557.2	227.825
929.51	557.1	212.981
929.61	557	110.849
929.71	556.9	253.759
929.81	556.8	260.725
929.91	556.7	268.361
930.01	556.6	363.982
930.11	556.5	399.901
930.21	556.4	227.047
930.31	556.3	267.007
930.41	556.2	340.408
930.51	556.1	322.936
930.61	556	261.492
930.71	555.9	197.604
930.81	555.8	211.585
930.91	555.7	158.109
931.01	555.6	205.774
931.11	555.5	187.823
931.21	555.4	215.071
931.31	555.3	332.618
931.41	555.2	211.721
931.51	555.1	259.794
931.61	555	260.18
931.71	554.9	314.85
931.81	554.8	284.377
931.91	554.7	251.687
932.01	554.6	138.111
932.11	554.5	182.748
932.21	554.4	127.898
932.31	554.3	168.218
932.41	554.2	296.909
932.51	554.1	293.412
932.61	554	355.571
932.71	553.9	185.658
932.81	553.8	217.401
932.91	553.7	245.313
933.01	553.6	166.282
933.11	553.5	281.264
933.21	553.4	302.773
933.31	553.3	229.181
933.41	553.2	205.117
933.51	553.1	207.794
933.61	553	88.1693
933.71	552.9	225.687
933.81	552.8	280.832
933.91	552.7	310.232
934.01	552.6	282.96
934.11	552.5	245.859
934.21	552.4	188.642
934.31	552.3	143.266
934.41	552.2	122.418
934.51	552.1	106.798
934.61	552	99.3187
934.71	551.9	51.0243
934.81	551.8	182.486
934.91	551.7	61.0319
935.01	551.6	52.7482
935.11	551.5	118.135
935.21	551.4	71.6631
935.31	551.3	-4.59548
935.41	551.2	98.5733
935.51	551.1	268.741
935.61	551	190.879
935.71	550.9	154.644
935.81	550.8	232.694
935.91	550.7	198.129
936.01	550.6	104.662
936.11	550.5	96.4371
936.21	550.4	84.0539
936.31	550.3	237.227
936.41	550.2	157.341
936.51	550.1	171.783
936.61	550	239.338
936.71	549.9	91.6778
936.81	549.8	99.5163
936.91	549.7	144.239
937.01	549.6	247.219
937.11	549.5	103.697
937.21	549.4	138.559
937.31	549.3	183.092
937.41	549.2	127.367
937.51	549.1	12.5403
937.61	549	69.3413
937.71	548.9	128.556
937.81	548.8	255.026
937.91	548.7	142.766
938.01	548.6	176.62
938.11	548.5	265.558
938.21	548.4	200.881
938.31	548.3	95.6604
938.41	548.2	111.581
938.51	548.1	110.787
938.61	548	125.334
938.71	547.9	48.6798
938.81	547.8	63.3391
938.91	547.7	221.869
939.01	547.6	237.169
939.11	547.5	93.3105
939.21	547.4	164.394
939.31	547.3	143.834
939.41	547.2	148.887
939.51	547.1	87.6098
939.61	547	38.6462
939.71	546.9	8.45302
939.81	546.8	42.7159
939.91	546.7	112.621
940.01	546.6	122.896
940.11	546.5	136.97
940.21	546.4	122.543
940.31	546.3	126.486
940.41	546.2	-16.6718
940.51	546.1	240.227
940.61	546	144.795
940.71	545.9	98.1059
940.81	545.8	103.873
940.91	545.7	42.6669
941.01	545.6	101.931
941.11	545.5	-85.1049
941.21	545.4	-24.0852
941.31	545.3	73.6335
941.41	545.2	182.551
941.51	545.1	84.1535
941.61	545	131.298
941.71	544.9	116.884
941.81	544.8	63.0688
941.91	544.7	110.667
942.01	544.6	-140.864
942.11	544.5	97.8178
942.21	544.4	63.4273
942.31	544.3	153.579
942.41	544.2	183.143
942.51	544.1	188.464
942.61	544	154.984
942.71	543.9	122.532
942.81	543.8	-83.1934
942.91	543.7	17.7806
943.01	543.6	115.282
943.11	543.5	100.897
943.21	543.4	187.84
943.31	543.3	65.2811
943.41	543.2	142.822
943.51	543.1	160.418
943.61	543	178.857
943.71	542.9	22.1231
943.81	542.8	65.4884
943.91	542.7	167.324
944.01	542.6	66.7016
944.11	542.5	67.0925
944.21	542.4	149.797
944.31	542.3	48.2143
944.41	542.2	-28.1405
944.51	542.1	66.0609
944.61	542	42.6613
944.71	541.9	71.9322
944.81	541.8	181.402
944.91	541.7	363.857
945.01	541.6	202.625
945.11	541.5	131.935
945.21	541.4	93.5726
945.31	541.3	25.9807
945.41	541.2	232.674
945.51	541.1	223.823
945.61	541	11.8852
945.71	540.9	248.818
945.81	540.8	183.107
945.91	540.7	-30.6043
946.01	540.6	16.083
946.11	540.5	112.669
946.21	540.4	168.584
946.31	540.3	167.768
946.41	540.2	112.28
946.51	540.1	18.8204
946.61	540	-41.9691
946.71	539.9	85.2976
946.81	539.8	0.663465
946.91	539.7	80.8284
947.01	539.6	81.3353
947.11	539.5	231.984
947.21	539.4	-2.86791
947.31	539.3	166.193
947.41	539.2	22.8111
947.51	539.1	187.928
947.61	539	-31.6564
947.71	538.9	51.6443
947.81	538.8	-1.47014
947.91	538.7	51.3574
948.01	538.6	-16.7446
948.11	538.5	94.2526
948.21	538.4	97.6775
948.31	538.3	36.6873
948.41	538.2	98.9962
948.51	538.1	50.4756
948.61	538	-7.90292
948.71	537.9	159.218
948.81	537.8	134.052
948.91	537.7	196.456
949.01	537.6	244.66
949.11	537.5	241.42
949.21	537.4	166.736
949.31	537.3	224.138
949.41	537.2	160.152
949.51	537.1	192.123
949.61	537	213.522
949.71	536.9	137.42
949.81	536.8	238.446
949.91	536.7	119.028
950.01	536.6	212.966
950.11	536.5	6.87464
950.21	536.4	248.254
950.31	536.3	111.89
950.41	536.2	93.7963
950.51	536.1	60.5876
950.61	536	136.207
950.71	535.9	66.0964
950.81	535.8	23.8138
950.91	535.7	80.959
951.01	535.6	91.8891
951.11	535.5	174.076
951.21	535.4	-28.8673
951.31	535.3	-19.3967
951.41	535.2	-3.39836
951.51	535.1	124.799
951.61	535	179.253
951.71	534.9	189.678
951.81	534.8	186.13
951.91	534.7	185.11
952.01	534.6	275.875
952.11	534.5	132.968
952.21	534.4	188.475
952.31	534.3	274.394
952.41	534.2	289.399
952.51	534.1	246.289
952.61	534	423.421
952.71	533.9	181.952
952.81	533.8	148.425
952.91	533.7	290.941
953.01	533.6	232.541
953.11	533.5	298.269
953.21	533.4	239.653
953.31	533.3	233.851
953.41	533.2	354.077
953.51	533.1	169.217
953.61	533	264.669
953.71	532.9	319.907
953.81	532.8	342.587
953.91	532.7	247.681
954.01	532.6	357.445
954.11	532.5	406.937
954.21	532.4	377.286
954.31	532.3	326.648
954.41	532.2	248.609
954.51	532.1	262.541
954.61	532	293.73
954.71	531.9	361.917
954.81	531.8	335.219
954.91	531.7	106.719
955.01	531.6	104.805
955.11	531.5	317.404
955.21	531.4	377.017
955.31	531.3	302.886
955.41	531.2	339.34
955.51	531.1	400.865
955.61	531	590.147
955.71	530.9	455.842
955.81	530.8	438.864
955.91	530.7	376.229
956.01	530.6	236.222
956.11	530.5	237.372
956.21	530.4	215.177
956.31	530.3	233.654
956.41	530.2	149.473
956.51	530.1	107.919
956.61	530	-42.5061
956.71	529.9	-84.2465
956.81	529.8	74.841
956.91	529.7	49.8135
957.01	529.6	33.4711
957.11	529.5	77.2423
957.21	529.4	116.041
957.31	529.3	25.3113
957.41	529.2	-100.805
957.51	529.1	-121.537
957.61	529	73.0599
957.71	528.9	-6.58715
957.81	528.8	-15.492
957.91	528.7	-19.2688
958.01	528.6	-39.4464
958.11	528.5	-16.0245
958.21	528.4	162.597
958.31	528.3	109.717
958.41	528.2	55.6515
958.51	528.1	-48.9721
958.61	528	62.718
958.71	527.9	90.2075
958.81	527.8	44.6535
958.91	527.7	57.9131
959.01	527.6	125.501
959.11	527.5	218.173
959.21	527.4	-23.6259
959.31	527.3	34.2884
959.41	527.2	-17.2978
959.51	527.1	-85.1133
959.61	527	8.95636
959.71	526.9	190.725
959.81	526.8	159.037
959.91	526.7	88.9903
960.01	526.6	119.972
960.11	526.5	18.0528
960.21	526.4	9.4617
960.31	526.3	98.7415
960.41	526.2	-3.65078
960.51	526.1	25.6564
960.61	526	-87.0799
960.71	525.9	-147.845
960.81	525.8	-131.854
960.91	525.7	8.25067
961.01	525.6	30.4121
961.11	525.5	-102.056
961.21	525.4	-156.338
961.31	525.3	92.6215
961.41	525.2	-111.491
961.51	525.1	-10.8751
961.61	525	35.8401
961.71	524.9	3.18328
961.81	524.8	20.0259
961.91	524.7	-107.503
962.01	524.6	-15.0476
962.11	524.5	112.536
962.21	524.4	91.4052
962.31	524.3	3.40222
962.41	524.2	175.513
962.51	524.1	171.438
962.61	524	1.6615
962.71	523.9	6.5278
962.81	523.8	146.322
962.91	523.7	34.4588
963.01	523.6	90.2664
963.11	523.5	33.5877
963.21	523.4	-76.0058
963.31	523.3	-44.1998
963.41	523.2	-45.1371
963.51	523.1	30.6536
963.61	523	128.101
963.71	522.9	51.7477
963.81	522.8	67.994
963.91	522.7	7.4826
964.01	522.6	-10.2293
964.11	522.5	139.301
964.21	522.4	199.174
964.31	522.3	-63.9679
964.41	522.2	-30.0532
964.51	522.1	-40.5389
964.61	522	3.90336
964.71	521.9	91.9737
964.81	521.8	124.086
964.91	521.7	100.213
965.01	521.6	-16.5894
965.11	521.5	126.879
965.21	521.4	109.904
965.31	521.3	50.2145
965.41	521.2	151.867
965.51	521.1	4.36234
965.61	521	133.628
965.71	520.9	112.351
965.81	520.8	55.8449
965.91	520.7	59.9382
966.01	520.6	-17.7976
966.11	520.5	-17.2338
966.21	520.4	-72.0276
966.31	520.3	120.45
966.41	520.2	-64.2594
966.51	520.1	219.531
966.61	520	-115.393
966.71	519.9	72.1823
966.81	519.8	-0.485618
966.91	519.7	119.475
967.01	519.6	83.3344
967.11	519.5	72.3937
967.21	519.4	124.138
967.31	519.3	151.311
967.41	519.2	83.0263
967.51	519.1	122.013
967.61	519	-4.84457
967.71	518.9	-5.30206
967.81	518.8	-40.1743
967.91	518.7	22.5531
968.01	518.6	183.394
968.11	518.5	124.921
968.21	518.4	31.6614
968.31	518.3	120.73
968.41	518.2	58.3982
968.51	518.1	-27.5769
968.61	518	-115.309
968.71	517.9	-68.3282
968.81	517.8	-7.56157
968.91	517.7	79.9761
969.01	517.6	43.4419
969.11	517.5	40.8788
969.21	517.4	64.4724
969.31	517.3	-4.69151
969.41	517.2	182.13
969.51	517.1	-77.8062
969.61	517	-6.52834
969.71	516.9	-11.308
969.81	516.8	149.098
969.91	516.7	-43.34
970.01	516.6	35.6792
970.11	516.5	-87.7734
970.21	516.4	-30.6978
970.31	516.3	-15.8082
970.41	516.2	42.8238
970.51	516.1	164.884
970.61	516	13.4011
970.71	515.9	144.618
970.81	515.8	37.5341
970.91	515.7	-34.407
971.01	515.6	-35.3628
971.11	515.5	-62.6046
971.21	515.4	118.725
971.31	515.3	115.411
971.41	515.2	149.954
971.51	515.1	-70.6325
971.61	515	-128.833
971.71	514.9	-52.2484
971.81	514.8	-95.9354
971.91	514.7	-207.294
972.01	514.6	-23.3675
972.11	514.5	-73.927
972.21	514.4	-29.9724
972.31	514.3	93.7818
972.41	514.2	-93.5214
972.51	514.1	90.2465
972.61	514	67.2856
972.71	513.9	28.8814
972.81	513.8	45.1199
972.91	513.7	187.115
973.01	513.6	130.767
973.11	513.5	4.57619
973.21	513.4	-100.829
973.31	513.3	17.3932
973.41	513.2	39.0299
973.51	513.1	119.266
973.61	513	34.2595
973.71	512.9	-44.1333
973.81	512.8	-11.7978
973.91	512.7	-33.0197
974.01	512.6	42.901
974.11	512.5	24.25
974.21	512.4	43.5844
974.31	512.3	16.5043
974.41	512.2	165.281
974.51	512.1	-25.6425
974.61	512	97.7337
974.71	511.9	63.9525
974.81	511.8	42.3997
974.91	511.7	-110.639
975.01	511.6	-97.5211
975.11	511.5	-174.118
975.21	511.4	220.386
975.31	511.3	-8.22559
975.41	511.2	-7.95138
975.51	511.1	-116.249
975.61	511	-145.961
975.71	510.9	-93.3302
975.81	510.8	-42.8855
975.91	510.7	-37.1125
976.01	510.6	-61.1254
976.11	510.5	-63.0957
976.21	510.4	24.891
976.31	510.3	-106.337
976.41	510.2	-296.508
976.51	510.1	63.1067
976.61	510	-94.4647
976.71	509.9	-21.6506
976.81	509.8	-20.8224
976.91	509.7	-3.09441
977.01	509.6	-92.7238
977.11	509.5	-20.5391
977.21	509.4	65.3597
977.31	509.3	-42.6988
977.41	509.2	67.5567
977.51	509.1	113.126
977.61	509	209.824
977.71	508.9	-104.392
977.81	508.8	-179.766
977.91	508.7	-40.6541
978.01	508.6	118.215
978.11	508.5	33.7259
978.21	508.4	59.7943
978.31	508.3	216.62
978.41	508.2	95.3304
978.51	508.1	88.6125
978.61	508	-47.877
978.71	507.9	138.362
978.81	507.8	146.643
978.91	507.7	43.0963
979.01	507.6	36.9205
979.11	507.5	174.587
979.21	507.4	-1.34604
979.31	507.3	167.778
979.41	507.2	111.544
979.51	507.1	-36.1898
979.61	507	-89.3666
979.71	506.9	-46.0007
979.81	506.8	25.3223
979.91	506.7	-3.38352
980.01	506.6	-70.7894
980.11	506.5	52.6474
980.21	506.4	94.2412
980.31	506.3	-65.0223
980.41	506.2	-69.1573
980.51	506.1	-116.95
980.61	506	-192.856
980.71	505.9	-65.6489
980.81	505.8	-15.4129
980.91	505.7	-85.42
981.01	505.6	-2.0986
981.11	505.5	122.723
981.21	505.4	181.244
981.31	505.3	143.122
981.41	505.2	153.686
981.51	505.1	181.821
981.61	505	122.399
981.71	504.9	64.8196
981.81	504.8	-50.6884
981.91	504.7	6.96062
982.01	504.6	33.1953
982.11	504.5	-157.356
982.21	504.4	55.2072
982.31	504.3	46.9845
982.41	504.2	-36.9241
982.51	504.1	113.139
982.61	504	-9.85568
982.71	503.9	127.907
982.81	503.8	279.798
982.91	503.7	124.003
983.01	503.6	-73.9341
983.11	503.5	46.8283
983.21	503.4	205.148
983.31	503.3	33.6386
983.41	503.2	8.28649
983.51	503.1	26.7201
983.61	503	-8.87501
983.71	502.9	-109.599
983.81	502.8	227.163
983.91	502.7	15.7109
984.01	502.6	10.3157
984.11	502.5	188.263
984.21	502.4	-36.5607
984.31	502.3	103.272
984.41	502.2	-6.29438
984.51	502.1	-23.1756
984.61	502	74.0718
984.71	501.9	-42.3666
984.81	501.8	-16.9335
984.91	501.7	19.028
985.01	501.6	77.161
985.11	501.5	98.5225
985.21	501.4	-37.5588
985.31	501.3	-52.9973
985.41	501.2	131.507
985.51	501.1	178.226
985.61	501	71.6014
985.71	500.9	95.0485
985.81	500.8	-152.676
985.91	500.7	0
986.01	500.6	0
986.11	500.5	0
986.21	500.4	0
986.31	500.3	0
986.41	500.2	0
986.51	500.1	0
986.61	500	0