c:\users\mark\owncloud\muelheim group\projects\gas phase background\ex340_cec356_ag he largearea.vms
Pr:Ag3p
	Characteristic Energy eV	1486.61	Acquisition Time s	2.9
KE_Pr:Ag3p	BE_Pr:Ag3p	CPS_Pr:Ag3p
686.61	800	2767.81
686.71	799.9	2799.48
686.81	799.8	2767.91
686.91	799.7	2783
687.01	799.6	2826.67
687.11	799.5	2845.34
687.21	799.4	2817.74
687.31	799.3	2782.38
687.41	799.2	2731.98
687.51	799.1	2793.65
687.61	799	2809.43
687.71	798.9	2799.38
687.81	798.8	2813.64
687.91	798.7	2783.83
688.01	798.6	2861.88
688.11	798.5	2804.93
688.21	798.4	2791.29
688.31	798.3	2817.45
688.41	798.2	2805.02
688.51	798.1	2892.89
688.61	798	2814.15
688.71	797.9	2800.65
688.81	797.8	2869.26
688.91	797.7	2875.76
689.01	797.6	2830.43
689.11	797.5	2884.96
689.21	797.4	2842.74
689.31	797.3	2910.48
689.41	797.2	2838.36
689.51	797.1	2870.03
689.61	797	2868.46
689.71	796.9	2928.17
689.81	796.8	2865.63
689.91	796.7	2815.51
690.01	796.6	2849.94
690.11	796.5	2891.93
690.21	796.4	2843.39
690.31	796.3	2878.65
690.41	796.2	2844.6
690.51	796.1	2837.96
690.61	796	2819.39
690.71	795.9	2851.92
690.81	795.8	2791.94
690.91	795.7	2920.47
691.01	795.6	2825.11
691.11	795.5	2839.2
691.21	795.4	2794.77
691.31	795.3	2807.92
691.41	795.2	2904.18
691.51	795.1	2891.16
691.61	795	2848.21
691.71	794.9	2783.64
691.81	794.8	2893.49
691.91	794.7	2879.67
692.01	794.6	2873.69
692.11	794.5	2861.19
692.21	794.4	2860.14
692.31	794.3	2822.84
692.41	794.2	2869.86
692.51	794.1	2890.77
692.61	794	2867.58
692.71	793.9	2780.77
692.81	793.8	2862.58
692.91	793.7	2902.39
693.01	793.6	2846.92
693.11	793.5	2894.98
693.21	793.4	2966.34
693.31	793.3	2868.21
693.41	793.2	2861.23
693.51	793.1	2904.59
693.61	793	2922.4
693.71	792.9	2900.38
693.81	792.8	2781.02
693.91	792.7	2805.79
694.01	792.6	2826.95
694.11	792.5	2825.31
694.21	792.4	2854.08
694.31	792.3	2845.1
694.41	792.2	2866.87
694.51	792.1	2870.03
694.61	792	2930.91
694.71	791.9	2939.71
694.81	791.8	2927.56
694.91	791.7	2851.33
695.01	791.6	2841.93
695.11	791.5	2925.95
695.21	791.4	2989.93
695.31	791.3	2965.91
695.41	791.2	2860.48
695.51	791.1	2907.6
695.61	791	2973.54
695.71	790.9	2905.66
695.81	790.8	2942.37
695.91	790.7	2873.28
696.01	790.6	2905.05
696.11	790.5	2938.9
696.21	790.4	2905.22
696.31	790.3	2875
696.41	790.2	2877.87
696.51	790.1	2895.68
696.61	790	2913.35
696.71	789.9	2880.68
696.81	789.8	2890.48
696.91	789.7	2871.22
697.01	789.6	2880.58
697.11	789.5	2940.84
697.21	789.4	2902.03
697.31	789.3	2895.87
697.41	789.2	2899.09
697.51	789.1	2876.69
697.61	789	2904.22
697.71	788.9	2875.38
697.81	788.8	2885.94
697.91	788.7	2949.23
698.01	788.6	2910.11
698.11	788.5	2933.81
698.21	788.4	2967.86
698.31	788.3	2932.43
698.41	788.2	2875.3
698.51	788.1	2864.94
698.61	788	2883.37
698.71	787.9	2854.52
698.81	787.8	2902.05
698.91	787.7	2966.96
699.01	787.6	2913.15
699.11	787.5	2918.23
699.21	787.4	2949.48
699.31	787.3	2928.74
699.41	787.2	2860.82
699.51	787.1	2928.77
699.61	787	2994.19
699.71	786.9	2955.76
699.81	786.8	2973.84
699.91	786.7	2987.92
700.01	786.6	2936.01
700.11	786.5	2857.92
700.21	786.4	2900.79
700.31	786.3	2886.56
700.41	786.2	2857.3
700.51	786.1	2919.83
700.61	786	2949.26
700.71	785.9	2991.79
700.81	785.8	3009.87
700.91	785.7	2923.54
701.01	785.6	2907.41
701.11	785.5	2992.25
701.21	785.4	2956.64
701.31	785.3	3004.17
701.41	785.2	2918.39
701.51	785.1	2962.54
701.61	785	2973.07
701.71	784.9	2902.22
701.81	784.8	2899.31
701.91	784.7	2940.7
702.01	784.6	2891.4
702.11	784.5	2892.86
702.21	784.4	2908.08
702.31	784.3	2941.05
702.41	784.2	2975.83
702.51	784.1	2989.29
702.61	784	2973.85
702.71	783.9	2971.9
702.81	783.8	2993.08
702.91	783.7	2982.64
703.01	783.6	3021.96
703.11	783.5	3004.87
703.21	783.4	3015.3
703.31	783.3	3006.86
703.41	783.2	2938.11
703.51	783.1	2961.26
703.61	783	3019.38
703.71	782.9	3006.11
703.81	782.8	3000.36
703.91	782.7	2970.34
704.01	782.6	2984.63
704.11	782.5	2932.29
704.21	782.4	2933.96
704.31	782.3	2986.42
704.41	782.2	3055.84
704.51	782.1	3008.75
704.61	782	2933.41
704.71	781.9	3048.73
704.81	781.8	2937.23
704.91	781.7	2975.93
705.01	781.6	3078.11
705.11	781.5	2911.43
705.21	781.4	2908.02
705.31	781.3	2995.45
705.41	781.2	2983.94
705.51	781.1	3033.43
705.61	781	2983.13
705.71	780.9	2941.38
705.81	780.8	2972.18
705.91	780.7	3003.54
706.01	780.6	2961.62
706.11	780.5	2941.07
706.21	780.4	3017.67
706.31	780.3	2983.16
706.41	780.2	2918.38
706.51	780.1	2983.21
706.61	780	3031.15
706.71	779.9	3049.95
706.81	779.8	3003.69
706.91	779.7	3074.11
707.01	779.6	3042.88
707.11	779.5	3053.5
707.21	779.4	3026.03
707.31	779.3	3055.93
707.41	779.2	3005.11
707.51	779.1	2988.05
707.61	779	3079.58
707.71	778.9	3026.21
707.81	778.8	3002.01
707.91	778.7	3043.7
708.01	778.6	3015.47
708.11	778.5	2998.72
708.21	778.4	2918.55
708.31	778.3	3027.11
708.41	778.2	3030.46
708.51	778.1	3046.47
708.61	778	3024.2
708.71	777.9	3022.52
708.81	777.8	3047.22
708.91	777.7	2974.6
709.01	777.6	2989.44
709.11	777.5	2981.82
709.21	777.4	3030.28
709.31	777.3	3067.49
709.41	777.2	2930.08
709.51	777.1	3050.88
709.61	777	2985.85
709.71	776.9	3072.96
709.81	776.8	3060.24
709.91	776.7	2994.11
710.01	776.6	2983.77
710.11	776.5	3060.29
710.21	776.4	3052.33
710.31	776.3	3149.41
710.41	776.2	3082.2
710.51	776.1	3046.31
710.61	776	2990.28
710.71	775.9	2989.94
710.81	775.8	3058.15
710.91	775.7	2999.57
711.01	775.6	3005.72
711.11	775.5	3082.06
711.21	775.4	3143.48
711.31	775.3	3098.52
711.41	775.2	3111.11
711.51	775.1	3044.87
711.61	775	3012.98
711.71	774.9	3082.98
711.81	774.8	3073.33
711.91	774.7	3100.78
712.01	774.6	3082.96
712.11	774.5	3011.21
712.21	774.4	3022
712.31	774.3	3036.31
712.41	774.2	3039.11
712.51	774.1	3039.39
712.61	774	2994.39
712.71	773.9	3081.46
712.81	773.8	3098.85
712.91	773.7	3076.23
713.01	773.6	3018.61
713.11	773.5	3020.51
713.21	773.4	3041.23
713.31	773.3	3007.89
713.41	773.2	3034.86
713.51	773.1	3009.07
713.61	773	3042.93
713.71	772.9	3027.72
713.81	772.8	3067.83
713.91	772.7	3075.11
714.01	772.6	3081.21
714.11	772.5	3094.63
714.21	772.4	3133.63
714.31	772.3	3033.77
714.41	772.2	3036.52
714.51	772.1	3133.49
714.61	772	3118.97
714.71	771.9	3020.56
714.81	771.8	3049.28
714.91	771.7	3049.53
715.01	771.6	2995.91
715.11	771.5	3040.9
715.21	771.4	3075.77
715.31	771.3	3081.35
715.41	771.2	3053.39
715.51	771.1	3057.28
715.61	771	3068.28
715.71	770.9	3163
715.81	770.8	3119.35
715.91	770.7	3099.17
716.01	770.6	3049.31
716.11	770.5	3099.52
716.21	770.4	3152.93
716.31	770.3	3088.79
716.41	770.2	3061.79
716.51	770.1	3115.34
716.61	770	3122.58
716.71	769.9	3066.33
716.81	769.8	3069.12
716.91	769.7	3104.95
717.01	769.6	3091.91
717.11	769.5	3036.87
717.21	769.4	2994.15
717.31	769.3	3041.04
717.41	769.2	3097.42
717.51	769.1	3124
717.61	769	3125.51
717.71	768.9	3054.82
717.81	768.8	3060.68
717.91	768.7	3057.23
718.01	768.6	3195.22
718.11	768.5	3096.7
718.21	768.4	3081.21
718.31	768.3	3184.28
718.41	768.2	3088.52
718.51	768.1	3120.27
718.61	768	3162.71
718.71	767.9	3082.5
718.81	767.8	3169.19
718.91	767.7	3155.46
719.01	767.6	3156.18
719.11	767.5	3065.38
719.21	767.4	3155.47
719.31	767.3	3142.74
719.41	767.2	3141.5
719.51	767.1	3188.39
719.61	767	3104.8
719.71	766.9	3113.89
719.81	766.8	3144.44
719.91	766.7	3172.67
720.01	766.6	3104.15
720.11	766.5	3148.76
720.21	766.4	3142.45
720.31	766.3	3103.44
720.41	766.2	3092.26
720.51	766.1	3193.25
720.61	766	3159.62
720.71	765.9	3120.03
720.81	765.8	3127.71
720.91	765.7	3205.36
721.01	765.6	3161.9
721.11	765.5	3115.03
721.21	765.4	3180.99
721.31	765.3	3155.67
721.41	765.2	3140.18
721.51	765.1	3063.69
721.61	765	3157.02
721.71	764.9	3200.12
721.81	764.8	3139.35
721.91	764.7	3171.34
722.01	764.6	3146.22
722.11	764.5	3091.18
722.21	764.4	3105.03
722.31	764.3	3191.47
722.41	764.2	3215.49
722.51	764.1	3111.35
722.61	764	3128.23
722.71	763.9	3232.53
722.81	763.8	3207.8
722.91	763.7	3192.34
723.01	763.6	3127.36
723.11	763.5	3168.59
723.21	763.4	3202.72
723.31	763.3	3187.36
723.41	763.2	3185.93
723.51	763.1	3114.92
723.61	763	3159.29
723.71	762.9	3141.17
723.81	762.8	3128.47
723.91	762.7	3235.8
724.01	762.6	3168
724.11	762.5	3188.09
724.21	762.4	3177.28
724.31	762.3	3139.86
724.41	762.2	3133.57
724.51	762.1	3181.62
724.61	762	3152.47
724.71	761.9	3117.52
724.81	761.8	3136.03
724.91	761.7	3156.36
725.01	761.6	3281.27
725.11	761.5	3150.67
725.21	761.4	3141.11
725.31	761.3	3136.78
725.41	761.2	3155.25
725.51	761.1	3166.96
725.61	761	3168.22
725.71	760.9	3158.38
725.81	760.8	3164.5
725.91	760.7	3171.34
726.01	760.6	3145.6
726.11	760.5	3214
726.21	760.4	3205.4
726.31	760.3	3183.66
726.41	760.2	3175.78
726.51	760.1	3188.31
726.61	760	3155.81
726.71	759.9	3070.69
726.81	759.8	3166.12
726.91	759.7	3201.18
727.01	759.6	3153.88
727.11	759.5	3222.73
727.21	759.4	3180.33
727.31	759.3	3163.17
727.41	759.2	3256.02
727.51	759.1	3178.07
727.61	759	3225.67
727.71	758.9	3209.58
727.81	758.8	3224.01
727.91	758.7	3211.54
728.01	758.6	3202.49
728.11	758.5	3177.64
728.21	758.4	3161.62
728.31	758.3	3212.77
728.41	758.2	3198.68
728.51	758.1	3151.28
728.61	758	3174.5
728.71	757.9	3176.38
728.81	757.8	3237.43
728.91	757.7	3239.44
729.01	757.6	3206.9
729.11	757.5	3181.57
729.21	757.4	3240.65
729.31	757.3	3293.63
729.41	757.2	3204.95
729.51	757.1	3213.59
729.61	757	3178.36
729.71	756.9	3243.13
729.81	756.8	3187.55
729.91	756.7	3226.49
730.01	756.6	3180.99
730.11	756.5	3176.86
730.21	756.4	3207.8
730.31	756.3	3227.92
730.41	756.2	3217.07
730.51	756.1	3169.9
730.61	756	3206.43
730.71	755.9	3233.79
730.81	755.8	3139
730.91	755.7	3220.63
731.01	755.6	3275.68
731.11	755.5	3213.48
731.21	755.4	3243.45
731.31	755.3	3253.57
731.41	755.2	3281.37
731.51	755.1	3213.24
731.61	755	3295.38
731.71	754.9	3227.01
731.81	754.8	3242.75
731.91	754.7	3321.72
732.01	754.6	3257.79
732.11	754.5	3269.11
732.21	754.4	3241.77
732.31	754.3	3263.99
732.41	754.2	3238.03
732.51	754.1	3224.28
732.61	754	3279.08
732.71	753.9	3253.19
732.81	753.8	3297.71
732.91	753.7	3248.58
733.01	753.6	3214.65
733.11	753.5	3317
733.21	753.4	3307.49
733.31	753.3	3238.22
733.41	753.2	3259.02
733.51	753.1	3187.54
733.61	753	3266.2
733.71	752.9	3304.72
733.81	752.8	3177.14
733.91	752.7	3291.45
734.01	752.6	3196.01
734.11	752.5	3249.59
734.21	752.4	3266.63
734.31	752.3	3204.74
734.41	752.2	3223.09
734.51	752.1	3318.64
734.61	752	3356.47
734.71	751.9	3246.92
734.81	751.8	3314.89
734.91	751.7	3367.65
735.01	751.6	3384.58
735.11	751.5	3285.86
735.21	751.4	3319.38
735.31	751.3	3315.31
735.41	751.2	3323.27
735.51	751.1	3331.96
735.61	751	3337.21
735.71	750.9	3274.62
735.81	750.8	3284.86
735.91	750.7	3239.58
736.01	750.6	3317.24
736.11	750.5	3336.96
736.21	750.4	3290.13
736.31	750.3	3273.44
736.41	750.2	3340.51
736.51	750.1	3273.96
736.61	750	3238.68
736.71	749.9	3308.74
736.81	749.8	3394.95
736.91	749.7	3260.95
737.01	749.6	3295.63
737.11	749.5	3387.29
737.21	749.4	3264.59
737.31	749.3	3337.11
737.41	749.2	3347.76
737.51	749.1	3364.75
737.61	749	3334.68
737.71	748.9	3290.37
737.81	748.8	3352.4
737.91	748.7	3337.53
738.01	748.6	3295.94
738.11	748.5	3311.38
738.21	748.4	3405.1
738.31	748.3	3409.85
738.41	748.2	3331.74
738.51	748.1	3400.05
738.61	748	3336.45
738.71	747.9	3340.1
738.81	747.8	3375.2
738.91	747.7	3345.47
739.01	747.6	3326.67
739.11	747.5	3377.32
739.21	747.4	3334.52
739.31	747.3	3303.23
739.41	747.2	3329.88
739.51	747.1	3377.11
739.61	747	3304.9
739.71	746.9	3336.92
739.81	746.8	3299.91
739.91	746.7	3382.63
740.01	746.6	3422.76
740.11	746.5	3364.4
740.21	746.4	3358.5
740.31	746.3	3483.17
740.41	746.2	3418.99
740.51	746.1	3382.39
740.61	746	3417.94
740.71	745.9	3327.3
740.81	745.8	3366.19
740.91	745.7	3325.11
741.01	745.6	3387.61
741.11	745.5	3417.33
741.21	745.4	3429.93
741.31	745.3	3384.2
741.41	745.2	3393.94
741.51	745.1	3364.86
741.61	745	3432.85
741.71	744.9	3525.25
741.81	744.8	3460.44
741.91	744.7	3344.7
742.01	744.6	3413.1
742.11	744.5	3411.09
742.21	744.4	3444.56
742.31	744.3	3389.89
742.41	744.2	3386.18
742.51	744.1	3366.72
742.61	744	3408.46
742.71	743.9	3341.31
742.81	743.8	3408.12
742.91	743.7	3356.07
743.01	743.6	3367.71
743.11	743.5	3390.79
743.21	743.4	3399.5
743.31	743.3	3471
743.41	743.2	3453.74
743.51	743.1	3474.86
743.61	743	3463.43
743.71	742.9	3449.41
743.81	742.8	3488.57
743.91	742.7	3415.13
744.01	742.6	3391.46
744.11	742.5	3393.85
744.21	742.4	3349.8
744.31	742.3	3447.33
744.41	742.2	3506.52
744.51	742.1	3469.15
744.61	742	3472.34
744.71	741.9	3434.94
744.81	741.8	3443.02
744.91	741.7	3377.28
745.01	741.6	3406.63
745.11	741.5	3418.75
745.21	741.4	3446.59
745.31	741.3	3457.64
745.41	741.2	3506.03
745.51	741.1	3396.73
745.61	741	3302.84
745.71	740.9	3393.89
745.81	740.8	3377.14
745.91	740.7	3377.88
746.01	740.6	3435.03
746.11	740.5	3441.73
746.21	740.4	3441.6
746.31	740.3	3460.47
746.41	740.2	3447.82
746.51	740.1	3411.45
746.61	740	3392.74
746.71	739.9	3424.09
746.81	739.8	3410.2
746.91	739.7	3431.04
747.01	739.6	3358.84
747.11	739.5	3472.4
747.21	739.4	3378.89
747.31	739.3	3435.97
747.41	739.2	3492.83
747.51	739.1	3394.74
747.61	739	3400.02
747.71	738.9	3299.54
747.81	738.8	3390.72
747.91	738.7	3443.28
748.01	738.6	3497.84
748.11	738.5	3467.46
748.21	738.4	3437.26
748.31	738.3	3420.13
748.41	738.2	3423.27
748.51	738.1	3432.51
748.61	738	3496.21
748.71	737.9	3442.38
748.81	737.8	3334.28
748.91	737.7	3405.77
749.01	737.6	3390.73
749.11	737.5	3447.7
749.21	737.4	3355.05
749.31	737.3	3436.64
749.41	737.2	3379.26
749.51	737.1	3420.19
749.61	737	3392.3
749.71	736.9	3434.88
749.81	736.8	3401.75
749.91	736.7	3420.47
750.01	736.6	3405.61
750.11	736.5	3425.71
750.21	736.4	3398.23
750.31	736.3	3396.57
750.41	736.2	3381.22
750.51	736.1	3473.09
750.61	736	3438.36
750.71	735.9	3474.01
750.81	735.8	3412.08
750.91	735.7	3328.18
751.01	735.6	3353.25
751.11	735.5	3362.69
751.21	735.4	3437.55
751.31	735.3	3421.75
751.41	735.2	3451.02
751.51	735.1	3402.71
751.61	735	3416.26
751.71	734.9	3345.22
751.81	734.8	3393.69
751.91	734.7	3412.45
752.01	734.6	3426.75
752.11	734.5	3540.99
752.21	734.4	3358.05
752.31	734.3	3396.46
752.41	734.2	3427.35
752.51	734.1	3479.27
752.61	734	3483.3
752.71	733.9	3406.22
752.81	733.8	3443.63
752.91	733.7	3431.93
753.01	733.6	3333.99
753.11	733.5	3403.5
753.21	733.4	3397.38
753.31	733.3	3363.89
753.41	733.2	3368.19
753.51	733.1	3382.35
753.61	733	3369.86
753.71	732.9	3377.71
753.81	732.8	3373.94
753.91	732.7	3404.38
754.01	732.6	3436.64
754.11	732.5	3399.18
754.21	732.4	3396.1
754.31	732.3	3496.54
754.41	732.2	3447.66
754.51	732.1	3391.27
754.61	732	3377.57
754.71	731.9	3387.42
754.81	731.8	3424.5
754.91	731.7	3494.7
755.01	731.6	3436.2
755.11	731.5	3428.01
755.21	731.4	3430.07
755.31	731.3	3413.98
755.41	731.2	3472.69
755.51	731.1	3438.64
755.61	731	3409.14
755.71	730.9	3360.54
755.81	730.8	3452.21
755.91	730.7	3373.85
756.01	730.6	3452.04
756.11	730.5	3410.19
756.21	730.4	3462.48
756.31	730.3	3510.88
756.41	730.2	3430.75
756.51	730.1	3446.56
756.61	730	3427.58
756.71	729.9	3423.73
756.81	729.8	3401.06
756.91	729.7	3385.69
757.01	729.6	3392.22
757.11	729.5	3479.06
757.21	729.4	3543.45
757.31	729.3	3499.36
757.41	729.2	3553.96
757.51	729.1	3417.04
757.61	729	3367.23
757.71	728.9	3399.55
757.81	728.8	3423.46
757.91	728.7	3436.95
758.01	728.6	3445.72
758.11	728.5	3476.73
758.21	728.4	3469.29
758.31	728.3	3479.09
758.41	728.2	3511.72
758.51	728.1	3526.59
758.61	728	3490.95
758.71	727.9	3494.16
758.81	727.8	3581.72
758.91	727.7	3591.42
759.01	727.6	3581.32
759.11	727.5	3542.5
759.21	727.4	3478.75
759.31	727.3	3551.48
759.41	727.2	3474.24
759.51	727.1	3541.28
759.61	727	3521.25
759.71	726.9	3544.57
759.81	726.8	3502.23
759.91	726.7	3520.48
760.01	726.6	3519.82
760.11	726.5	3635.83
760.21	726.4	3641.21
760.31	726.3	3497.9
760.41	726.2	3535.87
760.51	726.1	3525.84
760.61	726	3617.19
760.71	725.9	3602.7
760.81	725.8	3491.84
760.91	725.7	3528.67
761.01	725.6	3607.16
761.11	725.5	3560.81
761.21	725.4	3589.33
761.31	725.3	3632.09
761.41	725.2	3662.33
761.51	725.1	3712.7
761.61	725	3547.53
761.71	724.9	3646.36
761.81	724.8	3642.32
761.91	724.7	3630.14
762.01	724.6	3668.66
762.11	724.5	3636.48
762.21	724.4	3599.45
762.31	724.3	3715.37
762.41	724.2	3663.2
762.51	724.1	3745.4
762.61	724	3723.74
762.71	723.9	3734.08
762.81	723.8	3831.49
762.91	723.7	3719.2
763.01	723.6	3714.85
763.11	723.5	3703.74
763.21	723.4	3806.56
763.31	723.3	3776.59
763.41	723.2	3791.96
763.51	723.1	3845.92
763.61	723	3815.46
763.71	722.9	3798.45
763.81	722.8	3911.82
763.91	722.7	3928.85
764.01	722.6	3864.84
764.11	722.5	3956.24
764.21	722.4	3892.34
764.31	722.3	3972.81
764.41	722.2	3926.04
764.51	722.1	3910.34
764.61	722	3990.29
764.71	721.9	3960.11
764.81	721.8	3947.23
764.91	721.7	3896.53
765.01	721.6	3867.65
765.11	721.5	3889.09
765.21	721.4	3993.11
765.31	721.3	4003.65
765.41	721.2	4025.39
765.51	721.1	4022.58
765.61	721	4036.63
765.71	720.9	4123.52
765.81	720.8	4130.71
765.91	720.7	4123.59
766.01	720.6	4036.09
766.11	720.5	4111.14
766.21	720.4	4113.84
766.31	720.3	4151.34
766.41	720.2	4214.81
766.51	720.1	4086.41
766.61	720	4091.67
766.71	719.9	4151.16
766.81	719.8	4163.21
766.91	719.7	4171.02
767.01	719.6	4175.93
767.11	719.5	4157.7
767.21	719.4	4176.75
767.31	719.3	4213.35
767.41	719.2	4166.29
767.51	719.1	4209.48
767.61	719	4129.42
767.71	718.9	4109.26
767.81	718.8	4137.2
767.91	718.7	4201.45
768.01	718.6	4170.19
768.11	718.5	4158.95
768.21	718.4	4131.83
768.31	718.3	4095.56
768.41	718.2	4150.08
768.51	718.1	4183.02
768.61	718	4202.69
768.71	717.9	4100.69
768.81	717.8	4015.39
768.91	717.7	4005.88
769.01	717.6	3995.06
769.11	717.5	4059.44
769.21	717.4	4042.62
769.31	717.3	3976.18
769.41	717.2	4027.56
769.51	717.1	3996.02
769.61	717	4002.4
769.71	716.9	4004.4
769.81	716.8	3986.23
769.91	716.7	3975.2
770.01	716.6	3913.14
770.11	716.5	3956.79
770.21	716.4	3876.86
770.31	716.3	3897.11
770.41	716.2	3860.87
770.51	716.1	3857.52
770.61	716	3881.59
770.71	715.9	3838.66
770.81	715.8	3822.14
770.91	715.7	3799.9
771.01	715.6	3796.79
771.11	715.5	3728.03
771.21	715.4	3733.2
771.31	715.3	3663.92
771.41	715.2	3711.3
771.51	715.1	3751.3
771.61	715	3679.54
771.71	714.9	3713.15
771.81	714.8	3719.56
771.91	714.7	3624.8
772.01	714.6	3577.65
772.11	714.5	3648.65
772.21	714.4	3621.23
772.31	714.3	3641.6
772.41	714.2	3690.08
772.51	714.1	3593.62
772.61	714	3599.99
772.71	713.9	3593.36
772.81	713.8	3573.98
772.91	713.7	3501.55
773.01	713.6	3526.1
773.11	713.5	3524.4
773.21	713.4	3582.32
773.31	713.3	3512.82
773.41	713.2	3481.47
773.51	713.1	3498.97
773.61	713	3540.1
773.71	712.9	3458.02
773.81	712.8	3460.14
773.91	712.7	3420.2
774.01	712.6	3360.01
774.11	712.5	3453.96
774.21	712.4	3446.81
774.31	712.3	3359.35
774.41	712.2	3437.27
774.51	712.1	3376.25
774.61	712	3361.41
774.71	711.9	3363.84
774.81	711.8	3414.99
774.91	711.7	3377.49
775.01	711.6	3388.03
775.11	711.5	3345.67
775.21	711.4	3370.03
775.31	711.3	3317.87
775.41	711.2	3270.16
775.51	711.1	3329.42
775.61	711	3314.6
775.71	710.9	3377.93
775.81	710.8	3285.73
775.91	710.7	3368.23
776.01	710.6	3377.52
776.11	710.5	3310.12
776.21	710.4	3300.99
776.31	710.3	3254.24
776.41	710.2	3272.22
776.51	710.1	3256.85
776.61	710	3264.17
776.71	709.9	3247.46
776.81	709.8	3263.23
776.91	709.7	3284.41
777.01	709.6	3351.35
777.11	709.5	3234.91
777.21	709.4	3214.57
777.31	709.3	3209.51
777.41	709.2	3264.41
777.51	709.1	3229.18
777.61	709	3231.6
777.71	708.9	3231.81
777.81	708.8	3173.57
777.91	708.7	3146.51
778.01	708.6	3129.82
778.11	708.5	3185.96
778.21	708.4	3220.62
778.31	708.3	3237.56
778.41	708.2	3228.94
778.51	708.1	3260.91
778.61	708	3232.01
778.71	707.9	3258.53
778.81	707.8	3245.12
778.91	707.7	3225.05
779.01	707.6	3193.25
779.11	707.5	3220.53
779.21	707.4	3117.43
779.31	707.3	3205.84
779.41	707.2	3249.8
779.51	707.1	3167.87
779.61	707	3318.35
779.71	706.9	3207.45
779.81	706.8	3219.96
779.91	706.7	3167.75
780.01	706.6	3216.26
780.11	706.5	3192.47
780.21	706.4	3216.84
780.31	706.3	3160.63
780.41	706.2	3156.24
780.51	706.1	3233.79
780.61	706	3208.26
780.71	705.9	3104.98
780.81	705.8	3154.8
780.91	705.7	3153.41
781.01	705.6	3153.54
781.11	705.5	3174.22
781.21	705.4	3203.28
781.31	705.3	3203.61
781.41	705.2	3110.26
781.51	705.1	3213.45
781.61	705	3150.06
781.71	704.9	3171.39
781.81	704.8	3195.55
781.91	704.7	3155.44
782.01	704.6	3167.7
782.11	704.5	3156.62
782.21	704.4	3157.74
782.31	704.3	3117.1
782.41	704.2	3168.33
782.51	704.1	3130.56
782.61	704	3183.82
782.71	703.9	3231.04
782.81	703.8	3144.09
782.91	703.7	3177.97
783.01	703.6	3119.2
783.11	703.5	3175.87
783.21	703.4	3173.54
783.31	703.3	3133.97
783.41	703.2	3155.57
783.51	703.1	3144.03
783.61	703	3078.9
783.71	702.9	3108.23
783.81	702.8	3068.93
783.91	702.7	3174.7
784.01	702.6	3129.09
784.11	702.5	3148.86
784.21	702.4	3118.18
784.31	702.3	3171.81
784.41	702.2	3092.34
784.51	702.1	3090.63
784.61	702	3100.64
784.71	701.9	3056.92
784.81	701.8	3039.76
784.91	701.7	3088.28
785.01	701.6	3088.08
785.11	701.5	3036.47
785.21	701.4	3115.72
785.31	701.3	3164.27
785.41	701.2	3077.69
785.51	701.1	3105.08
785.61	701	3114.08
785.71	700.9	3124.98
785.81	700.8	3114.67
785.91	700.7	3126.23
786.01	700.6	3115.47
786.11	700.5	3096.23
786.21	700.4	3141.37
786.31	700.3	3082.2
786.41	700.2	3109.2
786.51	700.1	3155.44
786.61	700	3135.03
786.71	699.9	3087.51
786.81	699.8	3119.68
786.91	699.7	3195.68
787.01	699.6	3212.16
787.11	699.5	3148.57
787.21	699.4	3175.15
787.31	699.3	3170.46
787.41	699.2	3162.46
787.51	699.1	3071.42
787.61	699	3107.38
787.71	698.9	3083.75
787.81	698.8	3116.47
787.91	698.7	3170.08
788.01	698.6	3159.56
788.11	698.5	3135.65
788.21	698.4	3122.58
788.31	698.3	3152.36
788.41	698.2	3153.49
788.51	698.1	3138.51
788.61	698	3111.13
788.71	697.9	3118.74
788.81	697.8	3125.93
788.91	697.7	3113.99
789.01	697.6	3077.8
789.11	697.5	3031.45
789.21	697.4	3072.54
789.31	697.3	3132.49
789.41	697.2	3110.85
789.51	697.1	3114.53
789.61	697	3140.62
789.71	696.9	3121.08
789.81	696.8	3075.31
789.91	696.7	3053.4
790.01	696.6	3056.07
790.11	696.5	3170.36
790.21	696.4	3182.55
790.31	696.3	3137.53
790.41	696.2	3109.51
790.51	696.1	3109.49
790.61	696	3186.13
790.71	695.9	3177.38
790.81	695.8	3109.81
790.91	695.7	3113.72
791.01	695.6	3188.7
791.11	695.5	3104.85
791.21	695.4	3070.62
791.31	695.3	3155.29
791.41	695.2	3060.23
791.51	695.1	3262.68
791.61	695	3211.38
791.71	694.9	3108.5
791.81	694.8	3093.44
791.91	694.7	3118.17
792.01	694.6	3152.21
792.11	694.5	3146.84
792.21	694.4	3057.46
792.31	694.3	3062.88
792.41	694.2	3161.27
792.51	694.1	3060.45
792.61	694	3104.28
792.71	693.9	3091.83
792.81	693.8	3187.97
792.91	693.7	3098.53
793.01	693.6	3128.63
793.11	693.5	3165.5
793.21	693.4	3188.05
793.31	693.3	3121.16
793.41	693.2	3224.26
793.51	693.1	3174.29
793.61	693	3140.84
793.71	692.9	3186.7
793.81	692.8	3191.63
793.91	692.7	3091.7
794.01	692.6	3188.46
794.11	692.5	3159.76
794.21	692.4	3117.86
794.31	692.3	3173.55
794.41	692.2	3176.96
794.51	692.1	3175.33
794.61	692	3184.53
794.71	691.9	3184.32
794.81	691.8	3176.28
794.91	691.7	3146.58
795.01	691.6	3141.74
795.11	691.5	3150.01
795.21	691.4	3090.9
795.31	691.3	3156.96
795.41	691.2	3092.19
795.51	691.1	3111.21
795.61	691	3227.68
795.71	690.9	3189.64
795.81	690.8	3220.45
795.91	690.7	3169.34
796.01	690.6	3158.29
796.11	690.5	3145.9
796.21	690.4	3137.23
796.31	690.3	3153.35
796.41	690.2	3079.2
796.51	690.1	3120.87
796.61	690	3132.27
796.71	689.9	3235.94
796.81	689.8	3172.47
796.91	689.7	3221.25
797.01	689.6	3117.06
797.11	689.5	3106.69
797.21	689.4	3189.95
797.31	689.3	3194.03
797.41	689.2	3190.22
797.51	689.1	3150.64
797.61	689	3170.24
797.71	688.9	3250.01
797.81	688.8	3141.58
797.91	688.7	3183.83
798.01	688.6	3182.56
798.11	688.5	3160.3
798.21	688.4	3096.2
798.31	688.3	3191.28
798.41	688.2	3171.53
798.51	688.1	3227.23
798.61	688	3205.54
798.71	687.9	3162.93
798.81	687.8	3107.45
798.91	687.7	3108.01
799.01	687.6	3158.95
799.11	687.5	3096.47
799.21	687.4	3152.37
799.31	687.3	3177.44
799.41	687.2	3219.03
799.51	687.1	3285.31
799.61	687	3277.69
799.71	686.9	3161.62
799.81	686.8	3158.93
799.91	686.7	3125
800.01	686.6	3193
800.11	686.5	3171.65
800.21	686.4	3187.83
800.31	686.3	3235.68
800.41	686.2	3261.44
800.51	686.1	3224.75
800.61	686	3203.09
800.71	685.9	3176.15
800.81	685.8	3199.7
800.91	685.7	3146.38
801.01	685.6	3206.52
801.11	685.5	3205.78
801.21	685.4	3134.16
801.31	685.3	3183.32
801.41	685.2	3105.45
801.51	685.1	3131.99
801.61	685	3243.4
801.71	684.9	3155.66
801.81	684.8	3135.62
801.91	684.7	3250.85
802.01	684.6	3090.42
802.11	684.5	3209.58
802.21	684.4	3207.02
802.31	684.3	3241.28
802.41	684.2	3191.34
802.51	684.1	3176.56
802.61	684	3086.38
802.71	683.9	3162.91
802.81	683.8	3161.65
802.91	683.7	3192.53
803.01	683.6	3182.27
803.11	683.5	3212.67
803.21	683.4	3268.93
803.31	683.3	3168.98
803.41	683.2	3173.3
803.51	683.1	3230.28
803.61	683	3212.16
803.71	682.9	3190.55
803.81	682.8	3198.11
803.91	682.7	3182.26
804.01	682.6	3217.9
804.11	682.5	3233.08
804.21	682.4	3179.61
804.31	682.3	3179.24
804.41	682.2	3210
804.51	682.1	3191.57
804.61	682	3155.92
804.71	681.9	3201.51
804.81	681.8	3163.41
804.91	681.7	3187.28
805.01	681.6	3235.25
805.11	681.5	3219.19
805.21	681.4	3154.47
805.31	681.3	3184.44
805.41	681.2	3214.24
805.51	681.1	3175.62
805.61	681	3186.14
805.71	680.9	3244.66
805.81	680.8	3185.28
805.91	680.7	3252.55
806.01	680.6	3212.35
806.11	680.5	3188.83
806.21	680.4	3185.48
806.31	680.3	3148.34
806.41	680.2	3213.1
806.51	680.1	3159.3
806.61	680	3122.19
806.71	679.9	3210.85
806.81	679.8	3187.18
806.91	679.7	3129.97
807.01	679.6	3110.97
807.11	679.5	3153.58
807.21	679.4	3231.71
807.31	679.3	3153.53
807.41	679.2	3156.9
807.51	679.1	3187.62
807.61	679	3188.4
807.71	678.9	3140.87
807.81	678.8	3137.55
807.91	678.7	3214.13
808.01	678.6	3239.56
808.11	678.5	3183.62
808.21	678.4	3234.23
808.31	678.3	3275.7
808.41	678.2	3207.54
808.51	678.1	3253.77
808.61	678	3191.62
808.71	677.9	3210.12
808.81	677.8	3195.34
808.91	677.7	3155.4
809.01	677.6	3173.62
809.11	677.5	3272.6
809.21	677.4	3272.79
809.31	677.3	3299.56
809.41	677.2	3174.58
809.51	677.1	3243.11
809.61	677	3183.5
809.71	676.9	3199.21
809.81	676.8	3210.46
809.91	676.7	3280.89
810.01	676.6	3243.76
810.11	676.5	3293.94
810.21	676.4	3241.23
810.31	676.3	3153.24
810.41	676.2	3219.11
810.51	676.1	3190.02
810.61	676	3136.13
810.71	675.9	3239.62
810.81	675.8	3254.8
810.91	675.7	3282.01
811.01	675.6	3154.57
811.11	675.5	3233.51
811.21	675.4	3341.37
811.31	675.3	3250.96
811.41	675.2	3177.31
811.51	675.1	3167.35
811.61	675	3153.87
811.71	674.9	3164.22
811.81	674.8	3167.19
811.91	674.7	3135.84
812.01	674.6	3064.33
812.11	674.5	3232.43
812.21	674.4	3298.02
812.31	674.3	3213.81
812.41	674.2	3205.84
812.51	674.1	3319.53
812.61	674	3266.98
812.71	673.9	3204.05
812.81	673.8	3252.08
812.91	673.7	3179.14
813.01	673.6	3170.04
813.11	673.5	3305.41
813.21	673.4	3252.47
813.31	673.3	3310.12
813.41	673.2	3229.64
813.51	673.1	3268.49
813.61	673	3241.17
813.71	672.9	3300.17
813.81	672.8	3292.09
813.91	672.7	3232.84
814.01	672.6	3235.28
814.11	672.5	3260.13
814.21	672.4	3253.85
814.31	672.3	3206.46
814.41	672.2	3175
814.51	672.1	3231.2
814.61	672	3267.39
814.71	671.9	3264.34
814.81	671.8	3176.4
814.91	671.7	3195.32
815.01	671.6	3298.24
815.11	671.5	3183.22
815.21	671.4	3206.04
815.31	671.3	3215.37
815.41	671.2	3246.77
815.51	671.1	3349.61
815.61	671	3306.8
815.71	670.9	3339.92
815.81	670.8	3159.94
815.91	670.7	3234.65
816.01	670.6	3266.67
816.11	670.5	3315.2
816.21	670.4	3297.15
816.31	670.3	3275.4
816.41	670.2	3356.62
816.51	670.1	3329.78
816.61	670	3230.07
816.71	669.9	3193.01
816.81	669.8	3249.27
816.91	669.7	3267.83
817.01	669.6	3293.71
817.11	669.5	3227.85
817.21	669.4	3219.28
817.31	669.3	3252.46
817.41	669.2	3235.85
817.51	669.1	3319.59
817.61	669	3260.18
817.71	668.9	3279.37
817.81	668.8	3260.51
817.91	668.7	3269.97
818.01	668.6	3203.7
818.11	668.5	3351.71
818.21	668.4	3348.99
818.31	668.3	3230.9
818.41	668.2	3228.66
818.51	668.1	3325.67
818.61	668	3341.02
818.71	667.9	3198.85
818.81	667.8	3232.24
818.91	667.7	3322.38
819.01	667.6	3185.28
819.11	667.5	3277.87
819.21	667.4	3201.01
819.31	667.3	3232.81
819.41	667.2	3257.29
819.51	667.1	3330.67
819.61	667	3263.57
819.71	666.9	3329.13
819.81	666.8	3290.75
819.91	666.7	3266.78
820.01	666.6	3225.13
820.11	666.5	3286.06
820.21	666.4	3280.02
820.31	666.3	3184.75
820.41	666.2	3270.71
820.51	666.1	3288.88
820.61	666	3293.12
820.71	665.9	3217.77
820.81	665.8	3258.88
820.91	665.7	3217.18
821.01	665.6	3190.8
821.11	665.5	3270.83
821.21	665.4	3351.21
821.31	665.3	3375.34
821.41	665.2	3273.78
821.51	665.1	3275.19
821.61	665	3240.77
821.71	664.9	3298.59
821.81	664.8	3258.8
821.91	664.7	3234.62
822.01	664.6	3195.57
822.11	664.5	3307.53
822.21	664.4	3282.49
822.31	664.3	3161.93
822.41	664.2	3211.58
822.51	664.1	3348.81
822.61	664	3337.08
822.71	663.9	3292.86
822.81	663.8	3291.44
822.91	663.7	3279.84
823.01	663.6	3290.87
823.11	663.5	3253.06
823.21	663.4	3240.22
823.31	663.3	3276.01
823.41	663.2	3382.13
823.51	663.1	3304.64
823.61	663	3300.87
823.71	662.9	3269.79
823.81	662.8	3227.84
823.91	662.7	3297.31
824.01	662.6	3280.06
824.11	662.5	3353.42
824.21	662.4	3284.65
824.31	662.3	3235.77
824.41	662.2	3303.72
824.51	662.1	3337.09
824.61	662	3262.52
824.71	661.9	3281.51
824.81	661.8	3249.35
824.91	661.7	3253.47
825.01	661.6	3332.08
825.11	661.5	3430.65
825.21	661.4	3414.15
825.31	661.3	3340.68
825.41	661.2	3386.97
825.51	661.1	3345.34
825.61	661	3349.49
825.71	660.9	3307.2
825.81	660.8	3261.28
825.91	660.7	3301.3
826.01	660.6	3276
826.11	660.5	3332.57
826.21	660.4	3330.03
826.31	660.3	3303.46
826.41	660.2	3316.61
826.51	660.1	3309.45
826.61	660	3269.5
826.71	659.9	3289.62
826.81	659.8	3347.18
826.91	659.7	3316.81
827.01	659.6	3418.07
827.11	659.5	3384.56
827.21	659.4	3315.37
827.31	659.3	3275.76
827.41	659.2	3359.01
827.51	659.1	3361.26
827.61	659	3363.79
827.71	658.9	3336.59
827.81	658.8	3334.91
827.91	658.7	3311.86
828.01	658.6	3361.9
828.11	658.5	3336.29
828.21	658.4	3347.3
828.31	658.3	3369.48
828.41	658.2	3369.39
828.51	658.1	3289.91
828.61	658	3349.51
828.71	657.9	3336.38
828.81	657.8	3366.49
828.91	657.7	3380.87
829.01	657.6	3324.47
829.11	657.5	3388.44
829.21	657.4	3429.03
829.31	657.3	3338.83
829.41	657.2	3388.53
829.51	657.1	3361.98
829.61	657	3355.2
829.71	656.9	3327.34
829.81	656.8	3393.76
829.91	656.7	3336.35
830.01	656.6	3318.94
830.11	656.5	3357.77
830.21	656.4	3312.47
830.31	656.3	3368.44
830.41	656.2	3285.68
830.51	656.1	3292.9
830.61	656	3354.52
830.71	655.9	3382.39
830.81	655.8	3373.04
830.91	655.7	3291.15
831.01	655.6	3337.6
831.11	655.5	3364.85
831.21	655.4	3334.54
831.31	655.3	3327.92
831.41	655.2	3325.3
831.51	655.1	3297.41
831.61	655	3395.82
831.71	654.9	3347.96
831.81	654.8	3366
831.91	654.7	3290.65
832.01	654.6	3382.86
832.11	654.5	3339.48
832.21	654.4	3353.38
832.31	654.3	3360.04
832.41	654.2	3394
832.51	654.1	3388.42
832.61	654	3337.28
832.71	653.9	3397
832.81	653.8	3363.83
832.91	653.7	3391.38
833.01	653.6	3374.9
833.11	653.5	3382.41
833.21	653.4	3362.65
833.31	653.3	3430.62
833.41	653.2	3423.27
833.51	653.1	3469.03
833.61	653	3430.72
833.71	652.9	3414.03
833.81	652.8	3346.4
833.91	652.7	3410.02
834.01	652.6	3438.95
834.11	652.5	3433.98
834.21	652.4	3374.95
834.31	652.3	3345.56
834.41	652.2	3354.56
834.51	652.1	3280.49
834.61	652	3350
834.71	651.9	3389.52
834.81	651.8	3419.27
834.91	651.7	3402.82
835.01	651.6	3323.51
835.11	651.5	3405.54
835.21	651.4	3412.08
835.31	651.3	3393.01
835.41	651.2	3372.28
835.51	651.1	3343.97
835.61	651	3418.76
835.71	650.9	3449.96
835.81	650.8	3298.57
835.91	650.7	3323.05
836.01	650.6	3366.01
836.11	650.5	3378.39
836.21	650.4	3390.45
836.31	650.3	3310.96
836.41	650.2	3375.92
836.51	650.1	3355.4
836.61	650	3381.43
836.71	649.9	3357.25
836.81	649.8	3416.45
836.91	649.7	3491.69
837.01	649.6	3372.99
837.11	649.5	3370.95
837.21	649.4	3315.18
837.31	649.3	3403.18
837.41	649.2	3412.52
837.51	649.1	3418.96
837.61	649	3403.33
837.71	648.9	3409.01
837.81	648.8	3416.97
837.91	648.7	3444.48
838.01	648.6	3432.09
838.11	648.5	3372.91
838.21	648.4	3450.05
838.31	648.3	3447.11
838.41	648.2	3411.51
838.51	648.1	3439.23
838.61	648	3465.39
838.71	647.9	3407.7
838.81	647.8	3413.38
838.91	647.7	3429.41
839.01	647.6	3359.4
839.11	647.5	3400.32
839.21	647.4	3333.83
839.31	647.3	3389.75
839.41	647.2	3375.19
839.51	647.1	3401.39
839.61	647	3429.97
839.71	646.9	3379.72
839.81	646.8	3400.68
839.91	646.7	3411.6
840.01	646.6	3322.31
840.11	646.5	3449.55
840.21	646.4	3355.81
840.31	646.3	3408.18
840.41	646.2	3330.69
840.51	646.1	3413.44
840.61	646	3385.4
840.71	645.9	3415.11
840.81	645.8	3376.1
840.91	645.7	3375.85
841.01	645.6	3434.05
841.11	645.5	3410.35
841.21	645.4	3463.31
841.31	645.3	3444.26
841.41	645.2	3386.5
841.51	645.1	3386
841.61	645	3413.13
841.71	644.9	3396.23
841.81	644.8	3418.6
841.91	644.7	3359.14
842.01	644.6	3380.16
842.11	644.5	3420.74
842.21	644.4	3383.9
842.31	644.3	3384.34
842.41	644.2	3388.16
842.51	644.1	3451.56
842.61	644	3471.9
842.71	643.9	3437.17
842.81	643.8	3437.6
842.91	643.7	3423.08
843.01	643.6	3403.93
843.11	643.5	3485.99
843.21	643.4	3442.7
843.31	643.3	3414.14
843.41	643.2	3392.13
843.51	643.1	3381.5
843.61	643	3398.7
843.71	642.9	3397.41
843.81	642.8	3412.61
843.91	642.7	3445.12
844.01	642.6	3430.01
844.11	642.5	3400.2
844.21	642.4	3472.05
844.31	642.3	3474.84
844.41	642.2	3435.66
844.51	642.1	3407.13
844.61	642	3441.36
844.71	641.9	3395.32
844.81	641.8	3419.13
844.91	641.7	3443.5
845.01	641.6	3390.08
845.11	641.5	3438.38
845.21	641.4	3422.89
845.31	641.3	3472.6
845.41	641.2	3567.8
845.51	641.1	3438.03
845.61	641	3414.99
845.71	640.9	3414.5
845.81	640.8	3411.73
845.91	640.7	3422.44
846.01	640.6	3456.5
846.11	640.5	3422.67
846.21	640.4	3490.8
846.31	640.3	3456.41
846.41	640.2	3510.64
846.51	640.1	3501.87
846.61	640	3454.07
846.71	639.9	3450.99
846.81	639.8	3427.5
846.91	639.7	3460.63
847.01	639.6	3436.9
847.11	639.5	3439.13
847.21	639.4	3494.77
847.31	639.3	3522.21
847.41	639.2	3547.58
847.51	639.1	3522.82
847.61	639	3527.09
847.71	638.9	3540.11
847.81	638.8	3525.52
847.91	638.7	3459.65
848.01	638.6	3427.12
848.11	638.5	3385.94
848.21	638.4	3437.41
848.31	638.3	3487.13
848.41	638.2	3525.88
848.51	638.1	3476.46
848.61	638	3544.49
848.71	637.9	3509.27
848.81	637.8	3440.54
848.91	637.7	3530.08
849.01	637.6	3529.35
849.11	637.5	3539.93
849.21	637.4	3461.37
849.31	637.3	3472.92
849.41	637.2	3596.94
849.51	637.1	3523.39
849.61	637	3537.69
849.71	636.9	3545.17
849.81	636.8	3554.64
849.91	636.7	3507.12
850.01	636.6	3479.15
850.11	636.5	3535.97
850.21	636.4	3512.62
850.31	636.3	3463.61
850.41	636.2	3534.36
850.51	636.1	3494.25
850.61	636	3523.63
850.71	635.9	3583.41
850.81	635.8	3530.68
850.91	635.7	3476.88
851.01	635.6	3540.19
851.11	635.5	3505.77
851.21	635.4	3453.01
851.31	635.3	3519.55
851.41	635.2	3571.17
851.51	635.1	3533.37
851.61	635	3510.95
851.71	634.9	3504.02
851.81	634.8	3534.6
851.91	634.7	3587.53
852.01	634.6	3519.76
852.11	634.5	3560.69
852.21	634.4	3579.06
852.31	634.3	3523.72
852.41	634.2	3609.06
852.51	634.1	3539.16
852.61	634	3535.67
852.71	633.9	3538.36
852.81	633.8	3617.01
852.91	633.7	3626.25
853.01	633.6	3643.59
853.11	633.5	3634.1
853.21	633.4	3633.86
853.31	633.3	3610.07
853.41	633.2	3575.37
853.51	633.1	3592.3
853.61	633	3571.68
853.71	632.9	3659.99
853.81	632.8	3585.54
853.91	632.7	3595.99
854.01	632.6	3589.85
854.11	632.5	3634.81
854.21	632.4	3690.88
854.31	632.3	3631.33
854.41	632.2	3664.84
854.51	632.1	3655.39
854.61	632	3613.6
854.71	631.9	3639.05
854.81	631.8	3690.81
854.91	631.7	3682.36
855.01	631.6	3623.26
855.11	631.5	3697.78
855.21	631.4	3673.64
855.31	631.3	3729.12
855.41	631.2	3682.09
855.51	631.1	3641.85
855.61	631	3737.82
855.71	630.9	3690.96
855.81	630.8	3657.89
855.91	630.7	3600.99
856.01	630.6	3683.62
856.11	630.5	3779.55
856.21	630.4	3687.28
856.31	630.3	3675.11
856.41	630.2	3736.97
856.51	630.1	3694.25
856.61	630	3692.5
856.71	629.9	3727.4
856.81	629.8	3690.4
856.91	629.7	3744.23
857.01	629.6	3672.86
857.11	629.5	3709.66
857.21	629.4	3750.66
857.31	629.3	3726.01
857.41	629.2	3779.57
857.51	629.1	3830.06
857.61	629	3820.79
857.71	628.9	3795.66
857.81	628.8	3741.9
857.91	628.7	3710.25
858.01	628.6	3775.57
858.11	628.5	3800.16
858.21	628.4	3814.52
858.31	628.3	3810.83
858.41	628.2	3734.08
858.51	628.1	3805.13
858.61	628	3840.93
858.71	627.9	3721.94
858.81	627.8	3836.15
858.91	627.7	3735.09
859.01	627.6	3746.51
859.11	627.5	3870.9
859.21	627.4	3798.53
859.31	627.3	3700.92
859.41	627.2	3777.9
859.51	627.1	3781.7
859.61	627	3797.37
859.71	626.9	3816.62
859.81	626.8	3777.53
859.91	626.7	3796.57
860.01	626.6	3832.58
860.11	626.5	3782.63
860.21	626.4	3811.78
860.31	626.3	3710.17
860.41	626.2	3808.94
860.51	626.1	3845.96
860.61	626	3757.18
860.71	625.9	3833.36
860.81	625.8	3826.51
860.91	625.7	3808.56
861.01	625.6	3814.75
861.11	625.5	3961.9
861.21	625.4	3924.16
861.31	625.3	3771.45
861.41	625.2	3899.91
861.51	625.1	3822.65
861.61	625	3775.56
861.71	624.9	3747.65
861.81	624.8	3840.63
861.91	624.7	3856.51
862.01	624.6	3781.32
862.11	624.5	3759.44
862.21	624.4	3818.11
862.31	624.3	3747.96
862.41	624.2	3758.29
862.51	624.1	3663.37
862.61	624	3683.05
862.71	623.9	3721.38
862.81	623.8	3693.5
862.91	623.7	3625.42
863.01	623.6	3637.89
863.11	623.5	3611.15
863.21	623.4	3572.96
863.31	623.3	3526.33
863.41	623.2	3525.8
863.51	623.1	3534.03
863.61	623	3496.98
863.71	622.9	3519.72
863.81	622.8	3576.92
863.91	622.7	3564.77
864.01	622.6	3528.07
864.11	622.5	3570.89
864.21	622.4	3514.22
864.31	622.3	3511.83
864.41	622.2	3569.61
864.51	622.1	3526.81
864.61	622	3502.66
864.71	621.9	3557.03
864.81	621.8	3512.03
864.91	621.7	3405.16
865.01	621.6	3498.94
865.11	621.5	3526.93
865.21	621.4	3495.68
865.31	621.3	3444.47
865.41	621.2	3465.26
865.51	621.1	3540.01
865.61	621	3461.59
865.71	620.9	3436.21
865.81	620.8	3546.61
865.91	620.7	3465.92
866.01	620.6	3493.02
866.11	620.5	3565.57
866.21	620.4	3462.22
866.31	620.3	3527.56
866.41	620.2	3476.56
866.51	620.1	3493.31
866.61	620	3504.38
866.71	619.9	3434.14
866.81	619.8	3516.89
866.91	619.7	3495.58
867.01	619.6	3509.1
867.11	619.5	3509.86
867.21	619.4	3504.75
867.31	619.3	3435.44
867.41	619.2	3458.79
867.51	619.1	3437.72
867.61	619	3458.58
867.71	618.9	3455.07
867.81	618.8	3412.17
867.91	618.7	3410.83
868.01	618.6	3475.56
868.11	618.5	3429.18
868.21	618.4	3437.98
868.31	618.3	3416.26
868.41	618.2	3390.74
868.51	618.1	3417.13
868.61	618	3409.03
868.71	617.9	3426.52
868.81	617.8	3426.59
868.91	617.7	3489.87
869.01	617.6	3477.05
869.11	617.5	3421.54
869.21	617.4	3338.89
869.31	617.3	3415.66
869.41	617.2	3394.84
869.51	617.1	3460.29
869.61	617	3443.37
869.71	616.9	3436.24
869.81	616.8	3422.22
869.91	616.7	3392.12
870.01	616.6	3435.37
870.11	616.5	3463.87
870.21	616.4	3411.12
870.31	616.3	3429.85
870.41	616.2	3458.79
870.51	616.1	3459.39
870.61	616	3385.54
870.71	615.9	3426.93
870.81	615.8	3461.22
870.91	615.7	3405.71
871.01	615.6	3425.1
871.11	615.5	3456.94
871.21	615.4	3306.03
871.31	615.3	3400.35
871.41	615.2	3435.09
871.51	615.1	3335.96
871.61	615	3445.01
871.71	614.9	3443.96
871.81	614.8	3392.56
871.91	614.7	3312.4
872.01	614.6	3367
872.11	614.5	3300.88
872.21	614.4	3401
872.31	614.3	3392.78
872.41	614.2	3365.66
872.51	614.1	3440.36
872.61	614	3479.21
872.71	613.9	3398.53
872.81	613.8	3386.69
872.91	613.7	3506.74
873.01	613.6	3445.24
873.11	613.5	3426.37
873.21	613.4	3470.69
873.31	613.3	3463.4
873.41	613.2	3444.56
873.51	613.1	3434.72
873.61	613	3427.19
873.71	612.9	3422.41
873.81	612.8	3512.05
873.91	612.7	3501.76
874.01	612.6	3500.23
874.11	612.5	3442.74
874.21	612.4	3501.9
874.31	612.3	3504.61
874.41	612.2	3521.08
874.51	612.1	3543.93
874.61	612	3495.19
874.71	611.9	3464.59
874.81	611.8	3529
874.91	611.7	3387.71
875.01	611.6	3484.49
875.11	611.5	3437.93
875.21	611.4	3477.09
875.31	611.3	3464.22
875.41	611.2	3575.76
875.51	611.1	3571.96
875.61	611	3542.5
875.71	610.9	3487.66
875.81	610.8	3536.62
875.91	610.7	3568.68
876.01	610.6	3557.74
876.11	610.5	3521.7
876.21	610.4	3567.62
876.31	610.3	3561.96
876.41	610.2	3593.16
876.51	610.1	3566.87
876.61	610	3530.69
876.71	609.9	3573.1
876.81	609.8	3601.16
876.91	609.7	3638.43
877.01	609.6	3687.91
877.11	609.5	3736.52
877.21	609.4	3736.65
877.31	609.3	3744.03
877.41	609.2	3675.95
877.51	609.1	3743.74
877.61	609	3784.05
877.71	608.9	3854.59
877.81	608.8	3886.59
877.91	608.7	3814.07
878.01	608.6	3816.3
878.11	608.5	3869.33
878.21	608.4	3914.57
878.31	608.3	3977.02
878.41	608.2	4015.7
878.51	608.1	3960.87
878.61	608	3978.42
878.71	607.9	4085.97
878.81	607.8	4075.31
878.91	607.7	4143.07
879.01	607.6	4170.27
879.11	607.5	4277.65
879.21	607.4	4237.75
879.31	607.3	4271.64
879.41	607.2	4381.92
879.51	607.1	4411.19
879.61	607	4480.23
879.71	606.9	4579.05
879.81	606.8	4597.26
879.91	606.7	4663.98
880.01	606.6	4795.05
880.11	606.5	4803.64
880.21	606.4	4966.22
880.31	606.3	5092.57
880.41	606.2	5225.43
880.51	606.1	5365.05
880.61	606	5467.19
880.71	605.9	5670.46
880.81	605.8	5745.05
880.91	605.7	5864.47
881.01	605.6	6162.36
881.11	605.5	6321.92
881.21	605.4	6505.12
881.31	605.3	6788.16
881.41	605.2	7035.54
881.51	605.1	7364.54
881.61	605	7556.55
881.71	604.9	7813.72
881.81	604.8	8030.72
881.91	604.7	8333.76
882.01	604.6	8441.59
882.11	604.5	8817.42
882.21	604.4	8982.42
882.31	604.3	9185.08
882.41	604.2	9183.02
882.51	604.1	9120.29
882.61	604	9066.61
882.71	603.9	9071.75
882.81	603.8	8971.13
882.91	603.7	8794.31
883.01	603.6	8445.42
883.11	603.5	8309.83
883.21	603.4	8013.6
883.31	603.3	7762.39
883.41	603.2	7444.95
883.51	603.1	7104.99
883.61	603	6839.99
883.71	602.9	6612.48
883.81	602.8	6323.87
883.91	602.7	6070.73
884.01	602.6	5860.63
884.11	602.5	5557.71
884.21	602.4	5398.2
884.31	602.3	5216.03
884.41	602.2	5134.21
884.51	602.1	4993.35
884.61	602	4778.63
884.71	601.9	4692.74
884.81	601.8	4499.82
884.91	601.7	4491.48
885.01	601.6	4445.28
885.11	601.5	4196.97
885.21	601.4	4240.33
885.31	601.3	4167.02
885.41	601.2	4059.24
885.51	601.1	3972.31
885.61	601	3945.11
885.71	600.9	3805.01
885.81	600.8	3858.06
885.91	600.7	3772.89
886.01	600.6	3741.31
886.11	600.5	3733.49
886.21	600.4	3685.88
886.31	600.3	3678.85
886.41	600.2	3615.75
886.51	600.1	3588
886.61	600	3582.7
886.71	599.9	3448.19
886.81	599.8	3487.89
886.91	599.7	3569.14
887.01	599.6	3446.28
887.11	599.5	3477.67
887.21	599.4	3393.33
887.31	599.3	3325.41
887.41	599.2	3366.66
887.51	599.1	3375.7
887.61	599	3347.64
887.71	598.9	3334.72
887.81	598.8	3376.45
887.91	598.7	3383.84
888.01	598.6	3387.71
888.11	598.5	3404.1
888.21	598.4	3349.35
888.31	598.3	3299.46
888.41	598.2	3366.16
888.51	598.1	3353.03
888.61	598	3256.07
888.71	597.9	3284.95
888.81	597.8	3249.02
888.91	597.7	3195.17
889.01	597.6	3252.83
889.11	597.5	3172.09
889.21	597.4	3277.99
889.31	597.3	3275.17
889.41	597.2	3239.49
889.51	597.1	3202.12
889.61	597	3229.51
889.71	596.9	3210.49
889.81	596.8	3127.05
889.91	596.7	3261.5
890.01	596.6	3214.89
890.11	596.5	3164.21
890.21	596.4	3234.74
890.31	596.3	3197.3
890.41	596.2	3182.03
890.51	596.1	3169.56
890.61	596	3178.09
890.71	595.9	3156.3
890.81	595.8	3115.42
890.91	595.7	3177.46
891.01	595.6	3226.99
891.11	595.5	3086.86
891.21	595.4	3199.77
891.31	595.3	3220.88
891.41	595.2	3250.68
891.51	595.1	3233.28
891.61	595	3216.67
891.71	594.9	3259.85
891.81	594.8	3209.72
891.91	594.7	3255.32
892.01	594.6	3184.53
892.11	594.5	3113.99
892.21	594.4	3111.48
892.31	594.3	3091.25
892.41	594.2	3117.61
892.51	594.1	3172.31
892.61	594	3036.69
892.71	593.9	3059.5
892.81	593.8	2920.95
892.91	593.7	2959.1
893.01	593.6	2956.73
893.11	593.5	2892.81
893.21	593.4	2939.65
893.31	593.3	2825.17
893.41	593.2	2791.98
893.51	593.1	2771.81
893.61	593	2756.79
893.71	592.9	2719.56
893.81	592.8	2599.57
893.91	592.7	2641.3
894.01	592.6	2624.65
894.11	592.5	2647.97
894.21	592.4	2586.47
894.31	592.3	2588.79
894.41	592.2	2537.07
894.51	592.1	2560.49
894.61	592	2479.61
894.71	591.9	2589.13
894.81	591.8	2555.28
894.91	591.7	2536.46
895.01	591.6	2447.71
895.11	591.5	2438.93
895.21	591.4	2468.42
895.31	591.3	2510.5
895.41	591.2	2494.02
895.51	591.1	2461.38
895.61	591	2401.49
895.71	590.9	2411.29
895.81	590.8	2471.71
895.91	590.7	2427.31
896.01	590.6	2422.32
896.11	590.5	2403.43
896.21	590.4	2392.81
896.31	590.3	2308.89
896.41	590.2	2391.49
896.51	590.1	2347.01
896.61	590	2321.4
896.71	589.9	2349.72
896.81	589.8	2322.59
896.91	589.7	2330.91
897.01	589.6	2326.71
897.11	589.5	2364.13
897.21	589.4	2286.82
897.31	589.3	2283.56
897.41	589.2	2224.18
897.51	589.1	2256.47
897.61	589	2283.92
897.71	588.9	2304.31
897.81	588.8	2293.87
897.91	588.7	2277.91
898.01	588.6	2270.09
898.11	588.5	2246.34
898.21	588.4	2304.03
898.31	588.3	2298.8
898.41	588.2	2252.05
898.51	588.1	2299.95
898.61	588	2283.44
898.71	587.9	2232.17
898.81	587.8	2156.56
898.91	587.7	2171.29
899.01	587.6	2186.4
899.11	587.5	2229.64
899.21	587.4	2319.68
899.31	587.3	2272.41
899.41	587.2	2259.73
899.51	587.1	2166.01
899.61	587	2188.77
899.71	586.9	2165.88
899.81	586.8	2125.09
899.91	586.7	2234.62
900.01	586.6	2178.86
900.11	586.5	2142.14
900.21	586.4	2182.04
900.31	586.3	2182.12
900.41	586.2	2209.16
900.51	586.1	2209.82
900.61	586	2142.41
900.71	585.9	2175.41
900.81	585.8	2129.38
900.91	585.7	2164.45
901.01	585.6	2133.39
901.11	585.5	2255.67
901.21	585.4	2159.81
901.31	585.3	2110.26
901.41	585.2	2136.12
901.51	585.1	2186.27
901.61	585	2087.1
901.71	584.9	2120.37
901.81	584.8	2147.1
901.91	584.7	2177.38
902.01	584.6	2142.07
902.11	584.5	2148.31
902.21	584.4	2155.56
902.31	584.3	2145.32
902.41	584.2	2105.56
902.51	584.1	2101.29
902.61	584	2046.7
902.71	583.9	2081.36
902.81	583.8	2105.43
902.91	583.7	2118.53
903.01	583.6	2124.33
903.11	583.5	2076.57
903.21	583.4	2043.81
903.31	583.3	2071.15
903.41	583.2	2125.53
903.51	583.1	2164.6
903.61	583	2094.67
903.71	582.9	2162.15
903.81	582.8	2085.95
903.91	582.7	2072.84
904.01	582.6	2134.19
904.11	582.5	2148.22
904.21	582.4	2093.32
904.31	582.3	2122.77
904.41	582.2	2126.66
904.51	582.1	2212.94
904.61	582	2193.38
904.71	581.9	2186.9
904.81	581.8	2177.34
904.91	581.7	2173.37
905.01	581.6	2236.51
905.11	581.5	2207.09
905.21	581.4	2198.92
905.31	581.3	2212.22
905.41	581.2	2307.29
905.51	581.1	2321.91
905.61	581	2250.11
905.71	580.9	2268.04
905.81	580.8	2304.45
905.91	580.7	2264.68
906.01	580.6	2297.23
906.11	580.5	2361.26
906.21	580.4	2318.49
906.31	580.3	2287.32
906.41	580.2	2354.55
906.51	580.1	2338.2
906.61	580	2354.02
906.71	579.9	2450.33
906.81	579.8	2377.39
906.91	579.7	2407.9
907.01	579.6	2351.65
907.11	579.5	2311.13
907.21	579.4	2393.09
907.31	579.3	2479.91
907.41	579.2	2432.45
907.51	579.1	2420.1
907.61	579	2540.95
907.71	578.9	2568.32
907.81	578.8	2554.9
907.91	578.7	2567.92
908.01	578.6	2582.88
908.11	578.5	2564.15
908.21	578.4	2554.48
908.31	578.3	2704.68
908.41	578.2	2777.19
908.51	578.1	2767.31
908.61	578	2889.03
908.71	577.9	2890.22
908.81	577.8	2927.28
908.91	577.7	2978.68
909.01	577.6	3056.67
909.11	577.5	3090.56
909.21	577.4	3117.44
909.31	577.3	3190.29
909.41	577.2	3207.52
909.51	577.1	3297.95
909.61	577	3450.98
909.71	576.9	3435.96
909.81	576.8	3479.98
909.91	576.7	3671.14
910.01	576.6	3690.82
910.11	576.5	3850.77
910.21	576.4	3906.48
910.31	576.3	3943.19
910.41	576.2	4160.62
910.51	576.1	4263.81
910.61	576	4458.93
910.71	575.9	4554.95
910.81	575.8	4700.07
910.91	575.7	4891.3
911.01	575.6	5030.62
911.11	575.5	5184.61
911.21	575.4	5562.31
911.31	575.3	5817.78
911.41	575.2	6047.8
911.51	575.1	6348.4
911.61	575	6658.72
911.71	574.9	7102.74
911.81	574.8	7479.55
911.91	574.7	7840.84
912.01	574.6	8081.27
912.11	574.5	8716.59
912.21	574.4	9151.54
912.31	574.3	9642.55
912.41	574.2	10056.7
912.51	574.1	10546.1
912.61	574	11087.8
912.71	573.9	11416.1
912.81	573.8	11852.6
912.91	573.7	12277.9
913.01	573.6	12661
913.11	573.5	12784.7
913.21	573.4	12964.6
913.31	573.3	13059.4
913.41	573.2	13041.6
913.51	573.1	12844.9
913.61	573	12567.6
913.71	572.9	12340.1
913.81	572.8	11916.9
913.91	572.7	11439.9
914.01	572.6	11029.4
914.11	572.5	10494.7
914.21	572.4	9902.48
914.31	572.3	9444.18
914.41	572.2	8886.56
914.51	572.1	8321.33
914.61	572	7775.68
914.71	571.9	7217.27
914.81	571.8	6742.59
914.91	571.7	6418.91
915.01	571.6	5909.46
915.11	571.5	5454.02
915.21	571.4	5198.92
915.31	571.3	4835.79
915.41	571.2	4593.55
915.51	571.1	4333.66
915.61	571	3964.59
915.71	570.9	3796.08
915.81	570.8	3618.63
915.91	570.7	3449.94
916.01	570.6	3298.08
916.11	570.5	3077.95
916.21	570.4	2930.43
916.31	570.3	2713.02
916.41	570.2	2585.02
916.51	570.1	2449.57
916.61	570	2415.26
916.71	569.9	2318.53
916.81	569.8	2181.71
916.91	569.7	1955.26
917.01	569.6	1960.84
917.11	569.5	1864.01
917.21	569.4	1758.56
917.31	569.3	1692.38
917.41	569.2	1621.93
917.51	569.1	1627.27
917.61	569	1470.93
917.71	568.9	1432.58
917.81	568.8	1463.33
917.91	568.7	1428.77
918.01	568.6	1302.6
918.11	568.5	1229.73
918.21	568.4	1180.14
918.31	568.3	1162.68
918.41	568.2	1118.57
918.51	568.1	1001.32
918.61	568	1053.69
918.71	567.9	1045.82
918.81	567.8	932.883
918.91	567.7	903.288
919.01	567.6	945.761
919.11	567.5	878.096
919.21	567.4	860.431
919.31	567.3	797.075
919.41	567.2	870.513
919.51	567.1	717.95
919.61	567	743.662
919.71	566.9	727.167
919.81	566.8	734.086
919.91	566.7	661.28
920.01	566.6	680.887
920.11	566.5	621.287
920.21	566.4	607.204
920.31	566.3	623.155
920.41	566.2	613.554
920.51	566.1	591.849
920.61	566	612.35
920.71	565.9	547.058
920.81	565.8	526.696
920.91	565.7	511.921
921.01	565.6	546.627
921.11	565.5	494.54
921.21	565.4	468.695
921.31	565.3	420.952
921.41	565.2	420.898
921.51	565.1	442.844
921.61	565	478.617
921.71	564.9	488.562
921.81	564.8	380.334
921.91	564.7	399.968
922.01	564.6	388.325
922.11	564.5	426.372
922.21	564.4	388.246
922.31	564.3	396.981
922.41	564.2	312.165
922.51	564.1	390.417
922.61	564	392.737
922.71	563.9	332.988
922.81	563.8	296.893
922.91	563.7	334.247
923.01	563.6	328.91
923.11	563.5	271.884
923.21	563.4	304.994
923.31	563.3	253.725
923.41	563.2	305.697
923.51	563.1	306.669
923.61	563	324.433
923.71	562.9	262.197
923.81	562.8	234.373
923.91	562.7	265.447
924.01	562.6	270.416
924.11	562.5	220.246
924.21	562.4	259.904
924.31	562.3	259.044
924.41	562.2	232.184
924.51	562.1	210.358
924.61	562	289.6
924.71	561.9	268.6
924.81	561.8	178.841
924.91	561.7	199.772
925.01	561.6	253.426
925.11	561.5	249.321
925.21	561.4	281.836
925.31	561.3	312.282
925.41	561.2	182.141
925.51	561.1	112.172
925.61	561	198.857
925.71	560.9	243.646
925.81	560.8	182.641
925.91	560.7	172.291
926.01	560.6	126.112
926.11	560.5	152.278
926.21	560.4	186.478
926.31	560.3	221.401
926.41	560.2	136.152
926.51	560.1	196.695
926.61	560	205.548
926.71	559.9	197.849
926.81	559.8	152.632
926.91	559.7	126.07
927.01	559.6	193.99
927.11	559.5	181.082
927.21	559.4	122.794
927.31	559.3	182.988
927.41	559.2	242.079
927.51	559.1	166.272
927.61	559	141.913
927.71	558.9	114.554
927.81	558.8	114.022
927.91	558.7	175.213
928.01	558.6	84.0248
928.11	558.5	39.7669
928.21	558.4	171.474
928.31	558.3	132.25
928.41	558.2	130.783
928.51	558.1	225.455
928.61	558	137.16
928.71	557.9	108.209
928.81	557.8	119.086
928.91	557.7	99.4793
929.01	557.6	161.079
929.11	557.5	125.196
929.21	557.4	170.519
929.31	557.3	93.8755
929.41	557.2	110.818
929.51	557.1	120.485
929.61	557	95.7021
929.71	556.9	85.1261
929.81	556.8	113.963
929.91	556.7	77.4899
930.01	556.6	-9.50136
930.11	556.5	175.403
930.21	556.4	166.308
930.31	556.3	97.0393
930.41	556.2	102.322
930.51	556.1	83.8112
930.61	556	121.472
930.71	555.9	134.029
930.81	555.8	123.483
930.91	555.7	127.039
931.01	555.6	73.1464
931.11	555.5	63.5293
931.21	555.4	-4.81244
931.31	555.3	60.8109
931.41	555.2	54.1579
931.51	555.1	97.2975
931.61	555	145.575
931.71	554.9	153.437
931.81	554.8	129.714
931.91	554.7	64.2652
932.01	554.6	87.4025
932.11	554.5	69.3325
932.21	554.4	77.6413
932.31	554.3	52.0186
932.41	554.2	110.43
932.51	554.1	94.565
932.61	554	21.2513
932.71	553.9	120.247
932.81	553.8	108.105
932.91	553.7	86.4109
933.01	553.6	121.233
933.11	553.5	155.676
933.21	553.4	108.842
933.31	553.3	120.905
933.41	553.2	46.415
933.51	553.1	98.8559
933.61	553	82.0894
933.71	552.9	97.1156
933.81	552.8	90.762
933.91	552.7	74.201
934.01	552.6	58.881
934.11	552.5	55.0434
934.21	552.4	68.619
934.31	552.3	46.2632
934.41	552.2	70.6656
934.51	552.1	10.4124
934.61	552	45.3656
934.71	551.9	49.077
934.81	551.8	5.58108
934.91	551.7	29.1882
935.01	551.6	76.7948
935.11	551.5	105.987
935.21	551.4	71.3861
935.31	551.3	18.1294
935.41	551.2	110.941
935.51	551.1	32.6836
935.61	551	54.5635
935.71	550.9	48.1672
935.81	550.8	29.8048
935.91	550.7	-1.52344
936.01	550.6	59.9065
936.11	550.5	109.439
936.21	550.4	45.2478
936.31	550.3	2.71095
936.41	550.2	58.3806
936.51	550.1	85.4635
936.61	550	34.5461
936.71	549.9	23.3524
936.81	549.8	-24.2556
936.91	549.7	9.61881
937.01	549.6	20.5618
937.11	549.5	32.056
937.21	549.4	80.1016
937.31	549.3	30.2157
937.41	549.2	19.3294
937.51	549.1	53.2357
937.61	549	34.8658
937.71	548.9	20.7369
937.81	548.8	55.1248
937.91	548.7	67.6157
938.01	548.6	27.5545
938.11	548.5	-22.1277
938.21	548.4	48.1895
938.31	548.3	4.71333
938.41	548.2	-26.1771
938.51	548.1	15.9321
938.61	548	-82.6833
938.71	547.9	-11.5059
938.81	547.8	-0.708314
938.91	547.7	3.91649
939.01	547.6	72.7823
939.11	547.5	60.4408
939.21	547.4	63.5126
939.31	547.3	-4.62279
939.41	547.2	26.6552
939.51	547.1	-64.4465
939.61	547	5.00305
939.71	546.9	-27.4098
939.81	546.8	40.108
939.91	546.7	-48.3402
940.01	546.6	-21.1336
940.11	546.5	62.383
940.21	546.4	12.1061
940.31	546.3	-33.2401
940.41	546.2	11.9305
940.51	546.1	-44.3131
940.61	546	-66.4881
940.71	545.9	-58.1463
940.81	545.8	12.9193
940.91	545.7	0.812074
941.01	545.6	3.01482
941.11	545.5	58.6655
941.21	545.4	18.3847
941.31	545.3	-15.793
941.41	545.2	1.51165
941.51	545.1	-41.322
941.61	545	-13.1905
941.71	544.9	-17.9904
941.81	544.8	5.27824
941.91	544.7	11.0638
942.01	544.6	25.1938
942.11	544.5	22.3923
942.21	544.4	35.625
942.31	544.3	10.9608
942.41	544.2	57.7789
942.51	544.1	51.3898
942.61	544	59.0692
942.71	543.9	59.0932
942.81	543.8	0.909809
942.91	543.7	-69.7911
943.01	543.6	9.05925
943.11	543.5	2.59894
943.21	543.4	42.0348
943.31	543.3	34.5738
943.41	543.2	-5.54281
943.51	543.1	-3.62527
943.61	543	-3.15637
943.71	542.9	17.0363
943.81	542.8	-4.63345
943.91	542.7	-46.4415
944.01	542.6	-16.6982
944.11	542.5	-0.748322
944.21	542.4	-21.385
944.31	542.3	-39.8152
944.41	542.2	7.44393
944.51	542.1	35.1165
944.61	542	9.96112
944.71	541.9	0.219185
944.81	541.8	16.4424
944.91	541.7	-16.7485
945.01	541.6	45.474
945.11	541.5	26.11
945.21	541.4	46.8491
945.31	541.3	12.1395
945.41	541.2	37.9468
945.51	541.1	1.06417
945.61	541	3.18116
945.71	540.9	-25.8401
945.81	540.8	-63.2756
945.91	540.7	5.39213
946.01	540.6	33.956
946.11	540.5	-7.82527
946.21	540.4	-10.6414
946.31	540.3	11.4387
946.41	540.2	35.9668
946.51	540.1	29.7359
946.61	540	-25.5299
946.71	539.9	-2.45113
946.81	539.8	30.8687
946.91	539.7	11.0157
947.01	539.6	25.2659
947.11	539.5	-18.5533
947.21	539.4	-19.821
947.31	539.3	37.704
947.41	539.2	47.8494
947.51	539.1	5.85652
947.61	539	35.6564
947.71	538.9	-34.0268
947.81	538.8	-56.5034
947.91	538.7	2.67483
948.01	538.6	73.9907
948.11	538.5	45.1337
948.21	538.4	-49.689
948.31	538.3	6.3155
948.41	538.2	48.4231
948.51	538.1	36.5649
948.61	538	-35.1557
948.71	537.9	11.7786
948.81	537.8	-0.390903
948.91	537.7	-16.2849
949.01	537.6	11.2002
949.11	537.5	-13.1772
949.21	537.4	-9.55487
949.31	537.3	-26.2087
949.41	537.2	-14.8284
949.51	537.1	13.5861
949.61	537	54.8968
949.71	536.9	31.69
949.81	536.8	-33.6206
949.91	536.7	5.65472
950.01	536.6	-19.2082
950.11	536.5	-10.8301
950.21	536.4	10.0305
950.31	536.3	-4.52298
950.41	536.2	-7.66299
950.51	536.1	38.0243
950.61	536	-8.73705
950.71	535.9	-30.2573
950.81	535.8	-11.5365
950.91	535.7	2.77029
951.01	535.6	8.28363
951.11	535.5	48.7967
951.21	535.4	-9.55267
951.31	535.3	12.2701
951.41	535.2	-16.5281
951.51	535.1	33.7079
951.61	535	85.4263
951.71	534.9	27.6617
951.81	534.8	32.6899
951.91	534.7	41.511
952.01	534.6	41.6765
952.11	534.5	80.6004
952.21	534.4	2.93777
952.31	534.3	1.65417
952.41	534.2	78.1634
952.51	534.1	98.6033
952.61	534	138.353
952.71	533.9	137.724
952.81	533.8	115.439
952.91	533.7	103.395
953.01	533.6	139.764
953.11	533.5	232.065
953.21	533.4	173.985
953.31	533.3	164.802
953.41	533.2	257.067
953.51	533.1	284.125
953.61	533	331.355
953.71	532.9	284.861
953.81	532.8	346.159
953.91	532.7	278.009
954.01	532.6	305.858
954.11	532.5	397.121
954.21	532.4	310.626
954.31	532.3	302.164
954.41	532.2	350.978
954.51	532.1	281.309
954.61	532	298.398
954.71	531.9	241.004
954.81	531.8	207.024
954.91	531.7	229.595
955.01	531.6	278.753
955.11	531.5	189.875
955.21	531.4	172.239
955.31	531.3	179.154
955.41	531.2	155.551
955.51	531.1	155.707
955.61	531	160.69
955.71	530.9	109.466
955.81	530.8	138.932
955.91	530.7	80.3622
956.01	530.6	72.6892
956.11	530.5	68.6021
956.21	530.4	19.0664
956.31	530.3	-37.1936
956.41	530.2	-76.9711
956.51	530.1	-2.16264
956.61	530	-34.3889
956.71	529.9	-23.581
956.81	529.8	-23.463
956.91	529.7	-76.8624
957.01	529.6	-38.8484
957.11	529.5	-13.0759
957.21	529.4	22.7997
957.31	529.3	-59.4283
957.41	529.2	-76.2773
957.51	529.1	-73.9886
957.61	529	-39.2174
957.71	528.9	-37.0326
957.81	528.8	-26.7446
957.91	528.7	6.23274
958.01	528.6	-5.51426
958.11	528.5	-30.3994
958.21	528.4	-54.5952
958.31	528.3	-86.1015
958.41	528.2	-23.4012
958.51	528.1	-103.253
958.61	528	-39.8978
958.71	527.9	-39.9224
958.81	527.8	-84.0161
958.91	527.7	-69.3859
959.01	527.6	-13.3767
959.11	527.5	-53.1263
959.21	527.4	-96.014
959.31	527.3	-12.4193
959.41	527.2	31.796
959.51	527.1	28.4592
959.61	527	3.32916
959.71	526.9	-68.3873
959.81	526.8	-42.3799
959.91	526.7	-31.6486
960.01	526.6	47.8411
960.11	526.5	14.2272
960.21	526.4	-1.66286
960.31	526.3	-19.7945
960.41	526.2	-86.8574
960.51	526.1	-55.8171
960.61	526	-64.0873
960.71	525.9	-32.1163
960.81	525.8	-79.0767
960.91	525.7	28.1007
961.01	525.6	57.4503
961.11	525.5	-31.4417
961.21	525.4	-62.5063
961.31	525.3	-47.3643
961.41	525.2	-55.2569
961.51	525.1	-81.9774
961.61	525	-22.7325
961.71	524.9	-6.10856
961.81	524.8	-73.5883
961.91	524.7	-92.1716
962.01	524.6	39.9345
962.11	524.5	-22.3045
962.21	524.4	-27.0609
962.31	524.3	-22.2657
962.41	524.2	-18.5743
962.51	524.1	-22.1588
962.61	524	-93.1574
962.71	523.9	-94.2942
962.81	523.8	-8.22418
962.91	523.7	7.29387
963.01	523.6	-27.1538
963.11	523.5	-5.60166
963.21	523.4	-15.0152
963.31	523.3	-14.429
963.41	523.2	-45.6016
963.51	523.1	-51.0503
963.61	523	-34.9129
963.71	522.9	-97.8792
963.81	522.8	-28.5008
963.91	522.7	-39.2951
964.01	522.6	-68.3309
964.11	522.5	-102.643
964.21	522.4	-70.2307
964.31	522.3	-16.9223
964.41	522.2	7.93769
964.51	522.1	8.96989
964.61	522	-32.4809
964.71	521.9	-88.1732
964.81	521.8	-61.9691
964.91	521.7	-40.6618
965.01	521.6	-42.8029
965.11	521.5	-51.0822
965.21	521.4	1.53494
965.31	521.3	-75.8136
965.41	521.2	-44.7831
965.51	521.1	-35.201
965.61	521	19.5533
965.71	520.9	-31.658
965.81	520.8	-14.0764
965.91	520.7	-9.63298
966.01	520.6	5.91376
966.11	520.5	-43.6776
966.21	520.4	-35.1657
966.31	520.3	-32.9988
966.41	520.2	-83.2803
966.51	520.1	15.3
966.61	520	-34.4301
966.71	519.9	-38.126
966.81	519.8	-46.0289
966.91	519.7	-56.6906
967.01	519.6	-71.6628
967.11	519.5	-84.3593
967.21	519.4	-45.2284
967.31	519.3	11.2817
967.41	519.2	-63.9325
967.51	519.1	30.5427
967.61	519	-57.6374
967.71	518.9	-94.5072
967.81	518.8	-82.7221
967.91	518.7	-70.9372
968.01	518.6	-95.6006
968.11	518.5	-12.4022
968.21	518.4	-39.928
968.31	518.3	-31.0403
968.41	518.2	7.91633
968.51	518.1	-22.0927
968.61	518	40.9325
968.71	517.9	-17.6976
968.81	517.8	-57.845
968.91	517.7	-133.717
969.01	517.6	-59.2783
969.11	517.5	25.4703
969.21	517.4	16.3223
969.31	517.3	-57.9983
969.41	517.2	-53.2846
969.51	517.1	-21.9848
969.61	517	5.96999
969.71	516.9	4.26949
969.81	516.8	-110.948
969.91	516.7	11.5577
970.01	516.6	-39.7984
970.11	516.5	-36.9133
970.21	516.4	-10.0627
970.31	516.3	-2.03994
970.41	516.2	56.6724
970.51	516.1	-36.9603
970.61	516	15.2345
970.71	515.9	-8.32944
970.81	515.8	-39.2728
970.91	515.7	-70.6991
971.01	515.6	-9.91866
971.11	515.5	15.9996
971.21	515.4	44.4005
971.31	515.3	-59.4056
971.41	515.2	-14.1084
971.51	515.1	-37.3976
971.61	515	-62.2386
971.71	514.9	-73.6314
971.81	514.8	-27.4727
971.91	514.7	-26.5899
972.01	514.6	-29.2245
972.11	514.5	55.2442
972.21	514.4	5.1956
972.31	514.3	-44.4049
972.41	514.2	-10.8331
972.51	514.1	-84.8821
972.61	514	-31.3795
972.71	513.9	-115.842
972.81	513.8	-87.9608
972.91	513.7	-34.2172
973.01	513.6	-12.1633
973.11	513.5	-50.6958
973.21	513.4	10.1855
973.31	513.3	29.8252
973.41	513.2	-108.604
973.51	513.1	-8.86119
973.61	513	34.7437
973.71	512.9	-85.3756
973.81	512.8	35.6084
973.91	512.7	-117.166
974.01	512.6	-50.0101
974.11	512.5	8.93908
974.21	512.4	1.26749
974.31	512.3	-25.1283
974.41	512.2	-53.1795
974.51	512.1	-2.40308
974.61	512	3.30422
974.71	511.9	-19.4713
974.81	511.8	5.09784
974.91	511.7	-65.0227
975.01	511.6	-87.4538
975.11	511.5	-64.3676
975.21	511.4	-36.6954
975.31	511.3	-39.7129
975.41	511.2	-56.7306
975.51	511.1	-29.9896
975.61	511	-73.6971
975.71	510.9	-14.784
975.81	510.8	-104.423
975.91	510.7	-48.2683
976.01	510.6	-59.1141
976.11	510.5	-63.3392
976.21	510.4	-40.8059
976.31	510.3	-57.376
976.41	510.2	8.15719
976.51	510.1	37.6903
976.61	510	-27.4663
976.71	509.9	-56.8299
976.81	509.8	-9.53844
976.91	509.7	21.4426
977.01	509.6	-48.5764
977.11	509.5	24.7493
977.21	509.4	-43.2354
977.31	509.3	-57.1857
977.41	509.2	-21.8257
977.51	509.1	-38.9831
977.61	509	-37.106
977.71	508.9	24.5641
977.81	508.8	-20.9728
977.91	508.7	-113.924
978.01	508.6	-95.1158
978.11	508.5	-21.2391
978.21	508.4	-1.60389
978.31	508.3	-102.693
978.41	508.2	-151.265
978.51	508.1	-84.871
978.61	508	-45.8568
978.71	507.9	-26.1529
978.81	507.8	-55.0353
978.91	507.7	-62.6075
979.01	507.6	-12.49
979.11	507.5	-0.889881
979.21	507.4	-87.7381
979.31	507.3	-42.4829
979.41	507.2	-56.8829
979.51	507.1	-64.8003
979.61	507	-17.2349
979.71	506.9	15.3993
979.81	506.8	-49.932
979.91	506.7	-56.022
980.01	506.6	-14.0775
980.11	506.5	-73.7194
980.21	506.4	32.9836
980.31	506.3	58.7209
980.41	506.2	1.69964
980.51	506.1	-15.5286
980.61	506	-41.2742
980.71	505.9	-93.4335
980.81	505.8	-27.9378
980.91	505.7	-34.5456
981.01	505.6	-63.7396
981.11	505.5	-64.175
981.21	505.4	-78.1278
981.31	505.3	-113.77
981.41	505.2	-58.5851
981.51	505.1	-49.5035
981.61	505	-14.8357
981.71	504.9	13.3493
981.81	504.8	-26.8796
981.91	504.7	-37.4533
982.01	504.6	1.31779
982.11	504.5	-20.7388
982.21	504.4	-18.5195
982.31	504.3	-52.7141
982.41	504.2	-54.219
982.51	504.1	-66.6895
982.61	504	-38.4014
982.71	503.9	-16.5272
982.81	503.8	-53.8598
982.91	503.7	-44.8822
983.01	503.6	-30.3873
983.11	503.5	-19.2029
983.21	503.4	-66.7081
983.31	503.3	-8.42019
983.41	503.2	-2.89097
983.51	503.1	-38.879
983.61	503	-81.9361
983.71	502.9	-12.7862
983.81	502.8	-27.5674
983.91	502.7	-59.0384
984.01	502.6	-43.4058
984.11	502.5	-50.9457
984.21	502.4	-50.0029
984.31	502.3	-2.02564
984.41	502.2	-23.3932
984.51	502.1	11.584
984.61	502	-79.887
984.71	501.9	-24.7029
984.81	501.8	-58.1395
984.91	501.7	-31.1623
985.01	501.6	-5.52997
985.11	501.5	-7.62178
985.21	501.4	-73.8171
985.31	501.3	-31.7365
985.41	501.2	-21.6559
985.51	501.1	2.5281
985.61	501	-39.081
985.71	500.9	-9.44875
985.81	500.8	-56.1268
985.91	500.7	-55.0808
986.01	500.6	-35.9658
986.11	500.5	-9.09218
986.21	500.4	-120.77
986.31	500.3	-122.931
986.41	500.2	-11.4369
986.51	500.1	-7.04602
986.61	500	0