c:\users\mark\owncloud\muelheim group\projects\gas phase background\ex340_cec356_ag he largearea.vms
Ag4d
	Characteristic Energy eV	1486.61	Acquisition Time s	2.9
KE_Ag4d	BE_Ag4d	CPS_Ag4d
1346.61	140	1531.57
1346.71	139.9	1587.66
1346.81	139.8	1596.56
1346.91	139.7	1561.03
1347.01	139.6	1594.98
1347.11	139.5	1579.36
1347.21	139.4	1580.88
1347.31	139.3	1562.25
1347.41	139.2	1577.81
1347.51	139.1	1582.44
1347.61	139	1585.29
1347.71	138.9	1560.07
1347.81	138.8	1546.73
1347.91	138.7	1567.07
1348.01	138.6	1601.33
1348.11	138.5	1595.98
1348.21	138.4	1601.76
1348.31	138.3	1581.15
1348.41	138.2	1595.72
1348.51	138.1	1552.1
1348.61	138	1565.14
1348.71	137.9	1574.48
1348.81	137.8	1606.91
1348.91	137.7	1597.81
1349.01	137.6	1590.75
1349.11	137.5	1596.46
1349.21	137.4	1575.05
1349.31	137.3	1603.74
1349.41	137.2	1575.78
1349.51	137.1	1573.25
1349.61	137	1558.61
1349.71	136.9	1559.16
1349.81	136.8	1560.16
1349.91	136.7	1584.29
1350.01	136.6	1594.6
1350.11	136.5	1597.58
1350.21	136.4	1561.45
1350.31	136.3	1589.03
1350.41	136.2	1614.25
1350.51	136.1	1576.3
1350.61	136	1613.44
1350.71	135.9	1574.84
1350.81	135.8	1571.79
1350.91	135.7	1560.37
1351.01	135.6	1573.79
1351.11	135.5	1572.7
1351.21	135.4	1566.43
1351.31	135.3	1623.91
1351.41	135.2	1624.88
1351.51	135.1	1617.27
1351.61	135	1598.06
1351.71	134.9	1563.42
1351.81	134.8	1604.7
1351.91	134.7	1588.67
1352.01	134.6	1608.64
1352.11	134.5	1581.95
1352.21	134.4	1592.03
1352.31	134.3	1623.02
1352.41	134.2	1574.17
1352.51	134.1	1599.77
1352.61	134	1598.85
1352.71	133.9	1562.5
1352.81	133.8	1588.67
1352.91	133.7	1594.83
1353.01	133.6	1600.33
1353.11	133.5	1597.29
1353.21	133.4	1569.76
1353.31	133.3	1600.13
1353.41	133.2	1636.42
1353.51	133.1	1593.68
1353.61	133	1573.49
1353.71	132.9	1585.12
1353.81	132.8	1636.76
1353.91	132.7	1608.97
1354.01	132.6	1614.98
1354.11	132.5	1609.35
1354.21	132.4	1623.41
1354.31	132.3	1590.28
1354.41	132.2	1589.73
1354.51	132.1	1610.82
1354.61	132	1612.53
1354.71	131.9	1606.93
1354.81	131.8	1603.3
1354.91	131.7	1608.42
1355.01	131.6	1588.62
1355.11	131.5	1602.7
1355.21	131.4	1609.32
1355.31	131.3	1601.81
1355.41	131.2	1618.63
1355.51	131.1	1621.58
1355.61	131	1618.72
1355.71	130.9	1601.18
1355.81	130.8	1627.61
1355.91	130.7	1616.35
1356.01	130.6	1611.18
1356.11	130.5	1586.69
1356.21	130.4	1595.88
1356.31	130.3	1611.99
1356.41	130.2	1625.16
1356.51	130.1	1592.8
1356.61	130	1627.86
1356.71	129.9	1616.16
1356.81	129.8	1613.75
1356.91	129.7	1632.91
1357.01	129.6	1639.18
1357.11	129.5	1594.15
1357.21	129.4	1581.24
1357.31	129.3	1619.8
1357.41	129.2	1635.39
1357.51	129.1	1607.1
1357.61	129	1607.99
1357.71	128.9	1614.21
1357.81	128.8	1618.26
1357.91	128.7	1618.62
1358.01	128.6	1617.69
1358.11	128.5	1594.84
1358.21	128.4	1596.05
1358.31	128.3	1621.41
1358.41	128.2	1627.27
1358.51	128.1	1625.6
1358.61	128	1615.19
1358.71	127.9	1597.09
1358.81	127.8	1630.68
1358.91	127.7	1609.64
1359.01	127.6	1609.43
1359.11	127.5	1616.44
1359.21	127.4	1610.31
1359.31	127.3	1641.54
1359.41	127.2	1648.83
1359.51	127.1	1606.99
1359.61	127	1618.04
1359.71	126.9	1618.81
1359.81	126.8	1663.09
1359.91	126.7	1626.07
1360.01	126.6	1644.05
1360.11	126.5	1613.29
1360.21	126.4	1616.49
1360.31	126.3	1616.97
1360.41	126.2	1599.72
1360.51	126.1	1589.06
1360.61	126	1625.24
1360.71	125.9	1628.75
1360.81	125.8	1641.42
1360.91	125.7	1609.61
1361.01	125.6	1616.13
1361.11	125.5	1648.94
1361.21	125.4	1628.48
1361.31	125.3	1648.19
1361.41	125.2	1644.29
1361.51	125.1	1645.22
1361.61	125	1659.16
1361.71	124.9	1645.38
1361.81	124.8	1636.69
1361.91	124.7	1608.06
1362.01	124.6	1627.65
1362.11	124.5	1632.53
1362.21	124.4	1628.91
1362.31	124.3	1596.09
1362.41	124.2	1619.46
1362.51	124.1	1656.22
1362.61	124	1648.79
1362.71	123.9	1654.32
1362.81	123.8	1633.85
1362.91	123.7	1654.99
1363.01	123.6	1682.78
1363.11	123.5	1672.67
1363.21	123.4	1666.69
1363.31	123.3	1620.88
1363.41	123.2	1624.12
1363.51	123.1	1642.97
1363.61	123	1627.4
1363.71	122.9	1628.73
1363.81	122.8	1687.49
1363.91	122.7	1692.44
1364.01	122.6	1656.76
1364.11	122.5	1650.99
1364.21	122.4	1673.33
1364.31	122.3	1687.8
1364.41	122.2	1639.52
1364.51	122.1	1635.66
1364.61	122	1676.06
1364.71	121.9	1692.91
1364.81	121.8	1634.48
1364.91	121.7	1589.4
1365.01	121.6	1647.83
1365.11	121.5	1673.57
1365.21	121.4	1648.9
1365.31	121.3	1645.87
1365.41	121.2	1646.1
1365.51	121.1	1663.19
1365.61	121	1678.39
1365.71	120.9	1686.96
1365.81	120.8	1691.04
1365.91	120.7	1657.33
1366.01	120.6	1642.75
1366.11	120.5	1638.27
1366.21	120.4	1666.72
1366.31	120.3	1658.24
1366.41	120.2	1660.04
1366.51	120.1	1657.46
1366.61	120	1647.93
1366.71	119.9	1644.73
1366.81	119.8	1664.93
1366.91	119.7	1680.8
1367.01	119.6	1669.18
1367.11	119.5	1658.42
1367.21	119.4	1647.66
1367.31	119.3	1640.3
1367.41	119.2	1678.79
1367.51	119.1	1685.69
1367.61	119	1678.72
1367.71	118.9	1621.94
1367.81	118.8	1652.32
1367.91	118.7	1667.36
1368.01	118.6	1656.87
1368.11	118.5	1693.79
1368.21	118.4	1670.53
1368.31	118.3	1632.78
1368.41	118.2	1658.51
1368.51	118.1	1657.73
1368.61	118	1661.59
1368.71	117.9	1640.27
1368.81	117.8	1655.85
1368.91	117.7	1677.42
1369.01	117.6	1669.87
1369.11	117.5	1648.12
1369.21	117.4	1635.16
1369.31	117.3	1688.26
1369.41	117.2	1658.86
1369.51	117.1	1641.39
1369.61	117	1642.99
1369.71	116.9	1671.04
1369.81	116.8	1678.42
1369.91	116.7	1679.88
1370.01	116.6	1666.11
1370.11	116.5	1602.38
1370.21	116.4	1637.91
1370.31	116.3	1651.88
1370.41	116.2	1619.76
1370.51	116.1	1625.1
1370.61	116	1670.47
1370.71	115.9	1633.72
1370.81	115.8	1666.45
1370.91	115.7	1647.87
1371.01	115.6	1601.49
1371.11	115.5	1618.51
1371.21	115.4	1600.02
1371.31	115.3	1663.76
1371.41	115.2	1686.73
1371.51	115.1	1652.92
1371.61	115	1617.12
1371.71	114.9	1632.65
1371.81	114.8	1651.69
1371.91	114.7	1651.18
1372.01	114.6	1666.81
1372.11	114.5	1661.86
1372.21	114.4	1631.77
1372.31	114.3	1633.89
1372.41	114.2	1631.74
1372.51	114.1	1628.11
1372.61	114	1649.76
1372.71	113.9	1651.97
1372.81	113.8	1673.04
1372.91	113.7	1640.64
1373.01	113.6	1632.09
1373.11	113.5	1624.71
1373.21	113.4	1641.51
1373.31	113.3	1643.03
1373.41	113.2	1640.76
1373.51	113.1	1664.3
1373.61	113	1665.49
1373.71	112.9	1663.15
1373.81	112.8	1630.79
1373.91	112.7	1651.73
1374.01	112.6	1621.27
1374.11	112.5	1663.08
1374.21	112.4	1646.61
1374.31	112.3	1654.88
1374.41	112.2	1650.07
1374.51	112.1	1655
1374.61	112	1664.12
1374.71	111.9	1616.88
1374.81	111.8	1658.96
1374.91	111.7	1663.26
1375.01	111.6	1640.59
1375.11	111.5	1666.7
1375.21	111.4	1672.66
1375.31	111.3	1671.57
1375.41	111.2	1653.53
1375.51	111.1	1643.48
1375.61	111	1674.41
1375.71	110.9	1670.5
1375.81	110.8	1667.17
1375.91	110.7	1647.63
1376.01	110.6	1663.27
1376.11	110.5	1637.82
1376.21	110.4	1676.9
1376.31	110.3	1664.36
1376.41	110.2	1661.63
1376.51	110.1	1659.02
1376.61	110	1663.81
1376.71	109.9	1684.81
1376.81	109.8	1677
1376.91	109.7	1674.92
1377.01	109.6	1691.61
1377.11	109.5	1681.86
1377.21	109.4	1662.61
1377.31	109.3	1620.17
1377.41	109.2	1680.53
1377.51	109.1	1678.97
1377.61	109	1648.82
1377.71	108.9	1646.7
1377.81	108.8	1641.84
1377.91	108.7	1673.19
1378.01	108.6	1710.8
1378.11	108.5	1667.75
1378.21	108.4	1672.11
1378.31	108.3	1685.83
1378.41	108.2	1689.08
1378.51	108.1	1668.59
1378.61	108	1689.58
1378.71	107.9	1674.9
1378.81	107.8	1667.23
1378.91	107.7	1665.79
1379.01	107.6	1672.87
1379.11	107.5	1685.6
1379.21	107.4	1696.6
1379.31	107.3	1659.26
1379.41	107.2	1664.27
1379.51	107.1	1717.57
1379.61	107	1695.42
1379.71	106.9	1671.96
1379.81	106.8	1694.04
1379.91	106.7	1674.78
1380.01	106.6	1639.82
1380.11	106.5	1696.87
1380.21	106.4	1696.65
1380.31	106.3	1677.12
1380.41	106.2	1684.47
1380.51	106.1	1735.53
1380.61	106	1722.38
1380.71	105.9	1696.28
1380.81	105.8	1677.6
1380.91	105.7	1687.19
1381.01	105.6	1656.48
1381.11	105.5	1695.04
1381.21	105.4	1695.36
1381.31	105.3	1731.6
1381.41	105.2	1697.09
1381.51	105.1	1683.73
1381.61	105	1703.61
1381.71	104.9	1708.35
1381.81	104.8	1702.87
1381.91	104.7	1717.42
1382.01	104.6	1716.35
1382.11	104.5	1734.71
1382.21	104.4	1723.47
1382.31	104.3	1703.57
1382.41	104.2	1711.65
1382.51	104.1	1694.45
1382.61	104	1721.92
1382.71	103.9	1729
1382.81	103.8	1779.58
1382.91	103.7	1748.94
1383.01	103.6	1738.26
1383.11	103.5	1771.56
1383.21	103.4	1736.86
1383.31	103.3	1740.93
1383.41	103.2	1765.7
1383.51	103.1	1784.26
1383.61	103	1752.47
1383.71	102.9	1775.26
1383.81	102.8	1765.57
1383.91	102.7	1770.68
1384.01	102.6	1769.64
1384.11	102.5	1775.17
1384.21	102.4	1801.07
1384.31	102.3	1817.61
1384.41	102.2	1795.76
1384.51	102.1	1796.53
1384.61	102	1798.58
1384.71	101.9	1813.23
1384.81	101.8	1797.64
1384.91	101.7	1803.11
1385.01	101.6	1822.72
1385.11	101.5	1840.06
1385.21	101.4	1841.97
1385.31	101.3	1829.32
1385.41	101.2	1847.06
1385.51	101.1	1861.23
1385.61	101	1840.03
1385.71	100.9	1878.72
1385.81	100.8	1843.14
1385.91	100.7	1827.91
1386.01	100.6	1880.34
1386.11	100.5	1916.13
1386.21	100.4	1872.46
1386.31	100.3	1879.59
1386.41	100.2	1882.22
1386.51	100.1	1916.14
1386.61	100	1923.99
1386.71	99.9	1983.98
1386.81	99.8	1990.08
1386.91	99.7	1962.77
1387.01	99.6	2004.26
1387.11	99.5	1999.82
1387.21	99.4	2002.62
1387.31	99.3	2015.85
1387.41	99.2	2076.77
1387.51	99.1	2084.07
1387.61	99	2086.86
1387.71	98.9	2123.76
1387.81	98.8	2129.07
1387.91	98.7	2146.35
1388.01	98.6	2168.86
1388.11	98.5	2174.96
1388.21	98.4	2196.78
1388.31	98.3	2160.23
1388.41	98.2	2185.93
1388.51	98.1	2292.4
1388.61	98	2292.26
1388.71	97.9	2236.23
1388.81	97.8	2249.99
1388.91	97.7	2290.84
1389.01	97.6	2299.3
1389.11	97.5	2337.68
1389.21	97.4	2334.11
1389.31	97.3	2326.74
1389.41	97.2	2333.36
1389.51	97.1	2324.29
1389.61	97	2304.01
1389.71	96.9	2293.64
1389.81	96.8	2332.62
1389.91	96.7	2270.44
1390.01	96.6	2244.94
1390.11	96.5	2262.73
1390.21	96.4	2233.52
1390.31	96.3	2213.31
1390.41	96.2	2183.46
1390.51	96.1	2202.25
1390.61	96	2164.65
1390.71	95.9	2141.22
1390.81	95.8	2137.39
1390.91	95.7	2108.54
1391.01	95.6	2130.16
1391.11	95.5	2100.12
1391.21	95.4	2065.33
1391.31	95.3	2055.68
1391.41	95.2	2007.14
1391.51	95.1	2023.58
1391.61	95	1976.39
1391.71	94.9	1978.83
1391.81	94.8	1942.04
1391.91	94.7	1933.17
1392.01	94.6	1904.48
1392.11	94.5	1851.2
1392.21	94.4	1860.03
1392.31	94.3	1883.04
1392.41	94.2	1841.34
1392.51	94.1	1852.62
1392.61	94	1845.14
1392.71	93.9	1806.96
1392.81	93.8	1811.14
1392.91	93.7	1797.86
1393.01	93.6	1808.29
1393.11	93.5	1767.32
1393.21	93.4	1760.5
1393.31	93.3	1762.64
1393.41	93.2	1745.9
1393.51	93.1	1746.1
1393.61	93	1750.77
1393.71	92.9	1718.11
1393.81	92.8	1705.58
1393.91	92.7	1703.07
1394.01	92.6	1726.61
1394.11	92.5	1713.24
1394.21	92.4	1688.99
1394.31	92.3	1675.69
1394.41	92.2	1711.13
1394.51	92.1	1720.32
1394.61	92	1690.29
1394.71	91.9	1668.01
1394.81	91.8	1667.77
1394.91	91.7	1676.9
1395.01	91.6	1708.72
1395.11	91.5	1665.09
1395.21	91.4	1683.6
1395.31	91.3	1684.78
1395.41	91.2	1649.08
1395.51	91.1	1650.29
1395.61	91	1651.68
1395.71	90.9	1645.33
1395.81	90.8	1652.56
1395.91	90.7	1676.95
1396.01	90.6	1677.46
1396.11	90.5	1666.17
1396.21	90.4	1649.84
1396.31	90.3	1666.04
1396.41	90.2	1643.92
1396.51	90.1	1657.67
1396.61	90	1626.61
1396.71	89.9	1645.79
1396.81	89.8	1657.3
1396.91	89.7	1625.83
1397.01	89.6	1683.3
1397.11	89.5	1668.47
1397.21	89.4	1637.75
1397.31	89.3	1656.38
1397.41	89.2	1654.84
1397.51	89.1	1659.37
1397.61	89	1624.02
1397.71	88.9	1642.09
1397.81	88.8	1674.04
1397.91	88.7	1673.38
1398.01	88.6	1651.09
1398.11	88.5	1651.53
1398.21	88.4	1625.43
1398.31	88.3	1633.53
1398.41	88.2	1683.11
1398.51	88.1	1646.47
1398.61	88	1647.16
1398.71	87.9	1631.63
1398.81	87.8	1653.67
1398.91	87.7	1641.37
1399.01	87.6	1635.51
1399.11	87.5	1694.94
1399.21	87.4	1681.55
1399.31	87.3	1675.22
1399.41	87.2	1671.56
1399.51	87.1	1657.6
1399.61	87	1641.41
1399.71	86.9	1645.64
1399.81	86.8	1653.15
1399.91	86.7	1662.41
1400.01	86.6	1644.99
1400.11	86.5	1661.19
1400.21	86.4	1661.6
1400.31	86.3	1646.78
1400.41	86.2	1645.68
1400.51	86.1	1655.54
1400.61	86	1653.17
1400.71	85.9	1671.08
1400.81	85.8	1643.11
1400.91	85.7	1647.96
1401.01	85.6	1671.81
1401.11	85.5	1636.48
1401.21	85.4	1646.65
1401.31	85.3	1609.14
1401.41	85.2	1617.78
1401.51	85.1	1653.82
1401.61	85	1635.52
1401.71	84.9	1654.11
1401.81	84.8	1637.98
1401.91	84.7	1625.81
1402.01	84.6	1653.05
1402.11	84.5	1630.33
1402.21	84.4	1631.34
1402.31	84.3	1657.48
1402.41	84.2	1668.36
1402.51	84.1	1679.43
1402.61	84	1615.92
1402.71	83.9	1663.73
1402.81	83.8	1653.27
1402.91	83.7	1648.66
1403.01	83.6	1662.44
1403.11	83.5	1650.21
1403.21	83.4	1633.18
1403.31	83.3	1641.13
1403.41	83.2	1646.99
1403.51	83.1	1633.65
1403.61	83	1646.36
1403.71	82.9	1619.53
1403.81	82.8	1637.93
1403.91	82.7	1670.76
1404.01	82.6	1659.36
1404.11	82.5	1639.12
1404.21	82.4	1661.62
1404.31	82.3	1641.69
1404.41	82.2	1619.13
1404.51	82.1	1621.58
1404.61	82	1638.93
1404.71	81.9	1655.77
1404.81	81.8	1640.98
1404.91	81.7	1644.8
1405.01	81.6	1629.71
1405.11	81.5	1650.94
1405.21	81.4	1673.74
1405.31	81.3	1648.51
1405.41	81.2	1656.19
1405.51	81.1	1670.42
1405.61	81	1637.89
1405.71	80.9	1635.09
1405.81	80.8	1628.52
1405.91	80.7	1607.13
1406.01	80.6	1614.79
1406.11	80.5	1638.1
1406.21	80.4	1596.97
1406.31	80.3	1602.08
1406.41	80.2	1613.64
1406.51	80.1	1652.53
1406.61	80	1614.01
1406.71	79.9	1612.34
1406.81	79.8	1599.8
1406.91	79.7	1635.24
1407.01	79.6	1615.7
1407.11	79.5	1625.31
1407.21	79.4	1625.58
1407.31	79.3	1628.1
1407.41	79.2	1638.09
1407.51	79.1	1625.98
1407.61	79	1616.4
1407.71	78.9	1601.53
1407.81	78.8	1592.49
1407.91	78.7	1599.53
1408.01	78.6	1616.76
1408.11	78.5	1595.72
1408.21	78.4	1621.25
1408.31	78.3	1587.19
1408.41	78.2	1582.4
1408.51	78.1	1557.74
1408.61	78	1572.12
1408.71	77.9	1620.97
1408.81	77.8	1622.5
1408.91	77.7	1589.21
1409.01	77.6	1563.69
1409.11	77.5	1600.12
1409.21	77.4	1561.22
1409.31	77.3	1572.67
1409.41	77.2	1584.24
1409.51	77.1	1564.25
1409.61	77	1586.16
1409.71	76.9	1606.1
1409.81	76.8	1595.15
1409.91	76.7	1586.81
1410.01	76.6	1556.59
1410.11	76.5	1565.83
1410.21	76.4	1566.52
1410.31	76.3	1573.15
1410.41	76.2	1570.64
1410.51	76.1	1587.76
1410.61	76	1611.38
1410.71	75.9	1594.94
1410.81	75.8	1584.09
1410.91	75.7	1583.13
1411.01	75.6	1617.77
1411.11	75.5	1554.25
1411.21	75.4	1556.2
1411.31	75.3	1551.68
1411.41	75.2	1541.18
1411.51	75.1	1563.35
1411.61	75	1578.57
1411.71	74.9	1592.48
1411.81	74.8	1554.22
1411.91	74.7	1569.3
1412.01	74.6	1552.72
1412.11	74.5	1564.21
1412.21	74.4	1535.62
1412.31	74.3	1559.74
1412.41	74.2	1541.51
1412.51	74.1	1547.95
1412.61	74	1574.33
1412.71	73.9	1579.98
1412.81	73.8	1581.92
1412.91	73.7	1571.01
1413.01	73.6	1567.21
1413.11	73.5	1551.73
1413.21	73.4	1584.3
1413.31	73.3	1568
1413.41	73.2	1569.37
1413.51	73.1	1573.44
1413.61	73	1612.5
1413.71	72.9	1578.94
1413.81	72.8	1572.7
1413.91	72.7	1587.2
1414.01	72.6	1607.04
1414.11	72.5	1613.64
1414.21	72.4	1587.2
1414.31	72.3	1592.85
1414.41	72.2	1598.2
1414.51	72.1	1587.71
1414.61	72	1598.23
1414.71	71.9	1640.52
1414.81	71.8	1611.26
1414.91	71.7	1639.75
1415.01	71.6	1600.45
1415.11	71.5	1587.34
1415.21	71.4	1635.18
1415.31	71.3	1608.31
1415.41	71.2	1647.02
1415.51	71.1	1606.73
1415.61	71	1621.97
1415.71	70.9	1630.56
1415.81	70.8	1648.99
1415.91	70.7	1627.78
1416.01	70.6	1696.94
1416.11	70.5	1677.21
1416.21	70.4	1661.37
1416.31	70.3	1663.11
1416.41	70.2	1652.98
1416.51	70.1	1667.45
1416.61	70	1660.38
1416.71	69.9	1637.33
1416.81	69.8	1688.32
1416.91	69.7	1692.92
1417.01	69.6	1684.36
1417.11	69.5	1683.83
1417.21	69.4	1700.69
1417.31	69.3	1682.9
1417.41	69.2	1665.13
1417.51	69.1	1693.76
1417.61	69	1728.62
1417.71	68.9	1733.06
1417.81	68.8	1724.29
1417.91	68.7	1748.06
1418.01	68.6	1785.02
1418.11	68.5	1774.28
1418.21	68.4	1775.28
1418.31	68.3	1763.49
1418.41	68.2	1789.14
1418.51	68.1	1789.17
1418.61	68	1796.61
1418.71	67.9	1846.16
1418.81	67.8	1818.8
1418.91	67.7	1845.94
1419.01	67.6	1856.43
1419.11	67.5	1882.84
1419.21	67.4	1876.82
1419.31	67.3	1874.18
1419.41	67.2	1916.73
1419.51	67.1	1906.43
1419.61	67	1934.26
1419.71	66.9	1954.16
1419.81	66.8	1941.49
1419.91	66.7	1912.47
1420.01	66.6	1982.08
1420.11	66.5	1999.12
1420.21	66.4	1996.35
1420.31	66.3	2020.11
1420.41	66.2	2054.41
1420.51	66.1	2068.31
1420.61	66	2072.68
1420.71	65.9	2086.39
1420.81	65.8	2052.86
1420.91	65.7	2087.77
1421.01	65.6	2100.25
1421.11	65.5	2110.36
1421.21	65.4	2122.62
1421.31	65.3	2122.9
1421.41	65.2	2119.6
1421.51	65.1	2143.13
1421.61	65	2107.51
1421.71	64.9	2153.24
1421.81	64.8	2170.35
1421.91	64.7	2194.32
1422.01	64.6	2190.09
1422.11	64.5	2167.43
1422.21	64.4	2185.46
1422.31	64.3	2245.39
1422.41	64.2	2252.87
1422.51	64.1	2236.08
1422.61	64	2291.38
1422.71	63.9	2257.73
1422.81	63.8	2234.33
1422.91	63.7	2223.2
1423.01	63.6	2241.02
1423.11	63.5	2273.54
1423.21	63.4	2257.65
1423.31	63.3	2299.49
1423.41	63.2	2304.75
1423.51	63.1	2325.73
1423.61	63	2302.39
1423.71	62.9	2265.02
1423.81	62.8	2263.31
1423.91	62.7	2300.33
1424.01	62.6	2310.72
1424.11	62.5	2298.55
1424.21	62.4	2326.94
1424.31	62.3	2348.49
1424.41	62.2	2359.87
1424.51	62.1	2341.54
1424.61	62	2328.72
1424.71	61.9	2377.21
1424.81	61.8	2377.03
1424.91	61.7	2342.46
1425.01	61.6	2337.69
1425.11	61.5	2379.21
1425.21	61.4	2363.72
1425.31	61.3	2405.65
1425.41	61.2	2416.53
1425.51	61.1	2396.04
1425.61	61	2374.42
1425.71	60.9	2399.6
1425.81	60.8	2396.37
1425.91	60.7	2473.09
1426.01	60.6	2388.63
1426.11	60.5	2408.41
1426.21	60.4	2498.9
1426.31	60.3	2440.72
1426.41	60.2	2416.98
1426.51	60.1	2442.21
1426.61	60	2463.93
1426.71	59.9	2464.98
1426.81	59.8	2510.26
1426.91	59.7	2494.8
1427.01	59.6	2464.64
1427.11	59.5	2478.33
1427.21	59.4	2451.92
1427.31	59.3	2504.6
1427.41	59.2	2479.41
1427.51	59.1	2449.69
1427.61	59	2472.16
1427.71	58.9	2526.02
1427.81	58.8	2508.48
1427.91	58.7	2495
1428.01	58.6	2444.72
1428.11	58.5	2476.63
1428.21	58.4	2492.04
1428.31	58.3	2464.04
1428.41	58.2	2458.64
1428.51	58.1	2481.73
1428.61	58	2481.81
1428.71	57.9	2432.46
1428.81	57.8	2430
1428.91	57.7	2439.5
1429.01	57.6	2414.57
1429.11	57.5	2414.06
1429.21	57.4	2409.05
1429.31	57.3	2420.47
1429.41	57.2	2320.2
1429.51	57.1	2311.39
1429.61	57	2338.85
1429.71	56.9	2311.9
1429.81	56.8	2283.98
1429.91	56.7	2269.09
1430.01	56.6	2264.57
1430.11	56.5	2239.47
1430.21	56.4	2163.96
1430.31	56.3	2169.43
1430.41	56.2	2164.39
1430.51	56.1	2103.82
1430.61	56	2067.31
1430.71	55.9	2018.29
1430.81	55.8	2014.16
1430.91	55.7	1998.76
1431.01	55.6	1989.1
1431.11	55.5	1942.66
1431.21	55.4	1882.86
1431.31	55.3	1903.42
1431.41	55.2	1861.66
1431.51	55.1	1826
1431.61	55	1812.41
1431.71	54.9	1779.66
1431.81	54.8	1738.79
1431.91	54.7	1749.97
1432.01	54.6	1689.54
1432.11	54.5	1639.26
1432.21	54.4	1657.55
1432.31	54.3	1605.55
1432.41	54.2	1586.97
1432.51	54.1	1567.8
1432.61	54	1531.91
1432.71	53.9	1510.68
1432.81	53.8	1469.92
1432.91	53.7	1459.16
1433.01	53.6	1461.71
1433.11	53.5	1420.41
1433.21	53.4	1387.02
1433.31	53.3	1355.28
1433.41	53.2	1365.66
1433.51	53.1	1378.47
1433.61	53	1331
1433.71	52.9	1290.87
1433.81	52.8	1273.55
1433.91	52.7	1285.94
1434.01	52.6	1282.28
1434.11	52.5	1224.57
1434.21	52.4	1215.36
1434.31	52.3	1199.08
1434.41	52.2	1195.69
1434.51	52.1	1210.16
1434.61	52	1158.25
1434.71	51.9	1149.11
1434.81	51.8	1146.19
1434.91	51.7	1129.17
1435.01	51.6	1119.9
1435.11	51.5	1103.06
1435.21	51.4	1102.61
1435.31	51.3	1076.74
1435.41	51.2	1038.6
1435.51	51.1	1070.31
1435.61	51	1067.49
1435.71	50.9	1065.89
1435.81	50.8	1054.56
1435.91	50.7	1011.74
1436.01	50.6	1010.41
1436.11	50.5	1027.91
1436.21	50.4	969.321
1436.31	50.3	950.621
1436.41	50.2	958.155
1436.51	50.1	973.603
1436.61	50	979.631
1436.71	49.9	959.769
1436.81	49.8	948.655
1436.91	49.7	952.376
1437.01	49.6	940.062
1437.11	49.5	937.428
1437.21	49.4	924.434
1437.31	49.3	920.241
1437.41	49.2	917.803
1437.51	49.1	904.141
1437.61	49	893.624
1437.71	48.9	913.062
1437.81	48.8	902.621
1437.91	48.7	893.307
1438.01	48.6	895.097
1438.11	48.5	880.083
1438.21	48.4	868.145
1438.31	48.3	884.3
1438.41	48.2	886.634
1438.51	48.1	870.203
1438.61	48	875.979
1438.71	47.9	847.676
1438.81	47.8	850.417
1438.91	47.7	826.531
1439.01	47.6	835.476
1439.11	47.5	844.159
1439.21	47.4	839.548
1439.31	47.3	832.269
1439.41	47.2	861.776
1439.51	47.1	831.548
1439.61	47	820.231
1439.71	46.9	831.2
1439.81	46.8	825.814
1439.91	46.7	812.852
1440.01	46.6	809.052
1440.11	46.5	810.348
1440.21	46.4	804.666
1440.31	46.3	809.748
1440.41	46.2	824.576
1440.51	46.1	813.59
1440.61	46	801.548
1440.71	45.9	805.91
1440.81	45.8	784.086
1440.91	45.7	771.324
1441.01	45.6	818.469
1441.11	45.5	812.328
1441.21	45.4	799.134
1441.31	45.3	784.831
1441.41	45.2	792.638
1441.51	45.1	793.962
1441.61	45	798.659
1441.71	44.9	777.259
1441.81	44.8	772.538
1441.91	44.7	793.19
1442.01	44.6	758.421
1442.11	44.5	757.593
1442.21	44.4	772.569
1442.31	44.3	777.755
1442.41	44.2	786.183
1442.51	44.1	773.541
1442.61	44	774.262
1442.71	43.9	781.714
1442.81	43.8	755.648
1442.91	43.7	771.469
1443.01	43.6	782.769
1443.11	43.5	787.272
1443.21	43.4	788.179
1443.31	43.3	768.483
1443.41	43.2	758.638
1443.51	43.1	764.731
1443.61	43	768.507
1443.71	42.9	773.572
1443.81	42.8	773.762
1443.91	42.7	762.848
1444.01	42.6	782.093
1444.11	42.5	780.734
1444.21	42.4	774.555
1444.31	42.3	768.207
1444.41	42.2	793.759
1444.51	42.1	791.821
1444.61	42	780.414
1444.71	41.9	790.272
1444.81	41.8	785.803
1444.91	41.7	781.424
1445.01	41.6	784.11
1445.11	41.5	770.462
1445.21	41.4	777.393
1445.31	41.3	792.276
1445.41	41.2	795.028
1445.51	41.1	775.928
1445.61	41	777.424
1445.71	40.9	781.655
1445.81	40.8	775.183
1445.91	40.7	763.379
1446.01	40.6	773.403
1446.11	40.5	747.462
1446.21	40.4	758.11
1446.31	40.3	766.179
1446.41	40.2	773.148
1446.51	40.1	805.059
1446.61	40	792.29
1446.71	39.9	769.503
1446.81	39.8	770.2
1446.91	39.7	755.248
1447.01	39.6	788.297
1447.11	39.5	797.117
1447.21	39.4	783.366
1447.31	39.3	771.262
1447.41	39.2	765.993
1447.51	39.1	791.707
1447.61	39	787.986
1447.71	38.9	770.548
1447.81	38.8	782.89
1447.91	38.7	791.372
1448.01	38.6	778.417
1448.11	38.5	786.755
1448.21	38.4	787.586
1448.31	38.3	802.962
1448.41	38.2	783.221
1448.51	38.1	769.214
1448.61	38	773.307
1448.71	37.9	775.707
1448.81	37.8	786.941
1448.91	37.7	788.421
1449.01	37.6	787.169
1449.11	37.5	754.483
1449.21	37.4	790.679
1449.31	37.3	778.593
1449.41	37.2	789.01
1449.51	37.1	785.614
1449.61	37	757
1449.71	36.9	811.624
1449.81	36.8	775.624
1449.91	36.7	791.921
1450.01	36.6	794.317
1450.11	36.5	772.29
1450.21	36.4	767.559
1450.31	36.3	763.221
1450.41	36.2	788.983
1450.51	36.1	798.748
1450.61	36	784.683
1450.71	35.9	774.466
1450.81	35.8	779.797
1450.91	35.7	794.283
1451.01	35.6	797.928
1451.11	35.5	830.552
1451.21	35.4	808.928
1451.31	35.3	786.083
1451.41	35.2	803.269
1451.51	35.1	813.379
1451.61	35	800.269
1451.71	34.9	811.441
1451.81	34.8	795.669
1451.91	34.7	811.179
1452.01	34.6	813.259
1452.11	34.5	801.738
1452.21	34.4	817.621
1452.31	34.3	808.328
1452.41	34.2	823.086
1452.51	34.1	819.166
1452.61	34	840.524
1452.71	33.9	865.852
1452.81	33.8	801.886
1452.91	33.7	814.562
1453.01	33.6	817.641
1453.11	33.5	805.462
1453.21	33.4	813.817
1453.31	33.3	828.507
1453.41	33.2	833.41
1453.51	33.1	848.441
1453.61	33	846.169
1453.71	32.9	862.341
1453.81	32.8	889.138
1453.91	32.7	840.883
1454.01	32.6	836.821
1454.11	32.5	846.269
1454.21	32.4	861.952
1454.31	32.3	841.866
1454.41	32.2	863.928
1454.51	32.1	855.8
1454.61	32	823.548
1454.71	31.9	851.91
1454.81	31.8	896.024
1454.91	31.7	847.797
1455.01	31.6	851.786
1455.11	31.5	882.255
1455.21	31.4	886.134
1455.31	31.3	874.193
1455.41	31.2	864.79
1455.51	31.1	883.855
1455.61	31	859.421
1455.71	30.9	872.055
1455.81	30.8	891.993
1455.91	30.7	860.738
1456.01	30.6	857.797
1456.11	30.5	881.286
1456.21	30.4	906.541
1456.31	30.3	881.9
1456.41	30.2	885.062
1456.51	30.1	896.793
1456.61	30	901.693
1456.71	29.9	896.921
1456.81	29.8	901.748
1456.91	29.7	898.521
1457.01	29.6	878.486
1457.11	29.5	896.972
1457.21	29.4	878.962
1457.31	29.3	861.359
1457.41	29.2	874.366
1457.51	29.1	868.541
1457.61	29	885.579
1457.71	28.9	889.91
1457.81	28.8	866.738
1457.91	28.7	892.8
1458.01	28.6	912.286
1458.11	28.5	917.717
1458.21	28.4	925.855
1458.31	28.3	949.493
1458.41	28.2	950.4
1458.51	28.1	941.072
1458.61	28	958.214
1458.71	27.9	940.038
1458.81	27.8	978.631
1458.91	27.7	947.448
1459.01	27.6	933.541
1459.11	27.5	913.069
1459.21	27.4	919.328
1459.31	27.3	928.862
1459.41	27.2	915.176
1459.51	27.1	914.224
1459.61	27	903.334
1459.71	26.9	890.069
1459.81	26.8	898.307
1459.91	26.7	879.652
1460.01	26.6	887.531
1460.11	26.5	886.148
1460.21	26.4	884.397
1460.31	26.3	884.031
1460.41	26.2	894.017
1460.51	26.1	953.045
1460.61	26	899.71
1460.71	25.9	890.955
1460.81	25.8	903.81
1460.91	25.7	896.555
1461.01	25.6	909.3
1461.11	25.5	897.31
1461.21	25.4	865.645
1461.31	25.3	841.452
1461.41	25.2	829.948
1461.51	25.1	790.334
1461.61	25	764.259
1461.71	24.9	745.172
1461.81	24.8	714.734
1461.91	24.7	712.114
1462.01	24.6	716.324
1462.11	24.5	713.369
1462.21	24.4	694.41
1462.31	24.3	711.955
1462.41	24.2	725.414
1462.51	24.1	716.59
1462.61	24	724.745
1462.71	23.9	694.986
1462.81	23.8	692.7
1462.91	23.7	716.003
1463.01	23.6	720.517
1463.11	23.5	696.39
1463.21	23.4	701.576
1463.31	23.3	710.124
1463.41	23.2	710
1463.51	23.1	726.593
1463.61	23	711.083
1463.71	22.9	709.455
1463.81	22.8	704.631
1463.91	22.7	715.441
1464.01	22.6	690.497
1464.11	22.5	692.721
1464.21	22.4	692.379
1464.31	22.3	704.266
1464.41	22.2	700.652
1464.51	22.1	692.897
1464.61	22	709.5
1464.71	21.9	709.307
1464.81	21.8	684.824
1464.91	21.7	682.855
1465.01	21.6	668.431
1465.11	21.5	679.241
1465.21	21.4	694.821
1465.31	21.3	700.559
1465.41	21.2	707.424
1465.51	21.1	722.634
1465.61	21	741.607
1465.71	20.9	757.407
1465.81	20.8	816.545
1465.91	20.7	781.652
1466.01	20.6	761.628
1466.11	20.5	745.352
1466.21	20.4	728.362
1466.31	20.3	675.124
1466.41	20.2	670.759
1466.51	20.1	702.272
1466.61	20	656.934
1466.71	19.9	654.059
1466.81	19.8	632.69
1466.91	19.7	642.452
1467.01	19.6	651.852
1467.11	19.5	637.134
1467.21	19.4	615.979
1467.31	19.3	643.372
1467.41	19.2	672.797
1467.51	19.1	656.669
1467.61	19	649.472
1467.71	18.9	644.531
1467.81	18.8	647.193
1467.91	18.7	651.672
1468.01	18.6	668.031
1468.11	18.5	661.272
1468.21	18.4	654.907
1468.31	18.3	665.717
1468.41	18.2	658.21
1468.51	18.1	657.821
1468.61	18	649.79
1468.71	17.9	638.655
1468.81	17.8	643.81
1468.91	17.7	702.648
1469.01	17.6	671.903
1469.11	17.5	656.966
1469.21	17.4	662.379
1469.31	17.3	673.572
1469.41	17.2	650.648
1469.51	17.1	658.517
1469.61	17	676.786
1469.71	16.9	670.407
1469.81	16.8	658.603
1469.91	16.7	651.772
1470.01	16.6	671.01
1470.11	16.5	649.686
1470.21	16.4	651.448
1470.31	16.3	655.755
1470.41	16.2	658.179
1470.51	16.1	658.359
1470.61	16	646.848
1470.71	15.9	668.207
1470.81	15.8	657.414
1470.91	15.7	655.603
1471.01	15.6	646.283
1471.11	15.5	652.748
1471.21	15.4	671.383
1471.31	15.3	677.879
1471.41	15.2	686.893
1471.51	15.1	664.855
1471.61	15	660.952
1471.71	14.9	659.728
1471.81	14.8	676.662
1471.91	14.7	697.434
1472.01	14.6	686.531
1472.11	14.5	668.614
1472.21	14.4	674.783
1472.31	14.3	672.269
1472.41	14.2	696.134
1472.51	14.1	687.1
1472.61	14	695.386
1472.71	13.9	687.29
1472.81	13.8	683.152
1472.91	13.7	683.697
1473.01	13.6	684.579
1473.11	13.5	693.069
1473.21	13.4	684.807
1473.31	13.3	694.728
1473.41	13.2	692.8
1473.51	13.1	681.624
1473.61	13	684.421
1473.71	12.9	695.583
1473.81	12.8	680.259
1473.91	12.7	681.445
1474.01	12.6	683.097
1474.11	12.5	687.238
1474.21	12.4	674.038
1474.31	12.3	671.279
1474.41	12.2	661.91
1474.51	12.1	663.224
1474.61	12	661.097
1474.71	11.9	659.003
1474.81	11.8	644.51
1474.91	11.7	627.134
1475.01	11.6	673.09
1475.11	11.5	662.352
1475.21	11.4	661.524
1475.31	11.3	660.197
1475.41	11.2	675.348
1475.51	11.1	695.321
1475.61	11	681.003
1475.71	10.9	667.652
1475.81	10.8	692.593
1475.91	10.7	696.062
1476.01	10.6	693.755
1476.11	10.5	704.269
1476.21	10.4	701.572
1476.31	10.3	719.776
1476.41	10.2	712.166
1476.51	10.1	727.207
1476.61	10	732.921
1476.71	9.9	734.028
1476.81	9.8	736.397
1476.91	9.7	740.1
1477.01	9.6	732.783
1477.11	9.5	737.279
1477.21	9.4	749.341
1477.31	9.3	741.317
1477.41	9.2	767.683
1477.51	9.1	793.741
1477.61	9	802.455
1477.71	8.9	816.324
1477.81	8.8	822.176
1477.91	8.7	834.052
1478.01	8.6	869.841
1478.11	8.5	916.731
1478.21	8.4	942.372
1478.31	8.3	995.376
1478.41	8.2	1048.59
1478.51	8.1	1131.06
1478.61	8	1232.06
1478.71	7.9	1363.47
1478.81	7.8	1554.71
1478.91	7.7	1775.15
1479.01	7.6	2017.45
1479.11	7.5	2372.7
1479.21	7.4	2739.12
1479.31	7.3	3160.08
1479.41	7.2	3555.52
1479.51	7.1	3905.24
1479.61	7	4198.21
1479.71	6.9	4377.45
1479.81	6.8	4537.28
1479.91	6.7	4707.24
1480.01	6.6	4766.34
1480.11	6.5	4809.41
1480.21	6.4	4855.62
1480.31	6.3	4916.52
1480.41	6.2	4926.48
1480.51	6.1	4830.52
1480.61	6	4802.28
1480.71	5.9	4732.76
1480.81	5.8	4811.55
1480.91	5.7	4988.79
1481.01	5.6	5089.59
1481.11	5.5	5271.97
1481.21	5.4	5340.31
1481.31	5.3	5453.48
1481.41	5.2	5544.14
1481.51	5.1	5717.38
1481.61	5	5835.1
1481.71	4.9	5834.86
1481.81	4.8	5808.72
1481.91	4.7	5772.38
1482.01	4.6	5595.1
1482.11	4.5	5484.03
1482.21	4.4	5267.62
1482.31	4.3	5083.21
1482.41	4.2	4752.66
1482.51	4.1	4213.34
1482.61	4	3501.79
1482.71	3.9	2617.11
1482.81	3.8	1784.14
1482.91	3.7	1168.19
1483.01	3.6	759.045
1483.11	3.5	549.414
1483.21	3.4	445.4
1483.31	3.3	398.069
1483.41	3.2	355.759
1483.51	3.1	358.1
1483.61	3	337.569
1483.71	2.9	312.885
1483.81	2.8	319.189
1483.91	2.7	308.151
1484.01	2.6	293.951
1484.11	2.5	291.55
1484.21	2.4	307.273
1484.31	2.3	299.605
1484.41	2.2	288.822
1484.51	2.1	286.326
1484.61	2	276.21
1484.71	1.9	282.341
1484.81	1.8	261.88
1484.91	1.7	261.02
1485.01	1.6	253.319
1485.11	1.5	249.287
1485.21	1.4	251.684
1485.31	1.3	240.095
1485.41	1.2	244.782
1485.51	1.1	238.441
1485.61	1	242.842
1485.71	0.9	239.67
1485.81	0.8	232.023
1485.91	0.7	224.445
1486.01	0.6	220.926
1486.11	0.5	226.784
1486.21	0.4	218.481
1486.31	0.3	194.656
1486.41	0.2	172.643
1486.51	0.1	151.358
1486.61	0	113.733
1486.71	-0.1	74.7572
1486.81	-0.2	45.4755
1486.91	-0.3	23.1171
1487.01	-0.4	15.6495
1487.11	-0.5	13.8013
1487.21	-0.6	8.51917
1487.31	-0.7	9.02676
1487.41	-0.8	10.4401
1487.51	-0.9	6.58341
1487.61	-1	7.54821
1487.71	-1.1	10.2933
1487.81	-1.2	8.80886
1487.91	-1.3	8.86679
1488.01	-1.4	6.97414
1488.11	-1.5	4.87038
1488.21	-1.6	7.16197
1488.31	-1.7	7.02545
1488.41	-1.8	9.00986
1488.51	-1.9	4.07572
1488.61	-2	4.00583