c:\users\mark\owncloud\muelheim group\projects\gas phase background\ex340_cec356_ag he largearea.vms
Ag4d
	Characteristic Energy eV	1486.61	Acquisition Time s	0.8
KE_Ag4d	BE_Ag4d	CPS_Ag4d
1346.61	140	1931.35
1346.71	139.9	1820.4
1346.81	139.8	1878.75
1346.91	139.7	1844.56
1347.01	139.6	1841.69
1347.11	139.5	1820.88
1347.21	139.4	1812.43
1347.31	139.3	1843.08
1347.41	139.2	1842.77
1347.51	139.1	1827.02
1347.61	139	1770.42
1347.71	138.9	1802.79
1347.81	138.8	1840.81
1347.91	138.7	1770.53
1348.01	138.6	1836.95
1348.11	138.5	1882.96
1348.21	138.4	1903.35
1348.31	138.3	1818
1348.41	138.2	1844.76
1348.51	138.1	1783.71
1348.61	138	1843.89
1348.71	137.9	1868.81
1348.81	137.8	1867.19
1348.91	137.7	1816.41
1349.01	137.6	1817.08
1349.11	137.5	1831.56
1349.21	137.4	1853.93
1349.31	137.3	1848.7
1349.41	137.2	1802.26
1349.51	137.1	1842.26
1349.61	137	1833.63
1349.71	136.9	1869.36
1349.81	136.8	1824.16
1349.91	136.7	1852.44
1350.01	136.6	1847.81
1350.11	136.5	1793.27
1350.21	136.4	1830.69
1350.31	136.3	1845.8
1350.41	136.2	1837.32
1350.51	136.1	1830.64
1350.61	136	1811.31
1350.71	135.9	1790.29
1350.81	135.8	1783.51
1350.91	135.7	1891.65
1351.01	135.6	1851.34
1351.11	135.5	1890.51
1351.21	135.4	1835.05
1351.31	135.3	1804.95
1351.41	135.2	1812.99
1351.51	135.1	1897.16
1351.61	135	1841.66
1351.71	134.9	1789.09
1351.81	134.8	1894.58
1351.91	134.7	1818.71
1352.01	134.6	1797.59
1352.11	134.5	1830.14
1352.21	134.4	1845.76
1352.31	134.3	1858.94
1352.41	134.2	1825.53
1352.51	134.1	1880.24
1352.61	134	1888.8
1352.71	133.9	1901.94
1352.81	133.8	1843.04
1352.91	133.7	1862.62
1353.01	133.6	1853.99
1353.11	133.5	1919.31
1353.21	133.4	1889.43
1353.31	133.3	1816
1353.41	133.2	1855.4
1353.51	133.1	1889.75
1353.61	133	1835.41
1353.71	132.9	1834.89
1353.81	132.8	1837.45
1353.91	132.7	1879.4
1354.01	132.6	1906.39
1354.11	132.5	1865.95
1354.21	132.4	1878.56
1354.31	132.3	1856.35
1354.41	132.2	1881.21
1354.51	132.1	1861.45
1354.61	132	1884.91
1354.71	131.9	1835.7
1354.81	131.8	1810.63
1354.91	131.7	1943.95
1355.01	131.6	1905.49
1355.11	131.5	1893.69
1355.21	131.4	1839.51
1355.31	131.3	1925.41
1355.41	131.2	1940.34
1355.51	131.1	1853.51
1355.61	131	1934.23
1355.71	130.9	1880.65
1355.81	130.8	1947.75
1355.91	130.7	1922.31
1356.01	130.6	1882.1
1356.11	130.5	1819.93
1356.21	130.4	1851.15
1356.31	130.3	1863.25
1356.41	130.2	1868.59
1356.51	130.1	1900.89
1356.61	130	1853.4
1356.71	129.9	1829.82
1356.81	129.8	1840.53
1356.91	129.7	1892.56
1357.01	129.6	1847.2
1357.11	129.5	1908.14
1357.21	129.4	1919.19
1357.31	129.3	1928.45
1357.41	129.2	1934.85
1357.51	129.1	1917.92
1357.61	129	1879.19
1357.71	128.9	1857.96
1357.81	128.8	1842.56
1357.91	128.7	1834.89
1358.01	128.6	1891
1358.11	128.5	1930.02
1358.21	128.4	1907.81
1358.31	128.3	1878.11
1358.41	128.2	1872.44
1358.51	128.1	1848.19
1358.61	128	1941.81
1358.71	127.9	1926.39
1358.81	127.8	1858.43
1358.91	127.7	1897.21
1359.01	127.6	1869.25
1359.11	127.5	1886.76
1359.21	127.4	1857.34
1359.31	127.3	1849.82
1359.41	127.2	1889.16
1359.51	127.1	1969.05
1359.61	127	1957.66
1359.71	126.9	1942.05
1359.81	126.8	1899.91
1359.91	126.7	1903.95
1360.01	126.6	1860.54
1360.11	126.5	1797.6
1360.21	126.4	1811.2
1360.31	126.3	1880.64
1360.41	126.2	1898.47
1360.51	126.1	1878.82
1360.61	126	1838.93
1360.71	125.9	1946.11
1360.81	125.8	1918.19
1360.91	125.7	1905.29
1361.01	125.6	1840.45
1361.11	125.5	1922.66
1361.21	125.4	1925.65
1361.31	125.3	1946.04
1361.41	125.2	1832.92
1361.51	125.1	1920.15
1361.61	125	1893.47
1361.71	124.9	1956.49
1361.81	124.8	1947.47
1361.91	124.7	1857.3
1362.01	124.6	1933.21
1362.11	124.5	1897.36
1362.21	124.4	1839.12
1362.31	124.3	1893.33
1362.41	124.2	1942.02
1362.51	124.1	1871.59
1362.61	124	1953.68
1362.71	123.9	1972.95
1362.81	123.8	1971.9
1362.91	123.7	1921.21
1363.01	123.6	1921.49
1363.11	123.5	1887.16
1363.21	123.4	1886.05
1363.31	123.3	1947.91
1363.41	123.2	1924.47
1363.51	123.1	1932.66
1363.61	123	1942.29
1363.71	122.9	1871.8
1363.81	122.8	1931.05
1363.91	122.7	1916.75
1364.01	122.6	1879.23
1364.11	122.5	1889.39
1364.21	122.4	1886.94
1364.31	122.3	1929.76
1364.41	122.2	1978.31
1364.51	122.1	1892.16
1364.61	122	1909.09
1364.71	121.9	1958.08
1364.81	121.8	1927.39
1364.91	121.7	1919.16
1365.01	121.6	1955.34
1365.11	121.5	1998.16
1365.21	121.4	1987.54
1365.31	121.3	1935.66
1365.41	121.2	1993.35
1365.51	121.1	1929.3
1365.61	121	1895.02
1365.71	120.9	1975.41
1365.81	120.8	1975.68
1365.91	120.7	1995.22
1366.01	120.6	1886.79
1366.11	120.5	1894.12
1366.21	120.4	1985.58
1366.31	120.3	1993.08
1366.41	120.2	1924.79
1366.51	120.1	1942.57
1366.61	120	1907.32
1366.71	119.9	1942.72
1366.81	119.8	1888.44
1366.91	119.7	1893.93
1367.01	119.6	1969.51
1367.11	119.5	1930.31
1367.21	119.4	1990.18
1367.31	119.3	1876.13
1367.41	119.2	1866.84
1367.51	119.1	1914.21
1367.61	119	1892.47
1367.71	118.9	1875.96
1367.81	118.8	1896.13
1367.91	118.7	1910.76
1368.01	118.6	1897.3
1368.11	118.5	1890.64
1368.21	118.4	1939.41
1368.31	118.3	1968.18
1368.41	118.2	1982.85
1368.51	118.1	1895.94
1368.61	118	1911.05
1368.71	117.9	1983.82
1368.81	117.8	1963.97
1368.91	117.7	1874.86
1369.01	117.6	1969.59
1369.11	117.5	1891.99
1369.21	117.4	1863
1369.31	117.3	1969.52
1369.41	117.2	1930.37
1369.51	117.1	1893.94
1369.61	117	1881.8
1369.71	116.9	1929.06
1369.81	116.8	1993.47
1369.91	116.7	1915.79
1370.01	116.6	1928.7
1370.11	116.5	1871.04
1370.21	116.4	1895.06
1370.31	116.3	1939.26
1370.41	116.2	1892.44
1370.51	116.1	1958.16
1370.61	116	1946.16
1370.71	115.9	1956.5
1370.81	115.8	1972.99
1370.91	115.7	1963.11
1371.01	115.6	1975.91
1371.11	115.5	1904.85
1371.21	115.4	1939.79
1371.31	115.3	1982.56
1371.41	115.2	2004.28
1371.51	115.1	1969.31
1371.61	115	1959.81
1371.71	114.9	1914.93
1371.81	114.8	1985.61
1371.91	114.7	1955.09
1372.01	114.6	1974.88
1372.11	114.5	1933.36
1372.21	114.4	1979.72
1372.31	114.3	1987.36
1372.41	114.2	2005.44
1372.51	114.1	1930.35
1372.61	114	1996.66
1372.71	113.9	1991.19
1372.81	113.8	1919.74
1372.91	113.7	1933.79
1373.01	113.6	1955.14
1373.11	113.5	1933.03
1373.21	113.4	1888.24
1373.31	113.3	1950.69
1373.41	113.2	1974.15
1373.51	113.1	1954.54
1373.61	113	2000.56
1373.71	112.9	2023.26
1373.81	112.8	2023.52
1373.91	112.7	1956.18
1374.01	112.6	1966.78
1374.11	112.5	1925.31
1374.21	112.4	2037.82
1374.31	112.3	1979.65
1374.41	112.2	1980.49
1374.51	112.1	1934.33
1374.61	112	1959.29
1374.71	111.9	1876.69
1374.81	111.8	1952.06
1374.91	111.7	1918.97
1375.01	111.6	1918.41
1375.11	111.5	1959.2
1375.21	111.4	1961.85
1375.31	111.3	1945.79
1375.41	111.2	1998.44
1375.51	111.1	1927.9
1375.61	111	1925.64
1375.71	110.9	1934.9
1375.81	110.8	1930.29
1375.91	110.7	2024.91
1376.01	110.6	1971.79
1376.11	110.5	2039.96
1376.21	110.4	2038.1
1376.31	110.3	1964.41
1376.41	110.2	1942.61
1376.51	110.1	1962.27
1376.61	110	1994.84
1376.71	109.9	2009.46
1376.81	109.8	1910.95
1376.91	109.7	1936.49
1377.01	109.6	1960.31
1377.11	109.5	1979.35
1377.21	109.4	1986.76
1377.31	109.3	2029.11
1377.41	109.2	1958.11
1377.51	109.1	2039.68
1377.61	109	2037.98
1377.71	108.9	1958.3
1377.81	108.8	1919.07
1377.91	108.7	1956.09
1378.01	108.6	2034.84
1378.11	108.5	2101.79
1378.21	108.4	1998.56
1378.31	108.3	1979.88
1378.41	108.2	2011.75
1378.51	108.1	2068.35
1378.61	108	2122.14
1378.71	107.9	2048.36
1378.81	107.8	1976.01
1378.91	107.7	2089.96
1379.01	107.6	2034.25
1379.11	107.5	1977.99
1379.21	107.4	2019.71
1379.31	107.3	1972.21
1379.41	107.2	1976.75
1379.51	107.1	2032.47
1379.61	107	1994.72
1379.71	106.9	1991.19
1379.81	106.8	2017.99
1379.91	106.7	2043.06
1380.01	106.6	2081.19
1380.11	106.5	2037.52
1380.21	106.4	2012.13
1380.31	106.3	1995.79
1380.41	106.2	2065.09
1380.51	106.1	2084
1380.61	106	2091.11
1380.71	105.9	2071.31
1380.81	105.8	2030.48
1380.91	105.7	2067
1381.01	105.6	2075.35
1381.11	105.5	2061.51
1381.21	105.4	2013.71
1381.31	105.3	2067.34
1381.41	105.2	2073.06
1381.51	105.1	2065.35
1381.61	105	2106.59
1381.71	104.9	2015.16
1381.81	104.8	2036.29
1381.91	104.7	2022.89
1382.01	104.6	2038.25
1382.11	104.5	2153.67
1382.21	104.4	2210
1382.31	104.3	2155.26
1382.41	104.2	2122.4
1382.51	104.1	2120.45
1382.61	104	2137.62
1382.71	103.9	2086.66
1382.81	103.8	2098.22
1382.91	103.7	2112.88
1383.01	103.6	2076.26
1383.11	103.5	2079.64
1383.21	103.4	2188.04
1383.31	103.3	2128.21
1383.41	103.2	2073.94
1383.51	103.1	2078.9
1383.61	103	2180.36
1383.71	102.9	2181.82
1383.81	102.8	2174.81
1383.91	102.7	2135.2
1384.01	102.6	2178.35
1384.11	102.5	2203.15
1384.21	102.4	2199
1384.31	102.3	2145.74
1384.41	102.2	2142.31
1384.51	102.1	2179.81
1384.61	102	2166.89
1384.71	101.9	2251.32
1384.81	101.8	2138.8
1384.91	101.7	2256.49
1385.01	101.6	2203.56
1385.11	101.5	2247.17
1385.21	101.4	2302.88
1385.31	101.3	2283.64
1385.41	101.2	2247.6
1385.51	101.1	2271.6
1385.61	101	2314.36
1385.71	100.9	2314.96
1385.81	100.8	2366.43
1385.91	100.7	2338.05
1386.01	100.6	2364.69
1386.11	100.5	2402.15
1386.21	100.4	2425.29
1386.31	100.3	2361.75
1386.41	100.2	2381.65
1386.51	100.1	2342.62
1386.61	100	2384.99
1386.71	99.9	2444.61
1386.81	99.8	2444.63
1386.91	99.7	2499.15
1387.01	99.6	2536.35
1387.11	99.5	2525.46
1387.21	99.4	2513.25
1387.31	99.3	2438.5
1387.41	99.2	2431.84
1387.51	99.1	2497.13
1387.61	99	2607.34
1387.71	98.9	2630.77
1387.81	98.8	2671.13
1387.91	98.7	2741.59
1388.01	98.6	2688.79
1388.11	98.5	2749.32
1388.21	98.4	2774.59
1388.31	98.3	2867.16
1388.41	98.2	2832.66
1388.51	98.1	2868.84
1388.61	98	2856.56
1388.71	97.9	2877.56
1388.81	97.8	2922
1388.91	97.7	2948.3
1389.01	97.6	2970.02
1389.11	97.5	2930.1
1389.21	97.4	2969.42
1389.31	97.3	3032.88
1389.41	97.2	3048.6
1389.51	97.1	2961.79
1389.61	97	2951.09
1389.71	96.9	3028.91
1389.81	96.8	2933.94
1389.91	96.7	2970.2
1390.01	96.6	2971.46
1390.11	96.5	2914.09
1390.21	96.4	2846.79
1390.31	96.3	2876.72
1390.41	96.2	2788.99
1390.51	96.1	2833.14
1390.61	96	2776.84
1390.71	95.9	2778.91
1390.81	95.8	2713.76
1390.91	95.7	2682.97
1391.01	95.6	2685.63
1391.11	95.5	2597.22
1391.21	95.4	2568.21
1391.31	95.3	2603.37
1391.41	95.2	2524.77
1391.51	95.1	2447.2
1391.61	95	2457.59
1391.71	94.9	2446.11
1391.81	94.8	2380.51
1391.91	94.7	2446.51
1392.01	94.6	2286.11
1392.11	94.5	2275.6
1392.21	94.4	2274.52
1392.31	94.3	2339.39
1392.41	94.2	2304.52
1392.51	94.1	2323.36
1392.61	94	2254.11
1392.71	93.9	2248.76
1392.81	93.8	2198.4
1392.91	93.7	2139.99
1393.01	93.6	2106.94
1393.11	93.5	2134.1
1393.21	93.4	2148.93
1393.31	93.3	2120.09
1393.41	93.2	2171.29
1393.51	93.1	2109.04
1393.61	93	2076.39
1393.71	92.9	2089.66
1393.81	92.8	2116.97
1393.91	92.7	2098.25
1394.01	92.6	1996.2
1394.11	92.5	2015.71
1394.21	92.4	2036.96
1394.31	92.3	2089.4
1394.41	92.2	2060.5
1394.51	92.1	1958.5
1394.61	92	1993.43
1394.71	91.9	2018.22
1394.81	91.8	2048.54
1394.91	91.7	2030.77
1395.01	91.6	2005.34
1395.11	91.5	2057.99
1395.21	91.4	2045.36
1395.31	91.3	2018.72
1395.41	91.2	1987
1395.51	91.1	1953.01
1395.61	91	1910.53
1395.71	90.9	1897.75
1395.81	90.8	1926.22
1395.91	90.7	1898.04
1396.01	90.6	1929.91
1396.11	90.5	1907.35
1396.21	90.4	2006.27
1396.31	90.3	1976.18
1396.41	90.2	1957.46
1396.51	90.1	1917.38
1396.61	90	1954.52
1396.71	89.9	1954.06
1396.81	89.8	1888.06
1396.91	89.7	1864.77
1397.01	89.6	1885.34
1397.11	89.5	1955.9
1397.21	89.4	1978.29
1397.31	89.3	1919.75
1397.41	89.2	1955.02
1397.51	89.1	1936.44
1397.61	89	1983.38
1397.71	88.9	1938.33
1397.81	88.8	1921.09
1397.91	88.7	1891.69
1398.01	88.6	1924.56
1398.11	88.5	1902.25
1398.21	88.4	1860.65
1398.31	88.3	1892.39
1398.41	88.2	1975.2
1398.51	88.1	1923.54
1398.61	88	1960.04
1398.71	87.9	1819.56
1398.81	87.8	1885.8
1398.91	87.7	1865.27
1399.01	87.6	1878.55
1399.11	87.5	1888
1399.21	87.4	1921.93
1399.31	87.3	1889.05
1399.41	87.2	1841.67
1399.51	87.1	1877.16
1399.61	87	1892.71
1399.71	86.9	1894.43
1399.81	86.8	1981.75
1399.91	86.7	1978
1400.01	86.6	1886.6
1400.11	86.5	1939.88
1400.21	86.4	2002.3
1400.31	86.3	1965.6
1400.41	86.2	1908.77
1400.51	86.1	1868.74
1400.61	86	1928.05
1400.71	85.9	1935.06
1400.81	85.8	1915.3
1400.91	85.7	1891.94
1401.01	85.6	1921.75
1401.11	85.5	1930.66
1401.21	85.4	1939.11
1401.31	85.3	1946.14
1401.41	85.2	1888
1401.51	85.1	1880.29
1401.61	85	1950.32
1401.71	84.9	1920.4
1401.81	84.8	1949.24
1401.91	84.7	1947.84
1402.01	84.6	1934.76
1402.11	84.5	1942.94
1402.21	84.4	1978.31
1402.31	84.3	1899.64
1402.41	84.2	1978.74
1402.51	84.1	1949.41
1402.61	84	1978.71
1402.71	83.9	1920.85
1402.81	83.8	1882.85
1402.91	83.7	1891.18
1403.01	83.6	1933.96
1403.11	83.5	1990.18
1403.21	83.4	1947.65
1403.31	83.3	1938.79
1403.41	83.2	1885.85
1403.51	83.1	1901.39
1403.61	83	1917.86
1403.71	82.9	1892.51
1403.81	82.8	1923.66
1403.91	82.7	1882.19
1404.01	82.6	1888.71
1404.11	82.5	1913.45
1404.21	82.4	1946.91
1404.31	82.3	1925.09
1404.41	82.2	1924.5
1404.51	82.1	1925
1404.61	82	1984.35
1404.71	81.9	1999.4
1404.81	81.8	1978.63
1404.91	81.7	1945.37
1405.01	81.6	1905.29
1405.11	81.5	1990.66
1405.21	81.4	1967.81
1405.31	81.3	1964.54
1405.41	81.2	1938.27
1405.51	81.1	1986.22
1405.61	81	2007.99
1405.71	80.9	1905.68
1405.81	80.8	1928.66
1405.91	80.7	1959.26
1406.01	80.6	1984.47
1406.11	80.5	1981.59
1406.21	80.4	1926.7
1406.31	80.3	1939.25
1406.41	80.2	1923.27
1406.51	80.1	1915.4
1406.61	80	1994.05
1406.71	79.9	1941.35
1406.81	79.8	2008.19
1406.91	79.7	1954.81
1407.01	79.6	1892.68
1407.11	79.5	1985.81
1407.21	79.4	1940.93
1407.31	79.3	1884.61
1407.41	79.2	1890.39
1407.51	79.1	1983.84
1407.61	79	1985.66
1407.71	78.9	1874.96
1407.81	78.8	1891.83
1407.91	78.7	1987.45
1408.01	78.6	2028.94
1408.11	78.5	1977.96
1408.21	78.4	1946.32
1408.31	78.3	2006.32
1408.41	78.2	2038.84
1408.51	78.1	1968.82
1408.61	78	1963.19
1408.71	77.9	1954.75
1408.81	77.8	1940.8
1408.91	77.7	1948.49
1409.01	77.6	1989.1
1409.11	77.5	2042
1409.21	77.4	2032.89
1409.31	77.3	2031.94
1409.41	77.2	2027.72
1409.51	77.1	2001.45
1409.61	77	1999.2
1409.71	76.9	1971.26
1409.81	76.8	1961.67
1409.91	76.7	2044.56
1410.01	76.6	2011.21
1410.11	76.5	1999.75
1410.21	76.4	2045.36
1410.31	76.3	2043.71
1410.41	76.2	1978.14
1410.51	76.1	1986.61
1410.61	76	1996.3
1410.71	75.9	1987.19
1410.81	75.8	2012.64
1410.91	75.7	1927.29
1411.01	75.6	2045.15
1411.11	75.5	2044.68
1411.21	75.4	1974.82
1411.31	75.3	1963.91
1411.41	75.2	2092.13
1411.51	75.1	2016
1411.61	75	2022.82
1411.71	74.9	2007.92
1411.81	74.8	2042.11
1411.91	74.7	2053.13
1412.01	74.6	2030.27
1412.11	74.5	2089.49
1412.21	74.4	2086.13
1412.31	74.3	2057.7
1412.41	74.2	2067.7
1412.51	74.1	2099.4
1412.61	74	2089.67
1412.71	73.9	2017.45
1412.81	73.8	2039.45
1412.91	73.7	2141.99
1413.01	73.6	2152.31
1413.11	73.5	2063.29
1413.21	73.4	2091.85
1413.31	73.3	2083.95
1413.41	73.2	2135.9
1413.51	73.1	2074.89
1413.61	73	2089.47
1413.71	72.9	2099.74
1413.81	72.8	2103.59
1413.91	72.7	2111.74
1414.01	72.6	2148.93
1414.11	72.5	2145.8
1414.21	72.4	2142.82
1414.31	72.3	2051.24
1414.41	72.2	2116.01
1414.51	72.1	2137
1414.61	72	2101.37
1414.71	71.9	2130.57
1414.81	71.8	2093.77
1414.91	71.7	2095.65
1415.01	71.6	2130.5
1415.11	71.5	2210.2
1415.21	71.4	2214.28
1415.31	71.3	2168.6
1415.41	71.2	2182.65
1415.51	71.1	2212.07
1415.61	71	2163.77
1415.71	70.9	2174.95
1415.81	70.8	2205.59
1415.91	70.7	2190.07
1416.01	70.6	2219.2
1416.11	70.5	2304.44
1416.21	70.4	2220.06
1416.31	70.3	2207.45
1416.41	70.2	2203.05
1416.51	70.1	2297.62
1416.61	70	2218.71
1416.71	69.9	2173.51
1416.81	69.8	2200.79
1416.91	69.7	2264.76
1417.01	69.6	2288.46
1417.11	69.5	2256.66
1417.21	69.4	2277.99
1417.31	69.3	2279.9
1417.41	69.2	2276.47
1417.51	69.1	2376.31
1417.61	69	2352.57
1417.71	68.9	2373.52
1417.81	68.8	2402.86
1417.91	68.7	2367.02
1418.01	68.6	2313.31
1418.11	68.5	2455.6
1418.21	68.4	2492.81
1418.31	68.3	2483.09
1418.41	68.2	2516.81
1418.51	68.1	2557.14
1418.61	68	2548.4
1418.71	67.9	2518.9
1418.81	67.8	2575.05
1418.91	67.7	2546.88
1419.01	67.6	2506.2
1419.11	67.5	2625.92
1419.21	67.4	2601.41
1419.31	67.3	2711.44
1419.41	67.2	2682.16
1419.51	67.1	2683.8
1419.61	67	2645.25
1419.71	66.9	2639.13
1419.81	66.8	2684.14
1419.91	66.7	2759.38
1420.01	66.6	2772.81
1420.11	66.5	2806.41
1420.21	66.4	2786.03
1420.31	66.3	2841.25
1420.41	66.2	2827.34
1420.51	66.1	2866.47
1420.61	66	2875.09
1420.71	65.9	2928.26
1420.81	65.8	2942.17
1420.91	65.7	2983.85
1421.01	65.6	2911.95
1421.11	65.5	2905.17
1421.21	65.4	2939.97
1421.31	65.3	2989
1421.41	65.2	2948.74
1421.51	65.1	2966.85
1421.61	65	3056.69
1421.71	64.9	2997.94
1421.81	64.8	3112.55
1421.91	64.7	3136.25
1422.01	64.6	3136.54
1422.11	64.5	3178.09
1422.21	64.4	3078.03
1422.31	64.3	3161.71
1422.41	64.2	3187.75
1422.51	64.1	3188.66
1422.61	64	3109.45
1422.71	63.9	3046.6
1422.81	63.8	3164.65
1422.91	63.7	3216.47
1423.01	63.6	3235.39
1423.11	63.5	3151.04
1423.21	63.4	3217.65
1423.31	63.3	3194.06
1423.41	63.2	3119.69
1423.51	63.1	3278.54
1423.61	63	3200.54
1423.71	62.9	3315.53
1423.81	62.8	3221.03
1423.91	62.7	3178.32
1424.01	62.6	3380.75
1424.11	62.5	3270.09
1424.21	62.4	3264.67
1424.31	62.3	3378.39
1424.41	62.2	3336.6
1424.51	62.1	3294.28
1424.61	62	3313.8
1424.71	61.9	3336.85
1424.81	61.8	3297.35
1424.91	61.7	3231.88
1425.01	61.6	3459.09
1425.11	61.5	3386.9
1425.21	61.4	3379.74
1425.31	61.3	3344.52
1425.41	61.2	3260.56
1425.51	61.1	3370.43
1425.61	61	3445.31
1425.71	60.9	3417.59
1425.81	60.8	3425.61
1425.91	60.7	3344.78
1426.01	60.6	3330.41
1426.11	60.5	3422.51
1426.21	60.4	3413.24
1426.31	60.3	3487.47
1426.41	60.2	3432.95
1426.51	60.1	3432.15
1426.61	60	3448.09
1426.71	59.9	3530.24
1426.81	59.8	3586.06
1426.91	59.7	3563.26
1427.01	59.6	3520.54
1427.11	59.5	3494.44
1427.21	59.4	3471.65
1427.31	59.3	3590.91
1427.41	59.2	3449.22
1427.51	59.1	3497.34
1427.61	59	3565.72
1427.71	58.9	3486.7
1427.81	58.8	3518.39
1427.91	58.7	3536.27
1428.01	58.6	3485.51
1428.11	58.5	3478.6
1428.21	58.4	3501.69
1428.31	58.3	3507.54
1428.41	58.2	3446.66
1428.51	58.1	3500.65
1428.61	58	3467.88
1428.71	57.9	3497.55
1428.81	57.8	3492.24
1428.91	57.7	3443.29
1429.01	57.6	3414.96
1429.11	57.5	3418.81
1429.21	57.4	3372.22
1429.31	57.3	3290.95
1429.41	57.2	3286.66
1429.51	57.1	3269.61
1429.61	57	3155.63
1429.71	56.9	3193.06
1429.81	56.8	3179.86
1429.91	56.7	3203.01
1430.01	56.6	3140.99
1430.11	56.5	3055.86
1430.21	56.4	2994.52
1430.31	56.3	3123.8
1430.41	56.2	3006.72
1430.51	56.1	2953.21
1430.61	56	2890.15
1430.71	55.9	2853.21
1430.81	55.8	2858.49
1430.91	55.7	2863.25
1431.01	55.6	2734.69
1431.11	55.5	2705.12
1431.21	55.4	2601.24
1431.31	55.3	2522.3
1431.41	55.2	2543.94
1431.51	55.1	2480.72
1431.61	55	2387.16
1431.71	54.9	2345.96
1431.81	54.8	2311.22
1431.91	54.7	2295.2
1432.01	54.6	2231.34
1432.11	54.5	2173.36
1432.21	54.4	2196.89
1432.31	54.3	2130.28
1432.41	54.2	2128.54
1432.51	54.1	2081.3
1432.61	54	2119
1432.71	53.9	2008.86
1432.81	53.8	1994.79
1432.91	53.7	2003.69
1433.01	53.6	1966.47
1433.11	53.5	1891.5
1433.21	53.4	1886.71
1433.31	53.3	1869.55
1433.41	53.2	1842.4
1433.51	53.1	1810.26
1433.61	53	1738.29
1433.71	52.9	1700.01
1433.81	52.8	1710.15
1433.91	52.7	1719.69
1434.01	52.6	1663.03
1434.11	52.5	1653.71
1434.21	52.4	1615.54
1434.31	52.3	1590.75
1434.41	52.2	1531.7
1434.51	52.1	1528.29
1434.61	52	1445.75
1434.71	51.9	1462.29
1434.81	51.8	1428.1
1434.91	51.7	1482.08
1435.01	51.6	1478.36
1435.11	51.5	1427.16
1435.21	51.4	1445.15
1435.31	51.3	1361.84
1435.41	51.2	1296.71
1435.51	51.1	1303.55
1435.61	51	1294.68
1435.71	50.9	1335.84
1435.81	50.8	1311.27
1435.91	50.7	1294.17
1436.01	50.6	1262.14
1436.11	50.5	1216.67
1436.21	50.4	1224.7
1436.31	50.3	1205.74
1436.41	50.2	1264.72
1436.51	50.1	1288.2
1436.61	50	1259.56
1436.71	49.9	1204.35
1436.81	49.8	1215.5
1436.91	49.7	1138.48
1437.01	49.6	1154.65
1437.11	49.5	1196.59
1437.21	49.4	1118.67
1437.31	49.3	1074.37
1437.41	49.2	1127.69
1437.51	49.1	1134.41
1437.61	49	1078.71
1437.71	48.9	1085.17
1437.81	48.8	1089.9
1437.91	48.7	1043.61
1438.01	48.6	1100.03
1438.11	48.5	1079.19
1438.21	48.4	1055.63
1438.31	48.3	1051.45
1438.41	48.2	1033.54
1438.51	48.1	1001.29
1438.61	48	1031.37
1438.71	47.9	1042.01
1438.81	47.8	988.631
1438.91	47.7	1015.43
1439.01	47.6	1033.37
1439.11	47.5	1023.88
1439.21	47.4	1007.34
1439.31	47.3	1014.05
1439.41	47.2	979.398
1439.51	47.1	987.159
1439.61	47	979.49
1439.71	46.9	956.644
1439.81	46.8	959.354
1439.91	46.7	936.224
1440.01	46.6	982.492
1440.11	46.5	987.394
1440.21	46.4	975.21
1440.31	46.3	970.43
1440.41	46.2	870.986
1440.51	46.1	925.049
1440.61	46	910.501
1440.71	45.9	939.732
1440.81	45.8	952.793
1440.91	45.7	966.736
1441.01	45.6	942.69
1441.11	45.5	943.174
1441.21	45.4	925.335
1441.31	45.3	879.952
1441.41	45.2	915.064
1441.51	45.1	980.59
1441.61	45	923.477
1441.71	44.9	943.312
1441.81	44.8	924.631
1441.91	44.7	938.045
1442.01	44.6	914.462
1442.11	44.5	908.474
1442.21	44.4	910.017
1442.31	44.3	876.584
1442.41	44.2	875.96
1442.51	44.1	864.86
1442.61	44	884.244
1442.71	43.9	917.814
1442.81	43.8	919.209
1442.91	43.7	896.816
1443.01	43.6	928.344
1443.11	43.5	888.456
1443.21	43.4	860.686
1443.31	43.3	857.285
1443.41	43.2	855.956
1443.51	43.1	867.936
1443.61	43	892.514
1443.71	42.9	907.772
1443.81	42.8	866.461
1443.91	42.7	865.266
1444.01	42.6	883.061
1444.11	42.5	863.591
1444.21	42.4	915.724
1444.31	42.3	917.682
1444.41	42.2	871.55
1444.51	42.1	866.052
1444.61	42	913.639
1444.71	41.9	903.581
1444.81	41.8	853.352
1444.91	41.7	888.332
1445.01	41.6	957.977
1445.11	41.5	927.867
1445.21	41.4	943.496
1445.31	41.3	903.776
1445.41	41.2	934.891
1445.51	41.1	860.842
1445.61	41	836.875
1445.71	40.9	923.644
1445.81	40.8	894.665
1445.91	40.7	940.845
1446.01	40.6	886.675
1446.11	40.5	908.931
1446.21	40.4	884.306
1446.31	40.3	897.564
1446.41	40.2	908.101
1446.51	40.1	892.436
1446.61	40	916.204
1446.71	39.9	895.06
1446.81	39.8	833.086
1446.91	39.7	895.241
1447.01	39.6	838.351
1447.11	39.5	887.709
1447.21	39.4	945.051
1447.31	39.3	944.39
1447.41	39.2	860.49
1447.51	39.1	898.803
1447.61	39	918.511
1447.71	38.9	892.26
1447.81	38.8	859.431
1447.91	38.7	852.982
1448.01	38.6	911.928
1448.11	38.5	890.125
1448.21	38.4	910.56
1448.31	38.3	872.994
1448.41	38.2	881.045
1448.51	38.1	906.314
1448.61	38	865.074
1448.71	37.9	917.587
1448.81	37.8	852.939
1448.91	37.7	864.398
1449.01	37.6	875.707
1449.11	37.5	869.586
1449.21	37.4	893.501
1449.31	37.3	915.56
1449.41	37.2	916.98
1449.51	37.1	889.317
1449.61	37	907.606
1449.71	36.9	871.962
1449.81	36.8	893.776
1449.91	36.7	922.575
1450.01	36.6	907.581
1450.11	36.5	919.889
1450.21	36.4	931.269
1450.31	36.3	868.264
1450.41	36.2	867.517
1450.51	36.1	925.441
1450.61	36	910.629
1450.71	35.9	901.115
1450.81	35.8	896.119
1450.91	35.7	887.749
1451.01	35.6	872.409
1451.11	35.5	861.997
1451.21	35.4	886.471
1451.31	35.3	913.842
1451.41	35.2	871.625
1451.51	35.1	814.337
1451.61	35	872.917
1451.71	34.9	861.207
1451.81	34.8	869.929
1451.91	34.7	909.403
1452.01	34.6	928.115
1452.11	34.5	890.631
1452.21	34.4	948.877
1452.31	34.3	921.317
1452.41	34.2	930.94
1452.51	34.1	892.562
1452.61	34	851.596
1452.71	33.9	895.397
1452.81	33.8	884.412
1452.91	33.7	886.635
1453.01	33.6	907.621
1453.11	33.5	898.586
1453.21	33.4	916.251
1453.31	33.3	912.631
1453.41	33.2	915.894
1453.51	33.1	925.29
1453.61	33	950.876
1453.71	32.9	931.485
1453.81	32.8	889.129
1453.91	32.7	894.519
1454.01	32.6	975.365
1454.11	32.5	979.972
1454.21	32.4	970.425
1454.31	32.3	913.438
1454.41	32.2	929.167
1454.51	32.1	980.996
1454.61	32	957.305
1454.71	31.9	922.892
1454.81	31.8	935.854
1454.91	31.7	953.161
1455.01	31.6	968.315
1455.11	31.5	883.737
1455.21	31.4	933.566
1455.31	31.3	957.024
1455.41	31.2	988.254
1455.51	31.1	969.747
1455.61	31	988.406
1455.71	30.9	941.232
1455.81	30.8	929.231
1455.91	30.7	904.406
1456.01	30.6	967.117
1456.11	30.5	1003.65
1456.21	30.4	1004.14
1456.31	30.3	949.237
1456.41	30.2	961.554
1456.51	30.1	978.869
1456.61	30	954.214
1456.71	29.9	960.715
1456.81	29.8	967.545
1456.91	29.7	994.569
1457.01	29.6	962.471
1457.11	29.5	952.619
1457.21	29.4	984.16
1457.31	29.3	941.165
1457.41	29.2	916.792
1457.51	29.1	932.4
1457.61	29	976.034
1457.71	28.9	921.729
1457.81	28.8	946.79
1457.91	28.7	934.249
1458.01	28.6	977.665
1458.11	28.5	929.09
1458.21	28.4	898.303
1458.31	28.3	952.834
1458.41	28.2	884.144
1458.51	28.1	908.736
1458.61	28	938.399
1458.71	27.9	913.318
1458.81	27.8	906.134
1458.91	27.7	928.295
1459.01	27.6	947.529
1459.11	27.5	919.374
1459.21	27.4	921.466
1459.31	27.3	930.187
1459.41	27.2	924.638
1459.51	27.1	886.345
1459.61	27	903.612
1459.71	26.9	956.414
1459.81	26.8	891.144
1459.91	26.7	917.91
1460.01	26.6	939.929
1460.11	26.5	933.29
1460.21	26.4	917.754
1460.31	26.3	934.385
1460.41	26.2	969.751
1460.51	26.1	946.212
1460.61	26	935.319
1460.71	25.9	904.804
1460.81	25.8	897.999
1460.91	25.7	896.207
1461.01	25.6	926.837
1461.11	25.5	948.645
1461.21	25.4	949.752
1461.31	25.3	902.9
1461.41	25.2	888.241
1461.51	25.1	903.629
1461.61	25	925.574
1461.71	24.9	958.681
1461.81	24.8	955.105
1461.91	24.7	955.886
1462.01	24.6	942.849
1462.11	24.5	913.127
1462.21	24.4	944.639
1462.31	24.3	966.058
1462.41	24.2	975.168
1462.51	24.1	962.627
1462.61	24	924.006
1462.71	23.9	922.472
1462.81	23.8	928.491
1462.91	23.7	937.651
1463.01	23.6	940.005
1463.11	23.5	956.525
1463.21	23.4	979.022
1463.31	23.3	1017.39
1463.41	23.2	960.611
1463.51	23.1	991.984
1463.61	23	979.967
1463.71	22.9	981.887
1463.81	22.8	968.132
1463.91	22.7	1013.75
1464.01	22.6	969.347
1464.11	22.5	962.236
1464.21	22.4	982.199
1464.31	22.3	973.326
1464.41	22.2	926.105
1464.51	22.1	943.219
1464.61	22	930.575
1464.71	21.9	909.309
1464.81	21.8	923.898
1464.91	21.7	932.901
1465.01	21.6	941.615
1465.11	21.5	920.711
1465.21	21.4	920.415
1465.31	21.3	932.087
1465.41	21.2	963.24
1465.51	21.1	907.006
1465.61	21	927.768
1465.71	20.9	933.635
1465.81	20.8	907.717
1465.91	20.7	929.852
1466.01	20.6	919.725
1466.11	20.5	957.374
1466.21	20.4	933.494
1466.31	20.3	917.995
1466.41	20.2	864.045
1466.51	20.1	865.019
1466.61	20	963.509
1466.71	19.9	937.775
1466.81	19.8	942.515
1466.91	19.7	928.028
1467.01	19.6	930.533
1467.11	19.5	903.585
1467.21	19.4	926.945
1467.31	19.3	980.24
1467.41	19.2	901.693
1467.51	19.1	911.325
1467.61	19	928.84
1467.71	18.9	928.93
1467.81	18.8	946.787
1467.91	18.7	937.799
1468.01	18.6	919.589
1468.11	18.5	920.72
1468.21	18.4	927.34
1468.31	18.3	967.742
1468.41	18.2	973.628
1468.51	18.1	944.594
1468.61	18	933.099
1468.71	17.9	966.622
1468.81	17.8	956.84
1468.91	17.7	941.734
1469.01	17.6	946.434
1469.11	17.5	972.371
1469.21	17.4	964.055
1469.31	17.3	966.082
1469.41	17.2	986.304
1469.51	17.1	882.826
1469.61	17	970.391
1469.71	16.9	982.971
1469.81	16.8	978.692
1469.91	16.7	970.391
1470.01	16.6	984.005
1470.11	16.5	975.263
1470.21	16.4	963.181
1470.31	16.3	930.551
1470.41	16.2	955.936
1470.51	16.1	939.643
1470.61	16	976.921
1470.71	15.9	976.167
1470.81	15.8	976.554
1470.91	15.7	1015.61
1471.01	15.6	1014.15
1471.11	15.5	1027.55
1471.21	15.4	1044.31
1471.31	15.3	1079.42
1471.41	15.2	1054.43
1471.51	15.1	1017.68
1471.61	15	1023.45
1471.71	14.9	1057.48
1471.81	14.8	1049.61
1471.91	14.7	1048.62
1472.01	14.6	1021.61
1472.11	14.5	1015.15
1472.21	14.4	1032.74
1472.31	14.3	1077.96
1472.41	14.2	1117.2
1472.51	14.1	1068.88
1472.61	14	1103.58
1472.71	13.9	1033.68
1472.81	13.8	1031.84
1472.91	13.7	1067.93
1473.01	13.6	1082.18
1473.11	13.5	1060.88
1473.21	13.4	1066.46
1473.31	13.3	1071.78
1473.41	13.2	1046.5
1473.51	13.1	986.119
1473.61	13	1068.66
1473.71	12.9	1089.95
1473.81	12.8	1072.25
1473.91	12.7	1064.8
1474.01	12.6	1062.96
1474.11	12.5	1065.93
1474.21	12.4	1068.57
1474.31	12.3	1057.7
1474.41	12.2	1083.48
1474.51	12.1	1047.42
1474.61	12	1031.41
1474.71	11.9	1051.29
1474.81	11.8	1080.79
1474.91	11.7	1076.76
1475.01	11.6	1060.75
1475.11	11.5	1029.34
1475.21	11.4	1065.18
1475.31	11.3	1090.12
1475.41	11.2	1113.7
1475.51	11.1	1078.68
1475.61	11	1093.07
1475.71	10.9	1100.25
1475.81	10.8	1052.46
1475.91	10.7	1099.17
1476.01	10.6	1132.66
1476.11	10.5	1096.23
1476.21	10.4	1095.21
1476.31	10.3	1105.7
1476.41	10.2	1151.64
1476.51	10.1	1070.74
1476.61	10	1138.65
1476.71	9.9	1137.31
1476.81	9.8	1126.16
1476.91	9.7	1151.33
1477.01	9.6	1155.74
1477.11	9.5	1105.76
1477.21	9.4	1169.18
1477.31	9.3	1141.23
1477.41	9.2	1123.7
1477.51	9.1	1177.69
1477.61	9	1199.16
1477.71	8.9	1239.36
1477.81	8.8	1252.51
1477.91	8.7	1243.74
1478.01	8.6	1271.3
1478.11	8.5	1353.22
1478.21	8.4	1359.11
1478.31	8.3	1476.24
1478.41	8.2	1570.89
1478.51	8.1	1726.97
1478.61	8	1798.64
1478.71	7.9	2016.56
1478.81	7.8	2305.89
1478.91	7.7	2683.5
1479.01	7.6	3067.8
1479.11	7.5	3502.88
1479.21	7.4	4217.21
1479.31	7.3	4703.2
1479.41	7.2	5227.64
1479.51	7.1	5935.99
1479.61	7	6287.34
1479.71	6.9	6558.47
1479.81	6.8	6889.5
1479.91	6.7	6945.5
1480.01	6.6	7007.39
1480.11	6.5	7089.67
1480.21	6.4	7175.29
1480.31	6.3	7331.8
1480.41	6.2	7169
1480.51	6.1	7195.09
1480.61	6	7108.6
1480.71	5.9	6921.82
1480.81	5.8	7123.3
1480.91	5.7	7413.93
1481.01	5.6	7585
1481.11	5.5	7932.21
1481.21	5.4	8013.4
1481.31	5.3	8090.56
1481.41	5.2	8296.16
1481.51	5.1	8486.64
1481.61	5	8716.7
1481.71	4.9	8828.15
1481.81	4.8	8794.45
1481.91	4.7	8724.41
1482.01	4.6	8638.64
1482.11	4.5	8422.04
1482.21	4.4	8091.81
1482.31	4.3	7841.14
1482.41	4.2	7117.57
1482.51	4.1	6391.97
1482.61	4	5232.69
1482.71	3.9	3905.63
1482.81	3.8	2726.46
1482.91	3.7	1677.44
1483.01	3.6	1111.54
1483.11	3.5	782.318
1483.21	3.4	603.814
1483.31	3.3	491.849
1483.41	3.2	477.753
1483.51	3.1	497.266
1483.61	3	429.111
1483.71	2.9	436.482
1483.81	2.8	422.369
1483.91	2.7	419.225
1484.01	2.6	400.14
1484.11	2.5	390.644
1484.21	2.4	367.534
1484.31	2.3	393.299
1484.41	2.2	370.619
1484.51	2.1	366.406
1484.61	2	410.014
1484.71	1.9	355.156
1484.81	1.8	356.41
1484.91	1.7	321.478
1485.01	1.6	341.246
1485.11	1.5	333.885
1485.21	1.4	354.686
1485.31	1.3	348.245
1485.41	1.2	334.397
1485.51	1.1	362.074
1485.61	1	363.369
1485.71	0.9	373.335
1485.81	0.8	345.926
1485.91	0.7	356.675
1486.01	0.6	325.257
1486.11	0.5	325.034
1486.21	0.4	304.54
1486.31	0.3	280.671
1486.41	0.2	254.09
1486.51	0.1	200.75
1486.61	0	153.455
1486.71	-0.1	112.369
1486.81	-0.2	58.372
1486.91	-0.3	39.2706
1487.01	-0.4	18.6786
1487.11	-0.5	13.7504
1487.21	-0.6	10.6748
1487.31	-0.7	14.9769
1487.41	-0.8	10.5086
1487.51	-0.9	7.79845
1487.61	-1	16.2192
1487.71	-1.1	14.9231
1487.81	-1.2	10.4969
1487.91	-1.3	9.05391
1488.01	-1.4	12.5429
1488.11	-1.5	8.98986
1488.21	-1.6	12.947
1488.31	-1.7	10.3241
1488.41	-1.8	6.8061
1488.51	-1.9	5.43589
1488.61	-2	8.66094