c:\users\mark\owncloud\muelheim group\projects\gas phase background\ex340_cec356_ag he largearea.vms
AgMNN (2)
	Characteristic Energy eV	1486.61	Acquisition Time s	2.8
KE_AgMNN (2)	BE_AgMNN (2)	CPS_AgMNN (2)
266.61	1220	6636.25
266.71	1219.9	6639
266.81	1219.8	6690.86
266.91	1219.7	6626.54
267.01	1219.6	6682.11
267.11	1219.5	6565.11
267.21	1219.4	6535.93
267.31	1219.3	6534.71
267.41	1219.2	6606.71
267.51	1219.1	6570.14
267.61	1219	6582.14
267.71	1218.9	6566.79
267.81	1218.8	6634.36
267.91	1218.7	6608.86
268.01	1218.6	6524.82
268.11	1218.5	6494.79
268.21	1218.4	6589.29
268.31	1218.3	6537.32
268.41	1218.2	6503.82
268.51	1218.1	6557.46
268.61	1218	6563.11
268.71	1217.9	6538.5
268.81	1217.8	6503.11
268.91	1217.7	6499.04
269.01	1217.6	6472.29
269.11	1217.5	6467.39
269.21	1217.4	6472.29
269.31	1217.3	6490.36
269.41	1217.2	6478.64
269.51	1217.1	6519.29
269.61	1217	6504.82
269.71	1216.9	6390
269.81	1216.8	6448.18
269.91	1216.7	6494.82
270.01	1216.6	6453.75
270.11	1216.5	6511.18
270.21	1216.4	6431.11
270.31	1216.3	6401.39
270.41	1216.2	6463.75
270.51	1216.1	6466.39
270.61	1216	6432.46
270.71	1215.9	6442.21
270.81	1215.8	6444.46
270.91	1215.7	6434.61
271.01	1215.6	6430.25
271.11	1215.5	6429.18
271.21	1215.4	6424.36
271.31	1215.3	6402.89
271.41	1215.2	6412.61
271.51	1215.1	6462.86
271.61	1215	6458.46
271.71	1214.9	6481.18
271.81	1214.8	6462.96
271.91	1214.7	6487.07
272.01	1214.6	6402.82
272.11	1214.5	6418.07
272.21	1214.4	6415.5
272.31	1214.3	6411
272.41	1214.2	6450.18
272.51	1214.1	6447.21
272.61	1214	6408.79
272.71	1213.9	6384.36
272.81	1213.8	6425.46
272.91	1213.7	6371.61
273.01	1213.6	6428.64
273.11	1213.5	6399.64
273.21	1213.4	6413.11
273.31	1213.3	6356
273.41	1213.2	6396.89
273.51	1213.1	6408.32
273.61	1213	6351.04
273.71	1212.9	6401.54
273.81	1212.8	6413.75
273.91	1212.7	6369.18
274.01	1212.6	6372.89
274.11	1212.5	6408.86
274.21	1212.4	6365.46
274.31	1212.3	6393.43
274.41	1212.2	6391.43
274.51	1212.1	6348.64
274.61	1212	6342.07
274.71	1211.9	6382.82
274.81	1211.8	6447.14
274.91	1211.7	6393.29
275.01	1211.6	6400.32
275.11	1211.5	6334.82
275.21	1211.4	6397
275.31	1211.3	6369.79
275.41	1211.2	6346.07
275.51	1211.1	6378.89
275.61	1211	6354.07
275.71	1210.9	6371.82
275.81	1210.8	6371.64
275.91	1210.7	6354.54
276.01	1210.6	6425.25
276.11	1210.5	6384.96
276.21	1210.4	6342.96
276.31	1210.3	6369.43
276.41	1210.2	6412
276.51	1210.1	6361.39
276.61	1210	6427.21
276.71	1209.9	6395.82
276.81	1209.8	6422.5
276.91	1209.7	6409.36
277.01	1209.6	6417.29
277.11	1209.5	6508.75
277.21	1209.4	6478.64
277.31	1209.3	6476.86
277.41	1209.2	6380
277.51	1209.1	6367.46
277.61	1209	6478.82
277.71	1208.9	6417.04
277.81	1208.8	6389.68
277.91	1208.7	6347.36
278.01	1208.6	6369
278.11	1208.5	6423.61
278.21	1208.4	6395.32
278.31	1208.3	6370.96
278.41	1208.2	6395.96
278.51	1208.1	6429.79
278.61	1208	6453.93
278.71	1207.9	6410.18
278.81	1207.8	6326.79
278.91	1207.7	6381.04
279.01	1207.6	6468.79
279.11	1207.5	6366.57
279.21	1207.4	6374
279.31	1207.3	6380.96
279.41	1207.2	6416.29
279.51	1207.1	6450.54
279.61	1207	6467.39
279.71	1206.9	6447.25
279.81	1206.8	6405.71
279.91	1206.7	6438.57
280.01	1206.6	6454.04
280.11	1206.5	6401.04
280.21	1206.4	6428.46
280.31	1206.3	6419.5
280.41	1206.2	6346.18
280.51	1206.1	6400.68
280.61	1206	6387.18
280.71	1205.9	6426.29
280.81	1205.8	6473.86
280.91	1205.7	6375.11
281.01	1205.6	6399.68
281.11	1205.5	6480.39
281.21	1205.4	6424.71
281.31	1205.3	6413.14
281.41	1205.2	6475.04
281.51	1205.1	6422.89
281.61	1205	6375.07
281.71	1204.9	6444.21
281.81	1204.8	6405.61
281.91	1204.7	6398.75
282.01	1204.6	6428.71
282.11	1204.5	6452.43
282.21	1204.4	6403.61
282.31	1204.3	6473.43
282.41	1204.2	6411.25
282.51	1204.1	6438.11
282.61	1204	6467.86
282.71	1203.9	6362.82
282.81	1203.8	6387.11
282.91	1203.7	6413.61
283.01	1203.6	6400.32
283.11	1203.5	6433.39
283.21	1203.4	6476.71
283.31	1203.3	6464.46
283.41	1203.2	6517.39
283.51	1203.1	6516.79
283.61	1203	6413.96
283.71	1202.9	6489.32
283.81	1202.8	6489.36
283.91	1202.7	6554.25
284.01	1202.6	6501.43
284.11	1202.5	6429.04
284.21	1202.4	6415.93
284.31	1202.3	6477.96
284.41	1202.2	6442.64
284.51	1202.1	6406.5
284.61	1202	6465.54
284.71	1201.9	6440.25
284.81	1201.8	6399.71
284.91	1201.7	6435.61
285.01	1201.6	6433.68
285.11	1201.5	6475.57
285.21	1201.4	6484.07
285.31	1201.3	6382.82
285.41	1201.2	6469.61
285.51	1201.1	6551.25
285.61	1201	6497.93
285.71	1200.9	6512.39
285.81	1200.8	6560.18
285.91	1200.7	6480.18
286.01	1200.6	6490.64
286.11	1200.5	6483.07
286.21	1200.4	6537.04
286.31	1200.3	6517.29
286.41	1200.2	6501.93
286.51	1200.1	6527.86
286.61	1200	6499.46
286.71	1199.9	6583.21
286.81	1199.8	6552.86
286.91	1199.7	6571.57
287.01	1199.6	6591.39
287.11	1199.5	6592.04
287.21	1199.4	6515.18
287.31	1199.3	6540.39
287.41	1199.2	6549.46
287.51	1199.1	6659.21
287.61	1199	6578.54
287.71	1198.9	6593.68
287.81	1198.8	6550.29
287.91	1198.7	6622.82
288.01	1198.6	6682.79
288.11	1198.5	6641.21
288.21	1198.4	6619.89
288.31	1198.3	6580.68
288.41	1198.2	6584.25
288.51	1198.1	6647
288.61	1198	6662.32
288.71	1197.9	6662.11
288.81	1197.8	6635.11
288.91	1197.7	6618.96
289.01	1197.6	6649.07
289.11	1197.5	6655.21
289.21	1197.4	6621.79
289.31	1197.3	6658.79
289.41	1197.2	6689.14
289.51	1197.1	6572.79
289.61	1197	6619.11
289.71	1196.9	6616.75
289.81	1196.8	6704.79
289.91	1196.7	6684.75
290.01	1196.6	6668.07
290.11	1196.5	6683.04
290.21	1196.4	6725.46
290.31	1196.3	6643.57
290.41	1196.2	6604.07
290.51	1196.1	6642.32
290.61	1196	6659.18
290.71	1195.9	6758.64
290.81	1195.8	6645.71
290.91	1195.7	6705.21
291.01	1195.6	6678.5
291.11	1195.5	6682.36
291.21	1195.4	6723.75
291.31	1195.3	6692.61
291.41	1195.2	6721.25
291.51	1195.1	6720.11
291.61	1195	6652.5
291.71	1194.9	6708.54
291.81	1194.8	6745.39
291.91	1194.7	6677.39
292.01	1194.6	6742.71
292.11	1194.5	6744.54
292.21	1194.4	6728.46
292.31	1194.3	6684.5
292.41	1194.2	6740.86
292.51	1194.1	6787.82
292.61	1194	6788.57
292.71	1193.9	6716.89
292.81	1193.8	6720.36
292.91	1193.7	6723.07
293.01	1193.6	6760.36
293.11	1193.5	6781.21
293.21	1193.4	6758.54
293.31	1193.3	6724.79
293.41	1193.2	6743.75
293.51	1193.1	6721.96
293.61	1193	6779.79
293.71	1192.9	6755.54
293.81	1192.8	6791.68
293.91	1192.7	6767.68
294.01	1192.6	6764.86
294.11	1192.5	6827.46
294.21	1192.4	6809.39
294.31	1192.3	6829.61
294.41	1192.2	6769.93
294.51	1192.1	6787.25
294.61	1192	6785.96
294.71	1191.9	6759.04
294.81	1191.8	6767.64
294.91	1191.7	6731.89
295.01	1191.6	6760.64
295.11	1191.5	6803.11
295.21	1191.4	6772.04
295.31	1191.3	6744.14
295.41	1191.2	6774.11
295.51	1191.1	6794
295.61	1191	6827.75
295.71	1190.9	6677.14
295.81	1190.8	6770.79
295.91	1190.7	6761.32
296.01	1190.6	6684.11
296.11	1190.5	6764.46
296.21	1190.4	6767.93
296.31	1190.3	6765.86
296.41	1190.2	6745.46
296.51	1190.1	6842.96
296.61	1190	6812.79
296.71	1189.9	6735
296.81	1189.8	6793.82
296.91	1189.7	6748.57
297.01	1189.6	6724.93
297.11	1189.5	6730.46
297.21	1189.4	6755.61
297.31	1189.3	6773.21
297.41	1189.2	6780.82
297.51	1189.1	6711.61
297.61	1189	6745.14
297.71	1188.9	6670.21
297.81	1188.8	6704.89
297.91	1188.7	6761.43
298.01	1188.6	6762.89
298.11	1188.5	6724.68
298.21	1188.4	6762.46
298.31	1188.3	6769.79
298.41	1188.2	6818.04
298.51	1188.1	6793.89
298.61	1188	6778.18
298.71	1187.9	6712.79
298.81	1187.8	6750.86
298.91	1187.7	6679.18
299.01	1187.6	6689.04
299.11	1187.5	6741.46
299.21	1187.4	6715.61
299.31	1187.3	6767.54
299.41	1187.2	6701.54
299.51	1187.1	6725.54
299.61	1187	6731.68
299.71	1186.9	6730.61
299.81	1186.8	6756
299.91	1186.7	6780.07
300.01	1186.6	6678.86
300.11	1186.5	6722.11
300.21	1186.4	6741.75
300.31	1186.3	6715.46
300.41	1186.2	6681.29
300.51	1186.1	6696.46
300.61	1186	6715.96
300.71	1185.9	6694.93
300.81	1185.8	6679.07
300.91	1185.7	6652.21
301.01	1185.6	6786.25
301.11	1185.5	6697.43
301.21	1185.4	6699.68
301.31	1185.3	6696.25
301.41	1185.2	6672.29
301.51	1185.1	6652.61
301.61	1185	6744.71
301.71	1184.9	6607.86
301.81	1184.8	6662.36
301.91	1184.7	6608.61
302.01	1184.6	6553.75
302.11	1184.5	6582.64
302.21	1184.4	6619.93
302.31	1184.3	6584.43
302.41	1184.2	6534.89
302.51	1184.1	6565.07
302.61	1184	6583.61
302.71	1183.9	6602.89
302.81	1183.8	6592.07
302.91	1183.7	6475.29
303.01	1183.6	6451.36
303.11	1183.5	6501.54
303.21	1183.4	6480.64
303.31	1183.3	6476
303.41	1183.2	6494.46
303.51	1183.1	6500.29
303.61	1183	6487.68
303.71	1182.9	6496.32
303.81	1182.8	6444.61
303.91	1182.7	6381.61
304.01	1182.6	6500.71
304.11	1182.5	6429.07
304.21	1182.4	6420.04
304.31	1182.3	6404.79
304.41	1182.2	6434.89
304.51	1182.1	6402.43
304.61	1182	6396.5
304.71	1181.9	6351.11
304.81	1181.8	6379.04
304.91	1181.7	6358
305.01	1181.6	6296.75
305.11	1181.5	6283.71
305.21	1181.4	6300.61
305.31	1181.3	6298.29
305.41	1181.2	6300.96
305.51	1181.1	6301.43
305.61	1181	6207.29
305.71	1180.9	6307.43
305.81	1180.8	6257.36
305.91	1180.7	6314.82
306.01	1180.6	6292.75
306.11	1180.5	6241.43
306.21	1180.4	6225.82
306.31	1180.3	6110.39
306.41	1180.2	6190.54
306.51	1180.1	6203.29
306.61	1180	6163.5
306.71	1179.9	6202.96
306.81	1179.8	6184.75
306.91	1179.7	6153.43
307.01	1179.6	6125.32
307.11	1179.5	6154.29
307.21	1179.4	6163.25
307.31	1179.3	6103.86
307.41	1179.2	6067.71
307.51	1179.1	6153.32
307.61	1179	6078.32
307.71	1178.9	6031.61
307.81	1178.8	6033.14
307.91	1178.7	6028.96
308.01	1178.6	5993.18
308.11	1178.5	5990.18
308.21	1178.4	5980.32
308.31	1178.3	6035.64
308.41	1178.2	6096.39
308.51	1178.1	5952.39
308.61	1178	5905.54
308.71	1177.9	5966.54
308.81	1177.8	6023.61
308.91	1177.7	6015.11
309.01	1177.6	6033.96
309.11	1177.5	5953.57
309.21	1177.4	5878
309.31	1177.3	5919.64
309.41	1177.2	6004.29
309.51	1177.1	5914.75
309.61	1177	5954.21
309.71	1176.9	5927.25
309.81	1176.8	5897.32
309.91	1176.7	5868.93
310.01	1176.6	5900.04
310.11	1176.5	5885.86
310.21	1176.4	5912.43
310.31	1176.3	5893.11
310.41	1176.2	5881.46
310.51	1176.1	5838.86
310.61	1176	5873.25
310.71	1175.9	5869.82
310.81	1175.8	5844.89
310.91	1175.7	5902.5
311.01	1175.6	5906.32
311.11	1175.5	5820.82
311.21	1175.4	5783.82
311.31	1175.3	5780.32
311.41	1175.2	5856.54
311.51	1175.1	5831.68
311.61	1175	5790.61
311.71	1174.9	5852.89
311.81	1174.8	5856.57
311.91	1174.7	5867.54
312.01	1174.6	5865.68
312.11	1174.5	5801.57
312.21	1174.4	5750.5
312.31	1174.3	5773.61
312.41	1174.2	5759.07
312.51	1174.1	5763.04
312.61	1174	5827.36
312.71	1173.9	5753.25
312.81	1173.8	5788.5
312.91	1173.7	5776.5
313.01	1173.6	5747.25
313.11	1173.5	5839.39
313.21	1173.4	5813.43
313.31	1173.3	5793.36
313.41	1173.2	5700.25
313.51	1173.1	5725.43
313.61	1173	5746.29
313.71	1172.9	5779.54
313.81	1172.8	5741.68
313.91	1172.7	5711.64
314.01	1172.6	5688.93
314.11	1172.5	5717.86
314.21	1172.4	5713.75
314.31	1172.3	5729.61
314.41	1172.2	5777.96
314.51	1172.1	5737.11
314.61	1172	5702.96
314.71	1171.9	5743.32
314.81	1171.8	5755.04
314.91	1171.7	5792.39
315.01	1171.6	5719.82
315.11	1171.5	5818.89
315.21	1171.4	5748.75
315.31	1171.3	5791.71
315.41	1171.2	5814.25
315.51	1171.1	5742.79
315.61	1171	5755.04
315.71	1170.9	5773.93
315.81	1170.8	5797.39
315.91	1170.7	5764.11
316.01	1170.6	5761.11
316.11	1170.5	5777.32
316.21	1170.4	5800.29
316.31	1170.3	5762.25
316.41	1170.2	5775.71
316.51	1170.1	5755.18
316.61	1170	5750.25
316.71	1169.9	5815.64
316.81	1169.8	5783.93
316.91	1169.7	5800.46
317.01	1169.6	5826.71
317.11	1169.5	5798.46
317.21	1169.4	5702.46
317.31	1169.3	5767.96
317.41	1169.2	5767.21
317.51	1169.1	5707.36
317.61	1169	5782.29
317.71	1168.9	5760.43
317.81	1168.8	5682.89
317.91	1168.7	5743.14
318.01	1168.6	5739.43
318.11	1168.5	5822.57
318.21	1168.4	5788.18
318.31	1168.3	5813.96
318.41	1168.2	5789.68
318.51	1168.1	5765.25
318.61	1168	5759.25
318.71	1167.9	5791.82
318.81	1167.8	5811.25
318.91	1167.7	5717.54
319.01	1167.6	5656.5
319.11	1167.5	5782.43
319.21	1167.4	5743.96
319.31	1167.3	5795.36
319.41	1167.2	5791.25
319.51	1167.1	5766.46
319.61	1167	5836.71
319.71	1166.9	5836.29
319.81	1166.8	5854.96
319.91	1166.7	5766.36
320.01	1166.6	5855
320.11	1166.5	5825.54
320.21	1166.4	5832.71
320.31	1166.3	5850.5
320.41	1166.2	5878.18
320.51	1166.1	5805.25
320.61	1166	5840.04
320.71	1165.9	5776.75
320.81	1165.8	5742.57
320.91	1165.7	5808.36
321.01	1165.6	5824.61
321.11	1165.5	5812.18
321.21	1165.4	5883.5
321.31	1165.3	5911.29
321.41	1165.2	5830.32
321.51	1165.1	5869.18
321.61	1165	5853.25
321.71	1164.9	5807.32
321.81	1164.8	5837
321.91	1164.7	5871.96
322.01	1164.6	5884.5
322.11	1164.5	5857.46
322.21	1164.4	5864.5
322.31	1164.3	5893.89
322.41	1164.2	5893.5
322.51	1164.1	5839.79
322.61	1164	5860.54
322.71	1163.9	5892.86
322.81	1163.8	5916.14
322.91	1163.7	5896.46
323.01	1163.6	5885.46
323.11	1163.5	5893.11
323.21	1163.4	5907.32
323.31	1163.3	5978.61
323.41	1163.2	5935.46
323.51	1163.1	5959
323.61	1163	6000.14
323.71	1162.9	5889.68
323.81	1162.8	5926.54
323.91	1162.7	5885.11
324.01	1162.6	5877.11
324.11	1162.5	5957.39
324.21	1162.4	5904.71
324.31	1162.3	5897
324.41	1162.2	5997.04
324.51	1162.1	5950.79
324.61	1162	5931.11
324.71	1161.9	5965.5
324.81	1161.8	6015.18
324.91	1161.7	6056.86
325.01	1161.6	5974.07
325.11	1161.5	6035.14
325.21	1161.4	5997.25
325.31	1161.3	6008.18
325.41	1161.2	5996.93
325.51	1161.1	6012.86
325.61	1161	5961.61
325.71	1160.9	6005.39
325.81	1160.8	6015.18
325.91	1160.7	6027.89
326.01	1160.6	5989.04
326.11	1160.5	6040.21
326.21	1160.4	6050.36
326.31	1160.3	6099
326.41	1160.2	6009.75
326.51	1160.1	6070.54
326.61	1160	6062.29
326.71	1159.9	6140.79
326.81	1159.8	6082.71
326.91	1159.7	6057.18
327.01	1159.6	6150.39
327.11	1159.5	6145.75
327.21	1159.4	6129.43
327.31	1159.3	6148.93
327.41	1159.2	6056.75
327.51	1159.1	6114.54
327.61	1159	6118.25
327.71	1158.9	6158
327.81	1158.8	6155.25
327.91	1158.7	6119.68
328.01	1158.6	6073.29
328.11	1158.5	6111.5
328.21	1158.4	6040.79
328.31	1158.3	6017.46
328.41	1158.2	6094.64
328.51	1158.1	6195.57
328.61	1158	6147.25
328.71	1157.9	6107.71
328.81	1157.8	6063.07
328.91	1157.7	6093.04
329.01	1157.6	6097.61
329.11	1157.5	6092.11
329.21	1157.4	6121.5
329.31	1157.3	6145.89
329.41	1157.2	6144.32
329.51	1157.1	6129.82
329.61	1157	6139.79
329.71	1156.9	6126.21
329.81	1156.8	6147.39
329.91	1156.7	6152.39
330.01	1156.6	6223.29
330.11	1156.5	6180.75
330.21	1156.4	6215.96
330.31	1156.3	6256.75
330.41	1156.2	6337.96
330.51	1156.1	6310.32
330.61	1156	6320.68
330.71	1155.9	6327.29
330.81	1155.8	6240.61
330.91	1155.7	6212.29
331.01	1155.6	6244.07
331.11	1155.5	6273
331.21	1155.4	6151.25
331.31	1155.3	6174.68
331.41	1155.2	6172.36
331.51	1155.1	6168.96
331.61	1155	6128.07
331.71	1154.9	6132.5
331.81	1154.8	6145.32
331.91	1154.7	6141.93
332.01	1154.6	6096.43
332.11	1154.5	6156.61
332.21	1154.4	6123.64
332.31	1154.3	6152.71
332.41	1154.2	6082.14
332.51	1154.1	6075.79
332.61	1154	6069.96
332.71	1153.9	6085.89
332.81	1153.8	6047.25
332.91	1153.7	5988.04
333.01	1153.6	6032.75
333.11	1153.5	6001.11
333.21	1153.4	5943.25
333.31	1153.3	6002.04
333.41	1153.2	6028.5
333.51	1153.1	5963.11
333.61	1153	5970.68
333.71	1152.9	5891.96
333.81	1152.8	5925.75
333.91	1152.7	5977.89
334.01	1152.6	5932.89
334.11	1152.5	5883.68
334.21	1152.4	5897.25
334.31	1152.3	5979.25
334.41	1152.2	5969.82
334.51	1152.1	5904.14
334.61	1152	5872.25
334.71	1151.9	5883.82
334.81	1151.8	5936.46
334.91	1151.7	5843.25
335.01	1151.6	5880.64
335.11	1151.5	5838.75
335.21	1151.4	5913.39
335.31	1151.3	5855.96
335.41	1151.2	5792.14
335.51	1151.1	5861.86
335.61	1151	5818.96
335.71	1150.9	5863.96
335.81	1150.8	5837.71
335.91	1150.7	5877.21
336.01	1150.6	5870.71
336.11	1150.5	5888.04
336.21	1150.4	5897.07
336.31	1150.3	5913
336.41	1150.2	6012.25
336.51	1150.1	6005.14
336.61	1150	6012
336.71	1149.9	5989.89
336.81	1149.8	5900.29
336.91	1149.7	5889
337.01	1149.6	5912.86
337.11	1149.5	5844.46
337.21	1149.4	5780.57
337.31	1149.3	5863.29
337.41	1149.2	5787.61
337.51	1149.1	5761.68
337.61	1149	5720.57
337.71	1148.9	5729.36
337.81	1148.8	5759.82
337.91	1148.7	5676.29
338.01	1148.6	5660.54
338.11	1148.5	5695.46
338.21	1148.4	5649.36
338.31	1148.3	5652.29
338.41	1148.2	5646.32
338.51	1148.1	5664
338.61	1148	5662.43
338.71	1147.9	5612.82
338.81	1147.8	5594.25
338.91	1147.7	5641.61
339.01	1147.6	5578.96
339.11	1147.5	5550.36
339.21	1147.4	5570.71
339.31	1147.3	5595.43
339.41	1147.2	5578.93
339.51	1147.1	5575.18
339.61	1147	5579.46
339.71	1146.9	5581.32
339.81	1146.8	5527.68
339.91	1146.7	5567.89
340.01	1146.6	5523.14
340.11	1146.5	5596.54
340.21	1146.4	5588.71
340.31	1146.3	5616.82
340.41	1146.2	5611.79
340.51	1146.1	5537
340.61	1146	5533.86
340.71	1145.9	5597.57
340.81	1145.8	5551.14
340.91	1145.7	5595.71
341.01	1145.6	5646.07
341.11	1145.5	5597.39
341.21	1145.4	5669.68
341.31	1145.3	5611.36
341.41	1145.2	5558.18
341.51	1145.1	5568.68
341.61	1145	5596.21
341.71	1144.9	5611.11
341.81	1144.8	5614.86
341.91	1144.7	5613.96
342.01	1144.6	5577.36
342.11	1144.5	5696.71
342.21	1144.4	5584.04
342.31	1144.3	5690.93
342.41	1144.2	5630.57
342.51	1144.1	5619.96
342.61	1144	5677.79
342.71	1143.9	5610.57
342.81	1143.8	5626.57
342.91	1143.7	5620.43
343.01	1143.6	5625.25
343.11	1143.5	5660.18
343.21	1143.4	5670.07
343.31	1143.3	5664.75
343.41	1143.2	5632.71
343.51	1143.1	5649.11
343.61	1143	5658.82
343.71	1142.9	5664.57
343.81	1142.8	5618
343.91	1142.7	5689.82
344.01	1142.6	5594
344.11	1142.5	5691.54
344.21	1142.4	5657.61
344.31	1142.3	5698.36
344.41	1142.2	5678.39
344.51	1142.1	5700.54
344.61	1142	5626.29
344.71	1141.9	5702.68
344.81	1141.8	5793.86
344.91	1141.7	5721.86
345.01	1141.6	5763.46
345.11	1141.5	5749.07
345.21	1141.4	5780.14
345.31	1141.3	5840.71
345.41	1141.2	5811.29
345.51	1141.1	5795.89
345.61	1141	5858.93
345.71	1140.9	5911.86
345.81	1140.8	5866.75
345.91	1140.7	5885.86
346.01	1140.6	5924.86
346.11	1140.5	5925.86
346.21	1140.4	5937
346.31	1140.3	5904.18
346.41	1140.2	5953.89
346.51	1140.1	5943.64
346.61	1140	5916.07
346.71	1139.9	5946.96
346.81	1139.8	5949.54
346.91	1139.7	6021.86
347.01	1139.6	6044.68
347.11	1139.5	6169.32
347.21	1139.4	6110.25
347.31	1139.3	6095.21
347.41	1139.2	6210.71
347.51	1139.1	6308.5
347.61	1139	6246.79
347.71	1138.9	6257.96
347.81	1138.8	6329.5
347.91	1138.7	6343.68
348.01	1138.6	6408.36
348.11	1138.5	6480.32
348.21	1138.4	6511.57
348.31	1138.3	6555.57
348.41	1138.2	6572.46
348.51	1138.1	6654.07
348.61	1138	6809.46
348.71	1137.9	6740.39
348.81	1137.8	6714.68
348.91	1137.7	6669.57
349.01	1137.6	6645.5
349.11	1137.5	6635.14
349.21	1137.4	6695.04
349.31	1137.3	6655.29
349.41	1137.2	6644.86
349.51	1137.1	6689.57
349.61	1137	6698.96
349.71	1136.9	6669.86
349.81	1136.8	6768.75
349.91	1136.7	6814.32
350.01	1136.6	6861.07
350.11	1136.5	6900.96
350.21	1136.4	6896.07
350.31	1136.3	6983.96
350.41	1136.2	7073.86
350.51	1136.1	7106.39
350.61	1136	7295.14
350.71	1135.9	7334.32
350.81	1135.8	7522.86
350.91	1135.7	7650.57
351.01	1135.6	7874.39
351.11	1135.5	8251.18
351.21	1135.4	8546.82
351.31	1135.3	8873.86
351.41	1135.2	9253.21
351.51	1135.1	9598.57
351.61	1135	9826.29
351.71	1134.9	9935.46
351.81	1134.8	9895.43
351.91	1134.7	9705.54
352.01	1134.6	9482.11
352.11	1134.5	9437.71
352.21	1134.4	9342.89
352.31	1134.3	9108.71
352.41	1134.2	8981.71
352.51	1134.1	8910.5
352.61	1134	8842.82
352.71	1133.9	8685.64
352.81	1133.8	8622.29
352.91	1133.7	8665.68
353.01	1133.6	8672.14
353.11	1133.5	8577.43
353.21	1133.4	8577.89
353.31	1133.3	8524
353.41	1133.2	8492.57
353.51	1133.1	8432
353.61	1133	8301.61
353.71	1132.9	8093.93
353.81	1132.8	8014.29
353.91	1132.7	7832.89
354.01	1132.6	7680.68
354.11	1132.5	7524.64
354.21	1132.4	7387.86
354.31	1132.3	7357.82
354.41	1132.2	7330.46
354.51	1132.1	7272.86
354.61	1132	7229.43
354.71	1131.9	7150.5
354.81	1131.8	7031.21
354.91	1131.7	6974.96
355.01	1131.6	6933.11
355.11	1131.5	6893.32
355.21	1131.4	6716.68
355.31	1131.3	6679.82
355.41	1131.2	6612.89
355.51	1131.1	6618.64
355.61	1131	6626.96
355.71	1130.9	6506.36
355.81	1130.8	6461.61
355.91	1130.7	6543.43
356.01	1130.6	6461.5
356.11	1130.5	6457.82
356.21	1130.4	6495.75
356.31	1130.3	6529.07
356.41	1130.2	6531.54
356.51	1130.1	6566.14
356.61	1130	6641.5
356.71	1129.9	6686.64
356.81	1129.8	6739.57
356.91	1129.7	6839.11
357.01	1129.6	7067.64
357.11	1129.5	7299.29
357.21	1129.4	7525
357.31	1129.3	7814.18
357.41	1129.2	8165.75
357.51	1129.1	8524
357.61	1129	8778.18
357.71	1128.9	8874
357.81	1128.8	8760.86
357.91	1128.7	8691.36
358.01	1128.6	8428.93
358.11	1128.5	8068.93
358.21	1128.4	7754
358.31	1128.3	7401.07
358.41	1128.2	7186.43
358.51	1128.1	6994.11
358.61	1128	6739.25
358.71	1127.9	6630.36
358.81	1127.8	6562.64
358.91	1127.7	6467.46
359.01	1127.6	6371.61
359.11	1127.5	6406.71
359.21	1127.4	6318.89
359.31	1127.3	6078.5
359.41	1127.2	5953.21
359.51	1127.1	5828
359.61	1127	5635.54
359.71	1126.9	5480.64
359.81	1126.8	5399.79
359.91	1126.7	5310.46
360.01	1126.6	5203.68
360.11	1126.5	5125.07
360.21	1126.4	5099.29
360.31	1126.3	5028.18
360.41	1126.2	4980.14
360.51	1126.1	4984.54
360.61	1126	4950.96
360.71	1125.9	4914.21
360.81	1125.8	4906.29
360.91	1125.7	4918.75
361.01	1125.6	4894.32
361.11	1125.5	4951.82
361.21	1125.4	4900.29
361.31	1125.3	4916.29
361.41	1125.2	4903.36
361.51	1125.1	4857.46
361.61	1125	4824.14
361.71	1124.9	4792.61
361.81	1124.8	4841.89
361.91	1124.7	4836.32
362.01	1124.6	4748.82
362.11	1124.5	4771.5
362.21	1124.4	4811.21
362.31	1124.3	4770.86
362.41	1124.2	4749.07
362.51	1124.1	4733.61
362.61	1124	4696.14
362.71	1123.9	4698.29
362.81	1123.8	4713.04
362.91	1123.7	4725.46
363.01	1123.6	4726.54
363.11	1123.5	4684.18
363.21	1123.4	4672.89
363.31	1123.3	4656.86
363.41	1123.2	4614.86
363.51	1123.1	4594.96
363.61	1123	4629.82
363.71	1122.9	4629.18
363.81	1122.8	4611.04
363.91	1122.7	4584.96
364.01	1122.6	4579.39
364.11	1122.5	4535.54
364.21	1122.4	4501.64
364.31	1122.3	4571.71
364.41	1122.2	4472.14
364.51	1122.1	4527.75
364.61	1122	4522.54
364.71	1121.9	4477.43
364.81	1121.8	4501.64
364.91	1121.7	4473.79
365.01	1121.6	4401.68
365.11	1121.5	4398.89
365.21	1121.4	4503.11
365.31	1121.3	4466
365.41	1121.2	4399.5
365.51	1121.1	4471.11
365.61	1121	4440.43
365.71	1120.9	4386.04
365.81	1120.8	4361.75
365.91	1120.7	4349.46
366.01	1120.6	4421.21
366.11	1120.5	4404.96
366.21	1120.4	4425.18
366.31	1120.3	4385.04
366.41	1120.2	4369.32
366.51	1120.1	4297.14
366.61	1120	4317.07
366.71	1119.9	4261.32
366.81	1119.8	4335.25
366.91	1119.7	4345.04
367.01	1119.6	4393.04
367.11	1119.5	4329.07
367.21	1119.4	4326.14
367.31	1119.3	4391.32
367.41	1119.2	4421.54
367.51	1119.1	4361.04
367.61	1119	4362.29
367.71	1118.9	4272.5
367.81	1118.8	4307
367.91	1118.7	4336.61
368.01	1118.6	4355.14
368.11	1118.5	4344.43
368.21	1118.4	4299.39
368.31	1118.3	4308.25
368.41	1118.2	4292.39
368.51	1118.1	4344.89
368.61	1118	4343.64
368.71	1117.9	4294.75
368.81	1117.8	4270.75
368.91	1117.7	4298.29
369.01	1117.6	4359.29
369.11	1117.5	4353.93
369.21	1117.4	4287.04
369.31	1117.3	4302.71
369.41	1117.2	4284.57
369.51	1117.1	4297.46
369.61	1117	4258.54
369.71	1116.9	4270.25
369.81	1116.8	4195.5
369.91	1116.7	4240.96
370.01	1116.6	4247.64
370.11	1116.5	4297.29
370.21	1116.4	4289.89
370.31	1116.3	4261.32
370.41	1116.2	4232.75
370.51	1116.1	4269.43
370.61	1116	4272.61
370.71	1115.9	4253.43
370.81	1115.8	4241.21
370.91	1115.7	4232.25
371.01	1115.6	4271.46
371.11	1115.5	4264.07
371.21	1115.4	4264.18
371.31	1115.3	4279.71
371.41	1115.2	4237.79
371.51	1115.1	4256.18
371.61	1115	4233.04
371.71	1114.9	4260.5
371.81	1114.8	4300.64
371.91	1114.7	4263.96
372.01	1114.6	4285.21
372.11	1114.5	4246.93
372.21	1114.4	4231.43
372.31	1114.3	4269.57
372.41	1114.2	4266.07
372.51	1114.1	4297.29
372.61	1114	4261.71
372.71	1113.9	4248.71
372.81	1113.8	4204.11
372.91	1113.7	4204.04
373.01	1113.6	4227.18
373.11	1113.5	4224.61
373.21	1113.4	4250.21
373.31	1113.3	4222.64
373.41	1113.2	4252.25
373.51	1113.1	4238.14
373.61	1113	4203.04
373.71	1112.9	4282.75
373.81	1112.8	4275.64
373.91	1112.7	4227.46
374.01	1112.6	4248.57
374.11	1112.5	4198.89
374.21	1112.4	4242.71
374.31	1112.3	4218.18
374.41	1112.2	4269.25
374.51	1112.1	4293.54
374.61	1112	4247.29
374.71	1111.9	4268.43
374.81	1111.8	4256.57
374.91	1111.7	4233.93
375.01	1111.6	4198.29
375.11	1111.5	4262.04
375.21	1111.4	4234.71
375.31	1111.3	4242.71
375.41	1111.2	4209.36
375.51	1111.1	4255.07
375.61	1111	4225.07
375.71	1110.9	4236.18
375.81	1110.8	4255.79
375.91	1110.7	4239.61
376.01	1110.6	4236.54
376.11	1110.5	4256.11
376.21	1110.4	4230.79
376.31	1110.3	4193.18
376.41	1110.2	4237.61
376.51	1110.1	4250.79
376.61	1110	4271.75
376.71	1109.9	4228.96
376.81	1109.8	4252.5
376.91	1109.7	4259.18
377.01	1109.6	4230.61
377.11	1109.5	4303.64
377.21	1109.4	4244
377.31	1109.3	4295.96
377.41	1109.2	4234.25
377.51	1109.1	4271.21
377.61	1109	4271.68
377.71	1108.9	4235.25
377.81	1108.8	4244.93
377.91	1108.7	4273.64
378.01	1108.6	4249.11
378.11	1108.5	4228
378.21	1108.4	4258.32
378.31	1108.3	4246.11
378.41	1108.2	4296.89
378.51	1108.1	4319.36
378.61	1108	4262.96
378.71	1107.9	4264.32
378.81	1107.8	4227.07
378.91	1107.7	4307.43
379.01	1107.6	4227.61
379.11	1107.5	4254.29
379.21	1107.4	4239.46
379.31	1107.3	4235
379.41	1107.2	4206.89
379.51	1107.1	4247.79
379.61	1107	4254.18
379.71	1106.9	4265
379.81	1106.8	4281.86
379.91	1106.7	4285.14
380.01	1106.6	4216.86
380.11	1106.5	4223.96
380.21	1106.4	4268.64
380.31	1106.3	4262.5
380.41	1106.2	4210.46
380.51	1106.1	4284.75
380.61	1106	4342.5
380.71	1105.9	4316.32
380.81	1105.8	4269.75
380.91	1105.7	4272.75
381.01	1105.6	4322.57
381.11	1105.5	4250.46
381.21	1105.4	4306.57
381.31	1105.3	4338
381.41	1105.2	4359.68
381.51	1105.1	4280.75
381.61	1105	4307.46
381.71	1104.9	4319.07
381.81	1104.8	4289.39
381.91	1104.7	4289.25
382.01	1104.6	4272.68
382.11	1104.5	4288.54
382.21	1104.4	4331.68
382.31	1104.3	4326.54
382.41	1104.2	4265.46
382.51	1104.1	4245.29
382.61	1104	4249.14
382.71	1103.9	4278.14
382.81	1103.8	4297.04
382.91	1103.7	4283.21
383.01	1103.6	4363.11
383.11	1103.5	4310.89
383.21	1103.4	4270.5
383.31	1103.3	4254.14
383.41	1103.2	4299.89
383.51	1103.1	4333.29
383.61	1103	4325
383.71	1102.9	4331.54
383.81	1102.8	4259.21
383.91	1102.7	4272.54
384.01	1102.6	4311.32
384.11	1102.5	4362.61
384.21	1102.4	4296.93
384.31	1102.3	4330.43
384.41	1102.2	4306.14
384.51	1102.1	4299.29
384.61	1102	4301.54
384.71	1101.9	4356.18
384.81	1101.8	4300.04
384.91	1101.7	4310.96
385.01	1101.6	4316.18
385.11	1101.5	4258.86
385.21	1101.4	4263.61
385.31	1101.3	4328.14
385.41	1101.2	4269.39
385.51	1101.1	4309.46
385.61	1101	4313.07
385.71	1100.9	4331.64
385.81	1100.8	4315.61
385.91	1100.7	4311.29
386.01	1100.6	4329
386.11	1100.5	4382.36
386.21	1100.4	4317.68
386.31	1100.3	4337.75
386.41	1100.2	4314.36
386.51	1100.1	4350.86
386.61	1100	4321.11