c:\users\mark\owncloud\muelheim group\projects\gas phase background\ex340_cec356_au he largearea.vms
Survey
	Characteristic Energy eV	1486.61	Acquisition Time s	1.5
KE_Survey	BE_Survey	CPS_Survey	Background_Survey
286.61	1200	7450.93	7450.93
287.11	1199.5	7371.33	7371.33
287.61	1199	7309.8	7309.8
288.11	1198.5	7181	7181
288.61	1198	7273.8	7273.8
289.11	1197.5	7340.33	7340.33
289.61	1197	7309.93	7309.93
290.11	1196.5	7446.73	7446.73
290.61	1196	7411.47	7411.47
291.11	1195.5	7303.8	7303.8
291.61	1195	7313	7313
292.11	1194.5	7367.67	7367.67
292.61	1194	7383.47	7383.47
293.11	1193.5	7346.8	7346.8
293.61	1193	7372.8	7372.8
294.11	1192.5	7379.87	7379.87
294.61	1192	7471.93	7471.93
295.11	1191.5	7388.13	7388.13
295.61	1191	7307.47	7307.47
296.11	1190.5	7343.53	7343.53
296.61	1190	7422.07	7422.07
297.11	1189.5	7400.8	7400.8
297.61	1189	7465.6	7465.6
298.11	1188.5	7392.2	7392.2
298.61	1188	7437.8	7437.8
299.11	1187.5	7374.6	7374.6
299.61	1187	7430.07	7430.07
300.11	1186.5	7424.27	7424.27
300.61	1186	7444.93	7444.93
301.11	1185.5	7387.6	7387.6
301.61	1185	7409.53	7409.53
302.11	1184.5	7512.53	7512.53
302.61	1184	7583.87	7583.87
303.11	1183.5	7528	7528
303.61	1183	7410.8	7410.8
304.11	1182.5	7330.33	7330.33
304.61	1182	7523.87	7523.87
305.11	1181.5	7545.87	7545.87
305.61	1181	7405.33	7405.33
306.11	1180.5	7505.33	7505.33
306.61	1180	7535.4	7535.4
307.11	1179.5	7542.87	7542.87
307.61	1179	7616.47	7616.47
308.11	1178.5	7446.4	7446.4
308.61	1178	7396	7396
309.11	1177.5	7481.33	7481.33
309.61	1177	7490.27	7490.27
310.11	1176.5	7545.4	7545.4
310.61	1176	7554.27	7554.27
311.11	1175.5	7527	7527
311.61	1175	7516.33	7516.33
312.11	1174.5	7520	7520
312.61	1174	7527.2	7527.2
313.11	1173.5	7489.27	7489.27
313.61	1173	7501.07	7501.07
314.11	1172.5	7582.13	7582.13
314.61	1172	7556.4	7556.4
315.11	1171.5	7583.4	7583.4
315.61	1171	7562.47	7562.47
316.11	1170.5	7556.73	7556.73
316.61	1170	7615.6	7615.6
317.11	1169.5	7676.67	7676.67
317.61	1169	7577.2	7577.2
318.11	1168.5	7618.8	7618.8
318.61	1168	7600.47	7600.47
319.11	1167.5	7590.93	7590.93
319.61	1167	7606.6	7606.6
320.11	1166.5	7585.07	7585.07
320.61	1166	7590.53	7590.53
321.11	1165.5	7592.67	7592.67
321.61	1165	7587.93	7587.93
322.11	1164.5	7669.6	7669.6
322.61	1164	7673.53	7673.53
323.11	1163.5	7729.2	7729.2
323.61	1163	7690.53	7690.53
324.11	1162.5	7659.4	7659.4
324.61	1162	7597.53	7597.53
325.11	1161.5	7639.6	7639.6
325.61	1161	7730.13	7730.13
326.11	1160.5	7532	7532
326.61	1160	7639	7639
327.11	1159.5	7660.2	7660.2
327.61	1159	7618.33	7618.33
328.11	1158.5	7659	7659
328.61	1158	7726.27	7726.27
329.11	1157.5	7774.6	7774.6
329.61	1157	7568.8	7568.8
330.11	1156.5	7624.27	7624.27
330.61	1156	7615.73	7615.73
331.11	1155.5	7747.4	7747.4
331.61	1155	7707.6	7707.6
332.11	1154.5	7752.8	7752.8
332.61	1154	7694.6	7694.6
333.11	1153.5	7623.27	7623.27
333.61	1153	7656.07	7656.07
334.11	1152.5	7727.13	7727.13
334.61	1152	7674	7674
335.11	1151.5	7656.13	7656.13
335.61	1151	7715.73	7715.73
336.11	1150.5	7787.27	7787.27
336.61	1150	7744.27	7744.27
337.11	1149.5	7775.87	7775.87
337.61	1149	7754.53	7754.53
338.11	1148.5	7693.4	7693.4
338.61	1148	7767.33	7767.33
339.11	1147.5	7824.33	7824.33
339.61	1147	7897.73	7897.73
340.11	1146.5	7877.2	7877.2
340.61	1146	7838.27	7838.27
341.11	1145.5	7816.27	7816.27
341.61	1145	7840.33	7840.33
342.11	1144.5	7804.67	7804.67
342.61	1144	7757.87	7757.87
343.11	1143.5	7811.2	7811.2
343.61	1143	7870.07	7870.07
344.11	1142.5	7857.2	7857.2
344.61	1142	7733.8	7733.8
345.11	1141.5	7649.27	7649.27
345.61	1141	7730	7730
346.11	1140.5	7821.13	7821.13
346.61	1140	7863.07	7863.07
347.11	1139.5	7819	7819
347.61	1139	7755.67	7755.67
348.11	1138.5	7814.47	7814.47
348.61	1138	7783.93	7783.93
349.11	1137.5	7914.6	7914.6
349.61	1137	7889.8	7889.8
350.11	1136.5	7806.27	7806.27
350.61	1136	7784.93	7784.93
351.11	1135.5	7857.8	7857.8
351.61	1135	7796.6	7796.6
352.11	1134.5	7881.53	7881.53
352.61	1134	7845.2	7845.2
353.11	1133.5	7864.53	7864.53
353.61	1133	7859.33	7859.33
354.11	1132.5	7852.4	7852.4
354.61	1132	7985.67	7985.67
355.11	1131.5	8055.07	8055.07
355.61	1131	7873	7873
356.11	1130.5	7975.8	7975.8
356.61	1130	7932.07	7932.07
357.11	1129.5	7990.67	7990.67
357.61	1129	7995.13	7995.13
358.11	1128.5	8037.6	8037.6
358.61	1128	7862.93	7862.93
359.11	1127.5	7873.73	7873.73
359.61	1127	7838.33	7838.33
360.11	1126.5	7838.13	7838.13
360.61	1126	7833.47	7833.47
361.11	1125.5	7851.8	7851.8
361.61	1125	7859.13	7859.13
362.11	1124.5	7852.87	7852.87
362.61	1124	7859.2	7859.2
363.11	1123.5	7847.4	7847.4
363.61	1123	7853.93	7853.93
364.11	1122.5	7888.73	7888.73
364.61	1122	7808.73	7808.73
365.11	1121.5	7950.07	7950.07
365.61	1121	7816.73	7816.73
366.11	1120.5	7884.73	7884.73
366.61	1120	7912	7912
367.11	1119.5	7915.33	7915.33
367.61	1119	7933.6	7933.6
368.11	1118.5	7939.2	7939.2
368.61	1118	7915.87	7915.87
369.11	1117.5	7832.2	7832.2
369.61	1117	7801.87	7801.87
370.11	1116.5	7918.87	7918.87
370.61	1116	7860.87	7860.87
371.11	1115.5	7958.93	7958.93
371.61	1115	7922.4	7922.4
372.11	1114.5	7871.47	7871.47
372.61	1114	7836	7836
373.11	1113.5	7925.53	7925.53
373.61	1113	7860.93	7860.93
374.11	1112.5	7977.73	7977.73
374.61	1112	7947.8	7947.8
375.11	1111.5	7931	7931
375.61	1111	7909.33	7909.33
376.11	1110.5	7833.47	7833.47
376.61	1110	7840.73	7840.73
377.11	1109.5	7981.2	7981.2
377.61	1109	7836.6	7836.6
378.11	1108.5	7907.93	7907.93
378.61	1108	8011.27	8011.27
379.11	1107.5	7936.8	7936.8
379.61	1107	7974.73	7974.73
380.11	1106.5	8019.47	8019.47
380.61	1106	7992.2	7992.2
381.11	1105.5	7953.8	7953.8
381.61	1105	7988	7988
382.11	1104.5	7941.33	7941.33
382.61	1104	7985.8	7985.8
383.11	1103.5	7943.2	7943.2
383.61	1103	7912.67	7912.67
384.11	1102.5	8000.8	8000.8
384.61	1102	7987.93	7987.93
385.11	1101.5	8059.2	8059.2
385.61	1101	8033.73	8033.73
386.11	1100.5	7986.87	7986.87
386.61	1100	8003.07	8003.07
387.11	1099.5	7931.67	7931.67
387.61	1099	7996.53	7996.53
388.11	1098.5	8081.2	8081.2
388.61	1098	8052.27	8052.27
389.11	1097.5	8123.73	8123.73
389.61	1097	7998.2	7998.2
390.11	1096.5	8039.87	8039.87
390.61	1096	8059.4	8059.4
391.11	1095.5	8118.87	8118.87
391.61	1095	8118.73	8118.73
392.11	1094.5	8032.4	8032.4
392.61	1094	8014.93	8014.93
393.11	1093.5	8098.67	8098.67
393.61	1093	8006.67	8006.67
394.11	1092.5	8048.4	8048.4
394.61	1092	8117.33	8117.33
395.11	1091.5	8144.13	8144.13
395.61	1091	8045	8045
396.11	1090.5	8028.47	8028.47
396.61	1090	8204.67	8204.67
397.11	1089.5	8116	8116
397.61	1089	8027.67	8027.67
398.11	1088.5	8077.6	8077.6
398.61	1088	8071.93	8071.93
399.11	1087.5	8072	8072
399.61	1087	8159.67	8159.67
400.11	1086.5	8031.53	8031.53
400.61	1086	8085.47	8085.47
401.11	1085.5	8116	8116
401.61	1085	8092.33	8092.33
402.11	1084.5	8140.47	8140.47
402.61	1084	8073.13	8073.13
403.11	1083.5	8041.8	8041.8
403.61	1083	7993.53	7993.53
404.11	1082.5	8033	8033
404.61	1082	8038.4	8038.4
405.11	1081.5	8084.33	8084.33
405.61	1081	8043	8043
406.11	1080.5	7993.73	7993.73
406.61	1080	8009.47	8009.47
407.11	1079.5	8069.6	8069.6
407.61	1079	7962.33	7962.33
408.11	1078.5	7993.8	7993.8
408.61	1078	8025.53	8025.53
409.11	1077.5	8124.8	8124.8
409.61	1077	8052.13	8052.13
410.11	1076.5	8043.93	8043.93
410.61	1076	7976.6	7976.6
411.11	1075.5	8046.33	8046.33
411.61	1075	8045.33	8045.33
412.11	1074.5	8094.93	8094.93
412.61	1074	8002.53	8002.53
413.11	1073.5	8068.87	8068.87
413.61	1073	7941.6	7941.6
414.11	1072.5	8027.07	8027.07
414.61	1072	8062.07	8062.07
415.11	1071.5	8024.93	8024.93
415.61	1071	7915.4	7915.4
416.11	1070.5	8099.13	8099.13
416.61	1070	7994.4	7994.4
417.11	1069.5	8085.07	8085.07
417.61	1069	8029.27	8029.27
418.11	1068.5	7994.13	7994.13
418.61	1068	7989.4	7989.4
419.11	1067.5	8161.27	8161.27
419.61	1067	8028.6	8028.6
420.11	1066.5	8016.2	8016.2
420.61	1066	8136.07	8136.07
421.11	1065.5	8163.87	8163.87
421.61	1065	8252	8252
422.11	1064.5	8091.47	8091.47
422.61	1064	8091.13	8091.13
423.11	1063.5	8106.87	8106.87
423.61	1063	8195.8	8195.8
424.11	1062.5	8249.8	8249.8
424.61	1062	8202.73	8202.73
425.11	1061.5	8200.53	8200.53
425.61	1061	8147.33	8147.33
426.11	1060.5	8123	8123
426.61	1060	8060.27	8060.27
427.11	1059.5	8019.67	8019.67
427.61	1059	8109.47	8109.47
428.11	1058.5	8182.67	8182.67
428.61	1058	8129.93	8129.93
429.11	1057.5	8127.4	8127.4
429.61	1057	8149	8149
430.11	1056.5	8135.87	8135.87
430.61	1056	8161.93	8161.93
431.11	1055.5	8165.67	8165.67
431.61	1055	8233.13	8233.13
432.11	1054.5	8190	8190
432.61	1054	8193.8	8193.8
433.11	1053.5	8118.2	8118.2
433.61	1053	8143.73	8143.73
434.11	1052.5	8182.07	8182.07
434.61	1052	8178.53	8178.53
435.11	1051.5	8151.27	8151.27
435.61	1051	8173.93	8173.93
436.11	1050.5	8201.93	8201.93
436.61	1050	8259.33	8259.33
437.11	1049.5	8387	8387
437.61	1049	8268.07	8268.07
438.11	1048.5	8342.13	8342.13
438.61	1048	8271.8	8271.8
439.11	1047.5	8177.8	8177.8
439.61	1047	8315.67	8315.67
440.11	1046.5	8368.87	8368.87
440.61	1046	8328.4	8328.4
441.11	1045.5	8261.53	8261.53
441.61	1045	8251	8251
442.11	1044.5	8376.07	8376.07
442.61	1044	8306.2	8306.2
443.11	1043.5	8205.07	8205.07
443.61	1043	8239.4	8239.4
444.11	1042.5	8349.93	8349.93
444.61	1042	8285.67	8285.67
445.11	1041.5	8260.27	8260.27
445.61	1041	8288.67	8288.67
446.11	1040.5	8331.6	8331.6
446.61	1040	8414.93	8414.93
447.11	1039.5	8407.4	8407.4
447.61	1039	8431.47	8431.47
448.11	1038.5	8283.87	8283.87
448.61	1038	8279.4	8279.4
449.11	1037.5	8328	8328
449.61	1037	8352.87	8352.87
450.11	1036.5	8319.47	8319.47
450.61	1036	8449.07	8449.07
451.11	1035.5	8389.73	8389.73
451.61	1035	8446.07	8446.07
452.11	1034.5	8434.2	8434.2
452.61	1034	8325.73	8325.73
453.11	1033.5	8345.67	8345.67
453.61	1033	8455.67	8455.67
454.11	1032.5	8408.67	8408.67
454.61	1032	8392.87	8392.87
455.11	1031.5	8459.33	8459.33
455.61	1031	8457.6	8457.6
456.11	1030.5	8387.4	8387.4
456.61	1030	8355.4	8355.4
457.11	1029.5	8318.47	8318.47
457.61	1029	8409.13	8409.13
458.11	1028.5	8386.8	8386.8
458.61	1028	8381.4	8381.4
459.11	1027.5	8374.73	8374.73
459.61	1027	8434	8434
460.11	1026.5	8459.33	8459.33
460.61	1026	8454.8	8454.8
461.11	1025.5	8399.07	8399.07
461.61	1025	8488.73	8488.73
462.11	1024.5	8364.07	8364.07
462.61	1024	8417.33	8417.33
463.11	1023.5	8377.47	8377.47
463.61	1023	8411.53	8411.53
464.11	1022.5	8461.47	8461.47
464.61	1022	8414.33	8414.33
465.11	1021.5	8375.4	8375.4
465.61	1021	8486.8	8486.8
466.11	1020.5	8452.13	8452.13
466.61	1020	8468.47	8468.47
467.11	1019.5	8411.8	8411.8
467.61	1019	8420.6	8420.6
468.11	1018.5	8409.73	8409.73
468.61	1018	8430.4	8430.4
469.11	1017.5	8440.4	8440.4
469.61	1017	8583.93	8583.93
470.11	1016.5	8555.2	8555.2
470.61	1016	8455.53	8455.53
471.11	1015.5	8505.6	8505.6
471.61	1015	8434.07	8434.07
472.11	1014.5	8434.33	8434.33
472.61	1014	8484.07	8484.07
473.11	1013.5	8424.2	8424.2
473.61	1013	8431.13	8431.13
474.11	1012.5	8445.33	8445.33
474.61	1012	8524.33	8524.33
475.11	1011.5	8579.27	8579.27
475.61	1011	8516	8516
476.11	1010.5	8504.33	8504.33
476.61	1010	8590.4	8590.4
477.11	1009.5	8547.07	8547.07
477.61	1009	8577.67	8577.67
478.11	1008.5	8609.27	8609.27
478.61	1008	8565.13	8565.13
479.11	1007.5	8552.4	8552.4
479.61	1007	8596.8	8596.8
480.11	1006.5	8545.53	8545.53
480.61	1006	8472.8	8472.8
481.11	1005.5	8548.47	8548.47
481.61	1005	8599.67	8599.67
482.11	1004.5	8679.27	8679.27
482.61	1004	8626.47	8626.47
483.11	1003.5	8487.93	8487.93
483.61	1003	8606.07	8606.07
484.11	1002.5	8502.13	8502.13
484.61	1002	8585.53	8585.53
485.11	1001.5	8539.6	8539.6
485.61	1001	8451.4	8451.4
486.11	1000.5	8545.27	8545.27
486.61	1000	8544.73	8544.73
487.11	999.5	8644.27	8644.27
487.61	999	8685.47	8685.47
488.11	998.5	8629.73	8629.73
488.61	998	8602.07	8602.07
489.11	997.5	8511.8	8511.8
489.61	997	8685.47	8685.47
490.11	996.5	8662.47	8662.47
490.61	996	8578.27	8578.27
491.11	995.5	8657.13	8657.13
491.61	995	8587.73	8587.73
492.11	994.5	8592.67	8592.67
492.61	994	8647.87	8647.87
493.11	993.5	8679.07	8679.07
493.61	993	8564.13	8564.13
494.11	992.5	8580.73	8580.73
494.61	992	8614.93	8614.93
495.11	991.5	8599.27	8599.27
495.61	991	8608.47	8608.47
496.11	990.5	8640.13	8640.13
496.61	990	8684.8	8684.8
497.11	989.5	8723.53	8723.53
497.61	989	8610.87	8610.87
498.11	988.5	8628.6	8628.6
498.61	988	8604.87	8604.87
499.11	987.5	8628.07	8628.07
499.61	987	8654.2	8654.2
500.11	986.5	8621.33	8621.33
500.61	986	8707.2	8707.2
501.11	985.5	8757.13	8757.13
501.61	985	8785.6	8785.6
502.11	984.5	8701.2	8701.2
502.61	984	8688.53	8688.53
503.11	983.5	8702.4	8702.4
503.61	983	8689.27	8689.27
504.11	982.5	8694.67	8694.67
504.61	982	8684.8	8684.8
505.11	981.5	8614.33	8614.33
505.61	981	8660.93	8660.93
506.11	980.5	8685.87	8685.87
506.61	980	8724.33	8724.33
507.11	979.5	8688.6	8688.6
507.61	979	8782.07	8782.07
508.11	978.5	8756	8756
508.61	978	8791.27	8791.27
509.11	977.5	8855.33	8855.33
509.61	977	8791.13	8791.13
510.11	976.5	8754.6	8754.6
510.61	976	8835.8	8835.8
511.11	975.5	8871.93	8871.93
511.61	975	8855.47	8855.47
512.11	974.5	8778.73	8778.73
512.61	974	8771.2	8771.2
513.11	973.5	8877.4	8877.4
513.61	973	8929.27	8929.27
514.11	972.5	8856.13	8856.13
514.61	972	8855.8	8855.8
515.11	971.5	8977.13	8977.13
515.61	971	8938.07	8938.07
516.11	970.5	8921.87	8921.87
516.61	970	8815.93	8815.93
517.11	969.5	8758.73	8758.73
517.61	969	8863.53	8863.53
518.11	968.5	8926.47	8926.47
518.61	968	8869.33	8869.33
519.11	967.5	8794.47	8794.47
519.61	967	8908.27	8908.27
520.11	966.5	8953.8	8953.8
520.61	966	8914.53	8914.53
521.11	965.5	8881	8881
521.61	965	8953.53	8953.53
522.11	964.5	8847.13	8847.13
522.61	964	8951	8951
523.11	963.5	8772.6	8772.6
523.61	963	8847.6	8847.6
524.11	962.5	8918.6	8918.6
524.61	962	8782.93	8782.93
525.11	961.5	8831.53	8831.53
525.61	961	8954.33	8954.33
526.11	960.5	8960.8	8960.8
526.61	960	8857.67	8857.67
527.11	959.5	8885.07	8885.07
527.61	959	8970.27	8970.27
528.11	958.5	8961.27	8961.27
528.61	958	8970.6	8970.6
529.11	957.5	8988.8	8988.8
529.61	957	8905.67	8905.67
530.11	956.5	9054.6	9054.6
530.61	956	8907.27	8907.27
531.11	955.5	8900	8900
531.61	955	8930.73	8930.73
532.11	954.5	9009.8	9009.8
532.61	954	8942.8	8942.8
533.11	953.5	8966.93	8966.93
533.61	953	9042.93	9042.93
534.11	952.5	9080.67	9080.67
534.61	952	9024.4	9024.4
535.11	951.5	9046.47	9046.47
535.61	951	9062.33	9062.33
536.11	950.5	8994.67	8994.67
536.61	950	9016.53	9016.53
537.11	949.5	9003.8	9003.8
537.61	949	9015.67	9015.67
538.11	948.5	8849.2	8849.2
538.61	948	8988.47	8988.47
539.11	947.5	9080.33	9080.33
539.61	947	9042.13	9042.13
540.11	946.5	9175.07	9175.07
540.61	946	9087.93	9087.93
541.11	945.5	8982	8982
541.61	945	9042.93	9042.93
542.11	944.5	9066.53	9066.53
542.61	944	9167.8	9167.8
543.11	943.5	9058.47	9058.47
543.61	943	9122.67	9122.67
544.11	942.5	9040.47	9040.47
544.61	942	9077.8	9077.8
545.11	941.5	9144.93	9144.93
545.61	941	9150.27	9150.27
546.11	940.5	9070.2	9070.2
546.61	940	9080.8	9080.8
547.11	939.5	9161.07	9161.07
547.61	939	9171.6	9171.6
548.11	938.5	9161.87	9161.87
548.61	938	9160.8	9160.8
549.11	937.5	9086.4	9086.4
549.61	937	9215.13	9215.13
550.11	936.5	9185.07	9185.07
550.61	936	9135.2	9135.2
551.11	935.5	9150.47	9150.47
551.61	935	9216.33	9216.33
552.11	934.5	9167.2	9167.2
552.61	934	9120.93	9120.93
553.11	933.5	9192.67	9192.67
553.61	933	9194.07	9194.07
554.11	932.5	9191.47	9191.47
554.61	932	9223.93	9223.93
555.11	931.5	9230.87	9230.87
555.61	931	9169.8	9169.8
556.11	930.5	9160.4	9160.4
556.61	930	9281.73	9281.73
557.11	929.5	9256.07	9256.07
557.61	929	9137.6	9137.6
558.11	928.5	9248.47	9248.47
558.61	928	9290.07	9290.07
559.11	927.5	9141.93	9141.93
559.61	927	9080.2	9080.2
560.11	926.5	9121.87	9121.87
560.61	926	9257.13	9257.13
561.11	925.5	9311	9311
561.61	925	9265.8	9265.8
562.11	924.5	9242.4	9242.4
562.61	924	9173.93	9173.93
563.11	923.5	9200.67	9200.67
563.61	923	9268.67	9268.67
564.11	922.5	9279.27	9279.27
564.61	922	9242.87	9242.87
565.11	921.5	9231.33	9231.33
565.61	921	9399.73	9399.73
566.11	920.5	9321.87	9321.87
566.61	920	9333.53	9333.53
567.11	919.5	9334.4	9334.4
567.61	919	9328.67	9328.67
568.11	918.5	9339.87	9339.87
568.61	918	9434	9434
569.11	917.5	9330.47	9330.47
569.61	917	9294.27	9294.27
570.11	916.5	9349.8	9349.8
570.61	916	9306.73	9306.73
571.11	915.5	9383.6	9383.6
571.61	915	9417.47	9417.47
572.11	914.5	9371.8	9371.8
572.61	914	9359.87	9359.87
573.11	913.5	9320.27	9320.27
573.61	913	9340.07	9340.07
574.11	912.5	9332.33	9332.33
574.61	912	9354.2	9354.2
575.11	911.5	9459.4	9459.4
575.61	911	9354.13	9354.13
576.11	910.5	9473.67	9473.67
576.61	910	9485.4	9485.4
577.11	909.5	9480.8	9480.8
577.61	909	9390.47	9390.47
578.11	908.5	9421.2	9421.2
578.61	908	9332.2	9332.2
579.11	907.5	9366.47	9366.47
579.61	907	9424.27	9424.27
580.11	906.5	9386.6	9386.6
580.61	906	9451.87	9451.87
581.11	905.5	9417.4	9417.4
581.61	905	9408.2	9408.2
582.11	904.5	9554.33	9554.33
582.61	904	9467.4	9467.4
583.11	903.5	9409.53	9409.53
583.61	903	9444.8	9444.8
584.11	902.5	9465.6	9465.6
584.61	902	9548.87	9548.87
585.11	901.5	9503.53	9503.53
585.61	901	9355.47	9355.47
586.11	900.5	9486.13	9486.13
586.61	900	9456.47	9456.47
587.11	899.5	9414.6	9414.6
587.61	899	9374.6	9374.6
588.11	898.5	9397.6	9397.6
588.61	898	9445.47	9445.47
589.11	897.5	9505.6	9505.6
589.61	897	9484.27	9484.27
590.11	896.5	9531.67	9531.67
590.61	896	9566.07	9566.07
591.11	895.5	9559.6	9559.6
591.61	895	9592.2	9592.2
592.11	894.5	9466.87	9466.87
592.61	894	9563.8	9563.8
593.11	893.5	9613.2	9613.2
593.61	893	9526.53	9526.53
594.11	892.5	9539.73	9539.73
594.61	892	9495	9495
595.11	891.5	9442.8	9442.8
595.61	891	9616.2	9616.2
596.11	890.5	9590.8	9590.8
596.61	890	9525.67	9525.67
597.11	889.5	9465.07	9465.07
597.61	889	9507.93	9507.93
598.11	888.5	9679.07	9679.07
598.61	888	9628.6	9628.6
599.11	887.5	9635.4	9635.4
599.61	887	9600.53	9600.53
600.11	886.5	9541.73	9541.73
600.61	886	9554.67	9554.67
601.11	885.5	9589.73	9589.73
601.61	885	9508.2	9508.2
602.11	884.5	9693.07	9693.07
602.61	884	9721.13	9721.13
603.11	883.5	9698.07	9698.07
603.61	883	9630.73	9630.73
604.11	882.5	9622.6	9622.6
604.61	882	9745.27	9745.27
605.11	881.5	9632.67	9632.67
605.61	881	9723.8	9723.8
606.11	880.5	9700.13	9700.13
606.61	880	9661.07	9661.07
607.11	879.5	9749.6	9749.6
607.61	879	9802.93	9802.93
608.11	878.5	9722.8	9722.8
608.61	878	9777.4	9777.4
609.11	877.5	9792.2	9792.2
609.61	877	9670.2	9670.2
610.11	876.5	9690.27	9690.27
610.61	876	9690.87	9690.87
611.11	875.5	9748.53	9748.53
611.61	875	9753.73	9753.73
612.11	874.5	9757.67	9757.67
612.61	874	9670.8	9670.8
613.11	873.5	9673.4	9673.4
613.61	873	9777.8	9777.8
614.11	872.5	9819.87	9819.87
614.61	872	9855.87	9855.87
615.11	871.5	9954.53	9954.53
615.61	871	9854.47	9854.47
616.11	870.5	9776	9776
616.61	870	9708.4	9708.4
617.11	869.5	9772.07	9772.07
617.61	869	9646.13	9646.13
618.11	868.5	9811.87	9811.87
618.61	868	9888.33	9888.33
619.11	867.5	9991.33	9991.33
619.61	867	9953.07	9953.07
620.11	866.5	9792.33	9792.33
620.61	866	9800.2	9800.2
621.11	865.5	9885.53	9885.53
621.61	865	9865.47	9865.47
622.11	864.5	9869.27	9869.27
622.61	864	9987.2	9987.2
623.11	863.5	9909.4	9909.4
623.61	863	9928.53	9928.53
624.11	862.5	9833.47	9833.47
624.61	862	9940.8	9940.8
625.11	861.5	10012.7	10012.7
625.61	861	9889.6	9889.6
626.11	860.5	9908.13	9908.13
626.61	860	10001.8	10001.8
627.11	859.5	9907.53	9907.53
627.61	859	9951.8	9951.8
628.11	858.5	9971.33	9971.33
628.61	858	9844.4	9844.4
629.11	857.5	9842.27	9842.27
629.61	857	9990.13	9990.13
630.11	856.5	10037.5	10037.5
630.61	856	10034.7	10034.7
631.11	855.5	10031.4	10031.4
631.61	855	9937	9937
632.11	854.5	9995.87	9995.87
632.61	854	9959.67	9959.67
633.11	853.5	10003.9	10003.9
633.61	853	9973.27	9973.27
634.11	852.5	9966.4	9966.4
634.61	852	10006.5	10006.5
635.11	851.5	10069.1	10069.1
635.61	851	9974.13	9974.13
636.11	850.5	10112.3	10112.3
636.61	850	10108.8	10108.8
637.11	849.5	10014.1	10014.1
637.61	849	10048.8	10048.8
638.11	848.5	10046.3	10046.3
638.61	848	10049	10049
639.11	847.5	10105.9	10105.9
639.61	847	10176.5	10176.5
640.11	846.5	10045.5	10045.5
640.61	846	10071.9	10071.9
641.11	845.5	10146.5	10146.5
641.61	845	10252.3	10252.3
642.11	844.5	10167	10167
642.61	844	10158	10158
643.11	843.5	10166.9	10166.9
643.61	843	10104.9	10104.9
644.11	842.5	10165.6	10165.6
644.61	842	10201.7	10201.7
645.11	841.5	10296.7	10296.7
645.61	841	10215.6	10215.6
646.11	840.5	10169.5	10169.5
646.61	840	10333.2	10333.2
647.11	839.5	10288.1	10288.1
647.61	839	10244	10244
648.11	838.5	10246.3	10246.3
648.61	838	10230.7	10230.7
649.11	837.5	10218.9	10218.9
649.61	837	10145.8	10145.8
650.11	836.5	10097.2	10097.2
650.61	836	10318.3	10318.3
651.11	835.5	10286.7	10286.7
651.61	835	10270.1	10270.1
652.11	834.5	10228.2	10228.2
652.61	834	10393.1	10393.1
653.11	833.5	10184.2	10184.2
653.61	833	10288.2	10288.2
654.11	832.5	10351.4	10351.4
654.61	832	10300.3	10300.3
655.11	831.5	10367.7	10367.7
655.61	831	10278.5	10278.5
656.11	830.5	10322.1	10322.1
656.61	830	10411.2	10411.2
657.11	829.5	10343.1	10343.1
657.61	829	10344.4	10344.4
658.11	828.5	10353.7	10353.7
658.61	828	10384.7	10384.7
659.11	827.5	10265.9	10265.9
659.61	827	10293.6	10293.6
660.11	826.5	10338.7	10338.7
660.61	826	10312.8	10312.8
661.11	825.5	10528.9	10528.9
661.61	825	10286.8	10286.8
662.11	824.5	10421.7	10421.7
662.61	824	10424.2	10424.2
663.11	823.5	10451.9	10451.9
663.61	823	10509.9	10509.9
664.11	822.5	10431.8	10431.8
664.61	822	10477.6	10477.6
665.11	821.5	10382.8	10382.8
665.61	821	10470.9	10470.9
666.11	820.5	10591.1	10591.1
666.61	820	10439.9	10439.9
667.11	819.5	10291.7	10291.7
667.61	819	10551.5	10551.5
668.11	818.5	10457.9	10457.9
668.61	818	10466.9	10466.9
669.11	817.5	10514.5	10514.5
669.61	817	10503.7	10503.7
670.11	816.5	10396.9	10396.9
670.61	816	10528.7	10528.7
671.11	815.5	10651.9	10651.9
671.61	815	10687	10687
672.11	814.5	10625.1	10625.1
672.61	814	10620.2	10620.2
673.11	813.5	10635.6	10635.6
673.61	813	10568.7	10568.7
674.11	812.5	10613.3	10613.3
674.61	812	10678.3	10678.3
675.11	811.5	10664.3	10664.3
675.61	811	10552.1	10552.1
676.11	810.5	10728.6	10728.6
676.61	810	10706.8	10706.8
677.11	809.5	10632.3	10632.3
677.61	809	10548	10548
678.11	808.5	10761.9	10761.9
678.61	808	10665.9	10665.9
679.11	807.5	10566.5	10566.5
679.61	807	10656.9	10656.9
680.11	806.5	10795.7	10795.7
680.61	806	10681.5	10681.5
681.11	805.5	10791	10791
681.61	805	10685.3	10685.3
682.11	804.5	10869.9	10869.9
682.61	804	10751.1	10751.1
683.11	803.5	10646.7	10646.7
683.61	803	10823.6	10823.6
684.11	802.5	10781.3	10781.3
684.61	802	10649.3	10649.3
685.11	801.5	10755.2	10755.2
685.61	801	10704.8	10704.8
686.11	800.5	10755.1	10755.1
686.61	800	10791.9	10791.9
687.11	799.5	10806.9	10806.9
687.61	799	10871.5	10871.5
688.11	798.5	10795.1	10795.1
688.61	798	10888.7	10888.7
689.11	797.5	10817.5	10817.5
689.61	797	10779.7	10779.7
690.11	796.5	10883.5	10883.5
690.61	796	10901.5	10901.5
691.11	795.5	10933.8	10933.8
691.61	795	10816.9	10816.9
692.11	794.5	10910.9	10910.9
692.61	794	10842.1	10842.1
693.11	793.5	10944.4	10944.4
693.61	793	11017.9	11017.9
694.11	792.5	10956.7	10956.7
694.61	792	10904.5	10904.5
695.11	791.5	10915.6	10915.6
695.61	791	10961	10961
696.11	790.5	11010.7	11010.7
696.61	790	10971.1	10971.1
697.11	789.5	11038.5	11038.5
697.61	789	10960.1	10960.1
698.11	788.5	10982.5	10982.5
698.61	788	10923.9	10923.9
699.11	787.5	10869.7	10869.7
699.61	787	10852.7	10852.7
700.11	786.5	10913.3	10913.3
700.61	786	10949.1	10949.1
701.11	785.5	11060.3	11060.3
701.61	785	11147.5	11147.5
702.11	784.5	11074.3	11074.3
702.61	784	11018.3	11018.3
703.11	783.5	11055.1	11055.1
703.61	783	11106.1	11106.1
704.11	782.5	10964.3	10964.3
704.61	782	11082.3	11082.3
705.11	781.5	11047.5	11047.5
705.61	781	11012	11012
706.11	780.5	11067.8	11067.8
706.61	780	11081	11081
707.11	779.5	10933.3	10933.3
707.61	779	11118.2	11118.2
708.11	778.5	11013.1	11013.1
708.61	778	11004.7	11004.7
709.11	777.5	10912.2	10912.2
709.61	777	10887.5	10887.5
710.11	776.5	10967	10967
710.61	776	10994.1	10994.1
711.11	775.5	11041.7	11041.7
711.61	775	11129.9	11129.9
712.11	774.5	11169.6	11169.6
712.61	774	11236.8	11236.8
713.11	773.5	11223.5	11223.5
713.61	773	11114.5	11114.5
714.11	772.5	11256.3	11256.3
714.61	772	11083.1	11083.1
715.11	771.5	11217.9	11217.9
715.61	771	11220.8	11220.8
716.11	770.5	11123.1	11123.1
716.61	770	11237.5	11237.5
717.11	769.5	11222.5	11222.5
717.61	769	11215.4	11215.4
718.11	768.5	11194.3	11194.3
718.61	768	11321.9	11321.9
719.11	767.5	11466.2	11466.2
719.61	767	11611.3	11611.3
720.11	766.5	11509.6	11509.6
720.61	766	11471.9	11471.9
721.11	765.5	11689.8	11689.8
721.61	765	11643.3	11643.3
722.11	764.5	11750.3	11750.3
722.61	764	11807.9	11807.9
723.11	763.5	12025.3	12025.3
723.61	763	12029.9	12029.9
724.11	762.5	12128.9	12128.9
724.61	762	12050.1	12050.1
725.11	761.5	12013.6	12013.6
725.61	761	12060.6	12060.6
726.11	760.5	12056.1	12056.1
726.61	760	11987.9	11987.9
727.11	759.5	11810	11810
727.61	759	11715.2	11715.2
728.11	758.5	11596.3	11596.3
728.61	758	11505.7	11505.7
729.11	757.5	11353.9	11353.9
729.61	757	11359.2	11359.2
730.11	756.5	11308.9	11308.9
730.61	756	11228.7	11228.7
731.11	755.5	11251.6	11251.6
731.61	755	11090.6	11090.6
732.11	754.5	11133.7	11133.7
732.61	754	11238	11238
733.11	753.5	11129.7	11129.7
733.61	753	11049.6	11049.6
734.11	752.5	11105	11105
734.61	752	11073.5	11073.5
735.11	751.5	11097.1	11097.1
735.61	751	11078.1	11078.1
736.11	750.5	11020.5	11020.5
736.61	750	11072.8	11072.8
737.11	749.5	10970.9	10970.9
737.61	749	10894.8	10894.8
738.11	748.5	11032.9	11032.9
738.61	748	10953.1	10953.1
739.11	747.5	10963.1	10963.1
739.61	747	10920.6	10920.6
740.11	746.5	10973.4	10973.4
740.61	746	10955.1	10955.1
741.11	745.5	11085.6	11085.6
741.61	745	10895	10895
742.11	744.5	11052.4	11052.4
742.61	744	10931.1	10931.1
743.11	743.5	10877.7	10877.7
743.61	743	10894.5	10894.5
744.11	742.5	10977.3	10977.3
744.61	742	11104.8	11104.8
745.11	741.5	11093.2	11093.2
745.61	741	10917.5	10917.5
746.11	740.5	10968.5	10968.5
746.61	740	11052.7	11052.7
747.11	739.5	11025.1	11025.1
747.61	739	11155.1	11155.1
748.11	738.5	11168.7	11168.7
748.61	738	11112.4	11112.4
749.11	737.5	11045.2	11045.2
749.61	737	11108.9	11108.9
750.11	736.5	11051.6	11051.6
750.61	736	11027.7	11027.7
751.11	735.5	11122	11122
751.61	735	11193.2	11193.2
752.11	734.5	11157.6	11157.6
752.61	734	11069.9	11069.9
753.11	733.5	11147.2	11147.2
753.61	733	11037.5	11037.5
754.11	732.5	11059.3	11059.3
754.61	732	11120.7	11120.7
755.11	731.5	11139.1	11139.1
755.61	731	11070.2	11070.2
756.11	730.5	11101.4	11101.4
756.61	730	11177.2	11177.2
757.11	729.5	11246.1	11246.1
757.61	729	11208.7	11208.7
758.11	728.5	11153.7	11153.7
758.61	728	11217.3	11217.3
759.11	727.5	11165.2	11165.2
759.61	727	11115.1	11115.1
760.11	726.5	11138.1	11138.1
760.61	726	11200.3	11200.3
761.11	725.5	11234.9	11234.9
761.61	725	11289.3	11289.3
762.11	724.5	11145.1	11145.1
762.61	724	11103.5	11103.5
763.11	723.5	11262.4	11262.4
763.61	723	11325.1	11325.1
764.11	722.5	11320.5	11320.5
764.61	722	11406.7	11406.7
765.11	721.5	11361	11361
765.61	721	11367	11367
766.11	720.5	11258.7	11258.7
766.61	720	11272.5	11272.5
767.11	719.5	11325.1	11325.1
767.61	719	11416	11416
768.11	718.5	11310.4	11310.4
768.61	718	11312.7	11312.7
769.11	717.5	11298.4	11298.4
769.61	717	11293.4	11293.4
770.11	716.5	11248.1	11248.1
770.61	716	11251.5	11251.5
771.11	715.5	11295.5	11295.5
771.61	715	11302	11302
772.11	714.5	11305.9	11305.9
772.61	714	11390.5	11390.5
773.11	713.5	11449.9	11449.9
773.61	713	11404.9	11404.9
774.11	712.5	11400.2	11400.2
774.61	712	11447.3	11447.3
775.11	711.5	11426.1	11426.1
775.61	711	11464.1	11464.1
776.11	710.5	11379.8	11379.8
776.61	710	11295.3	11295.3
777.11	709.5	11604	11604
777.61	709	11585.8	11585.8
778.11	708.5	11509.2	11509.2
778.61	708	11446.5	11446.5
779.11	707.5	11531.2	11531.2
779.61	707	11634	11634
780.11	706.5	11551	11551
780.61	706	11528.7	11528.7
781.11	705.5	11401.2	11401.2
781.61	705	11442.6	11442.6
782.11	704.5	11555.3	11555.3
782.61	704	11534.7	11534.7
783.11	703.5	11554.3	11554.3
783.61	703	11637.9	11637.9
784.11	702.5	11675.6	11675.6
784.61	702	11641.9	11641.9
785.11	701.5	11470.6	11470.6
785.61	701	11529.7	11529.7
786.11	700.5	11611.8	11611.8
786.61	700	11638.5	11638.5
787.11	699.5	11618.7	11618.7
787.61	699	11668.4	11668.4
788.11	698.5	11661.1	11661.1
788.61	698	11662.9	11662.9
789.11	697.5	11574.5	11574.5
789.61	697	11666.6	11666.6
790.11	696.5	11783.5	11783.5
790.61	696	11724.8	11724.8
791.11	695.5	11681.3	11681.3
791.61	695	11681.3	11681.3
792.11	694.5	11686.9	11686.9
792.61	694	11706.6	11706.6
793.11	693.5	11656.9	11656.9
793.61	693	11763.2	11763.2
794.11	692.5	11891.5	11891.5
794.61	692	11743.3	11743.3
795.11	691.5	11742.7	11742.7
795.61	691	11944.5	11944.5
796.11	690.5	11863.2	11863.2
796.61	690	11767.5	11767.5
797.11	689.5	11766.5	11766.5
797.61	689	11848.1	11848.1
798.11	688.5	11875.8	11875.8
798.61	688	11824.5	11824.5
799.11	687.5	11789.9	11789.9
799.61	687	11892.9	11892.9
800.11	686.5	11828.8	11828.8
800.61	686	11889.7	11889.7
801.11	685.5	12063.6	12063.6
801.61	685	11895.4	11895.4
802.11	684.5	11963.8	11963.8
802.61	684	11812.5	11812.5
803.11	683.5	11880.2	11880.2
803.61	683	11936.3	11936.3
804.11	682.5	11898.3	11898.3
804.61	682	12053.7	12053.7
805.11	681.5	11962.9	11962.9
805.61	681	11993.9	11993.9
806.11	680.5	12005	12005
806.61	680	12003.6	12003.6
807.11	679.5	12055.2	12055.2
807.61	679	12159.7	12159.7
808.11	678.5	12051.9	12051.9
808.61	678	11979	11979
809.11	677.5	12129.3	12129.3
809.61	677	12073.1	12073.1
810.11	676.5	11935.1	11935.1
810.61	676	12119.9	12119.9
811.11	675.5	12275.2	12275.2
811.61	675	12232.7	12232.7
812.11	674.5	12237.5	12237.5
812.61	674	12208.7	12208.7
813.11	673.5	12175.5	12175.5
813.61	673	12129.5	12129.5
814.11	672.5	12195.7	12195.7
814.61	672	12132.6	12132.6
815.11	671.5	12099.1	12099.1
815.61	671	12140.9	12140.9
816.11	670.5	12207.9	12207.9
816.61	670	12245.7	12245.7
817.11	669.5	12198.7	12198.7
817.61	669	12261.3	12261.3
818.11	668.5	12328.1	12328.1
818.61	668	12316.8	12316.8
819.11	667.5	12415.7	12415.7
819.61	667	12302.2	12302.2
820.11	666.5	12434	12434
820.61	666	12315.2	12315.2
821.11	665.5	12349.6	12349.6
821.61	665	12321	12321
822.11	664.5	12214.2	12214.2
822.61	664	12214.3	12214.3
823.11	663.5	12276.4	12276.4
823.61	663	12408.7	12408.7
824.11	662.5	12398.1	12398.1
824.61	662	12269.7	12269.7
825.11	661.5	12233.5	12233.5
825.61	661	12351.8	12351.8
826.11	660.5	12149.6	12149.6
826.61	660	12359.7	12359.7
827.11	659.5	12378.9	12378.9
827.61	659	12317.6	12317.6
828.11	658.5	12162.7	12162.7
828.61	658	12335.3	12335.3
829.11	657.5	12343.4	12343.4
829.61	657	12202.8	12202.8
830.11	656.5	12252.7	12252.7
830.61	656	12443.1	12443.1
831.11	655.5	12325.5	12325.5
831.61	655	12356.1	12356.1
832.11	654.5	12408.8	12408.8
832.61	654	12442.1	12442.1
833.11	653.5	12381.1	12381.1
833.61	653	12449.3	12449.3
834.11	652.5	12667.2	12667.2
834.61	652	12513.1	12513.1
835.11	651.5	12701.4	12701.4
835.61	651	12516.9	12516.9
836.11	650.5	12569	12569
836.61	650	12553.7	12553.7
837.11	649.5	12681.9	12681.9
837.61	649	12678.5	12678.5
838.11	648.5	12776.5	12776.5
838.61	648	12811.4	12811.4
839.11	647.5	12919.5	12919.5
839.61	647	12943.7	12943.7
840.11	646.5	12947.9	12947.9
840.61	646	13085.3	13085.3
841.11	645.5	13321.5	13321.5
841.61	645	13547.5	13547.5
842.11	644.5	13642	13642
842.61	644	13716.6	13716.6
843.11	643.5	13780.4	13780.4
843.61	643	13885.7	13885.7
844.11	642.5	13925.6	13925.6
844.61	642	13940.9	13940.9
845.11	641.5	13753.1	13753.1
845.61	641	13554	13554
846.11	640.5	13428	13428
846.61	640	13350.7	13350.7
847.11	639.5	13226.4	13226.4
847.61	639	13136.3	13136.3
848.11	638.5	12921.9	12921.9
848.61	638	12785.3	12785.3
849.11	637.5	12681.6	12681.6
849.61	637	12662	12662
850.11	636.5	12525.2	12525.2
850.61	636	12407.9	12407.9
851.11	635.5	12450.4	12450.4
851.61	635	12300	12300
852.11	634.5	12312.1	12312.1
852.61	634	12441	12441
853.11	633.5	12323.3	12323.3
853.61	633	12325.6	12325.6
854.11	632.5	12369.4	12369.4
854.61	632	12426.3	12426.3
855.11	631.5	12335.1	12335.1
855.61	631	12312.1	12312.1
856.11	630.5	12212.4	12212.4
856.61	630	12166.9	12166.9
857.11	629.5	12257.3	12257.3
857.61	629	12277.1	12277.1
858.11	628.5	12229.1	12229.1
858.61	628	12250.4	12250.4
859.11	627.5	12135.3	12135.3
859.61	627	12287.1	12287.1
860.11	626.5	12270.7	12270.7
860.61	626	12290.2	12290.2
861.11	625.5	12168.6	12168.6
861.61	625	12266.8	12266.8
862.11	624.5	12314.3	12314.3
862.61	624	12366.9	12366.9
863.11	623.5	12346.9	12346.9
863.61	623	12194.6	12194.6
864.11	622.5	12268.1	12268.1
864.61	622	12289.9	12289.9
865.11	621.5	12390.9	12390.9
865.61	621	12227.1	12227.1
866.11	620.5	12293.5	12293.5
866.61	620	12313.1	12313.1
867.11	619.5	12326.9	12326.9
867.61	619	12425.9	12425.9
868.11	618.5	12360.9	12360.9
868.61	618	12303.6	12303.6
869.11	617.5	12435.2	12435.2
869.61	617	12457.6	12457.6
870.11	616.5	12408.3	12408.3
870.61	616	12329.8	12329.8
871.11	615.5	12256.1	12256.1
871.61	615	12426.1	12426.1
872.11	614.5	12418.7	12418.7
872.61	614	12384.5	12384.5
873.11	613.5	12468.9	12468.9
873.61	613	12548.6	12548.6
874.11	612.5	12430.5	12430.5
874.61	612	12354.9	12354.9
875.11	611.5	12409.1	12409.1
875.61	611	12544.1	12544.1
876.11	610.5	12565.5	12565.5
876.61	610	12571.5	12571.5
877.11	609.5	12316.8	12316.8
877.61	609	12491.9	12491.9
878.11	608.5	12548	12548
878.61	608	12700.4	12700.4
879.11	607.5	12602.5	12602.5
879.61	607	12577.1	12577.1
880.11	606.5	12604.3	12604.3
880.61	606	12583	12583
881.11	605.5	12569.7	12569.7
881.61	605	12526.7	12526.7
882.11	604.5	12483.7	12483.7
882.61	604	12736.6	12736.6
883.11	603.5	12790.9	12790.9
883.61	603	12721.6	12721.6
884.11	602.5	12701.7	12701.7
884.61	602	12751	12751
885.11	601.5	12730.4	12730.4
885.61	601	12753.1	12753.1
886.11	600.5	12794.1	12794.1
886.61	600	12668.3	12668.3
887.11	599.5	12768.1	12768.1
887.61	599	12768.7	12768.7
888.11	598.5	12736.8	12736.8
888.61	598	12783.9	12783.9
889.11	597.5	12745.7	12745.7
889.61	597	12756.9	12756.9
890.11	596.5	12893.5	12893.5
890.61	596	12752.1	12752.1
891.11	595.5	12844.1	12844.1
891.61	595	12794.3	12794.3
892.11	594.5	12943.7	12943.7
892.61	594	12934.3	12934.3
893.11	593.5	12893.5	12893.5
893.61	593	12985.9	12985.9
894.11	592.5	12939.5	12939.5
894.61	592	13013.6	13013.6
895.11	591.5	12968.3	12968.3
895.61	591	12966.5	12966.5
896.11	590.5	12868.9	12868.9
896.61	590	12996.6	12996.6
897.11	589.5	12950.6	12950.6
897.61	589	12928.5	12928.5
898.11	588.5	13014.9	13014.9
898.61	588	13046.3	13046.3
899.11	587.5	12901.1	12901.1
899.61	587	13052.2	13052.2
900.11	586.5	13069	13069
900.61	586	13061.8	13061.8
901.11	585.5	13120.9	13120.9
901.61	585	13256.3	13256.3
902.11	584.5	13225.1	13225.1
902.61	584	13163.2	13163.2
903.11	583.5	13169.9	13169.9
903.61	583	13152.1	13152.1
904.11	582.5	13213.9	13213.9
904.61	582	13254.7	13254.7
905.11	581.5	13230.1	13230.1
905.61	581	13321.3	13321.3
906.11	580.5	13224.7	13224.7
906.61	580	13258.9	13258.9
907.11	579.5	13395.1	13395.1
907.61	579	13405.3	13405.3
908.11	578.5	13318.7	13318.7
908.61	578	13308.3	13308.3
909.11	577.5	13450.7	13450.7
909.61	577	13559.1	13559.1
910.11	576.5	13457.7	13457.7
910.61	576	13555.5	13555.5
911.11	575.5	13500.9	13500.9
911.61	575	13573.8	13573.8
912.11	574.5	13589.1	13589.1
912.61	574	13502.1	13502.1
913.11	573.5	13636.2	13636.2
913.61	573	13547	13547
914.11	572.5	13674.9	13674.9
914.61	572	13606.1	13606.1
915.11	571.5	13686.1	13686.1
915.61	571	13634.1	13634.1
916.11	570.5	13692.5	13692.5
916.61	570	13607.7	13607.7
917.11	569.5	13567.7	13567.7
917.61	569	13600.7	13600.7
918.11	568.5	13627.5	13627.5
918.61	568	13614.9	13614.9
919.11	567.5	13580.9	13580.9
919.61	567	13544.3	13544.3
920.11	566.5	13559.9	13559.9
920.61	566	13520.6	13520.6
921.11	565.5	13470.8	13470.8
921.61	565	13412.9	13412.9
922.11	564.5	13441.8	13441.8
922.61	564	13331.3	13331.3
923.11	563.5	13259.9	13259.9
923.61	563	13242.1	13242.1
924.11	562.5	13244.9	13244.9
924.61	562	13266.1	13266.1
925.11	561.5	13372.8	13372.8
925.61	561	13290.8	13290.8
926.11	560.5	13374.3	13374.3
926.61	560	13175.5	13175.5
927.11	559.5	13323.4	13323.4
927.61	559	13396	13396
928.11	558.5	13405	13405
928.61	558	13252.7	13252.7
929.11	557.5	13373.6	13373.6
929.61	557	13360.9	13360.9
930.11	556.5	13357.1	13357.1
930.61	556	13509.1	13509.1
931.11	555.5	13506.3	13506.3
931.61	555	13497.6	13497.6
932.11	554.5	13548.9	13548.9
932.61	554	13708.9	13708.9
933.11	553.5	13836.5	13836.5
933.61	553	13866.3	13866.3
934.11	552.5	13943.8	13943.8
934.61	552	14242.1	14242.1
935.11	551.5	14554.5	14554.5
935.61	551	14623.8	14623.8
936.11	550.5	15178.7	15178.7
936.61	550	15387.5	15387.5
937.11	549.5	16004.7	16004.7
937.61	549	16672.6	16672.6
938.11	548.5	17293.8	17293.8
938.61	548	18161.6	18161.6
939.11	547.5	19194.8	19194.8
939.61	547	19916.2	19916.2
940.11	546.5	20062.1	20062.1
940.61	546	19633.5	19633.5
941.11	545.5	19108.4	19108.4
941.61	545	18151.6	18151.6
942.11	544.5	17115	17115
942.61	544	16131.9	16131.9
943.11	543.5	15448.3	15448.3
943.61	543	14886.3	14886.3
944.11	542.5	14196.9	14196.9
944.61	542	13740.1	13740.1
945.11	541.5	13449.4	13449.4
945.61	541	13098.1	13098.1
946.11	540.5	12940.7	12940.7
946.61	540	12733.7	12733.7
947.11	539.5	12471.1	12471.1
947.61	539	12351.5	12351.5
948.11	538.5	12246.9	12246.9
948.61	538	12132.5	12132.5
949.11	537.5	12042.3	12042.3
949.61	537	12003.5	12003.5
950.11	536.5	12183.3	12183.3
950.61	536	12070.9	12070.9
951.11	535.5	11869	11869
951.61	535	11869.9	11869.9
952.11	534.5	12010.8	12010.8
952.61	534	11828.9	11828.9
953.11	533.5	11998.5	11998.5
953.61	533	11973.9	11973.9
954.11	532.5	11866.5	11866.5
954.61	532	11838	11838
955.11	531.5	11922.3	11922.3
955.61	531	11656.7	11656.7
956.11	530.5	11682.6	11682.6
956.61	530	11790.9	11790.9
957.11	529.5	11620.5	11620.5
957.61	529	11646.7	11646.7
958.11	528.5	11727.3	11727.3
958.61	528	11737.7	11737.7
959.11	527.5	11720.6	11720.6
959.61	527	11607.1	11607.1
960.11	526.5	11722.9	11722.9
960.61	526	11572.1	11572.1
961.11	525.5	11716.3	11716.3
961.61	525	11691.8	11691.8
962.11	524.5	11773.3	11773.3
962.61	524	11735.8	11735.8
963.11	523.5	11704.8	11704.8
963.61	523	11746.3	11746.3
964.11	522.5	11638.7	11638.7
964.61	522	11692.7	11692.7
965.11	521.5	11738.3	11738.3
965.61	521	11685.8	11685.8
966.11	520.5	11680.3	11680.3
966.61	520	11692.1	11692.1
967.11	519.5	11664.3	11664.3
967.61	519	11757.7	11757.7
968.11	518.5	11800.2	11800.2
968.61	518	11880.3	11880.3
969.11	517.5	11834.8	11834.8
969.61	517	11791.7	11791.7
970.11	516.5	11861.3	11861.3
970.61	516	11835.6	11835.6
971.11	515.5	11739.9	11739.9
971.61	515	11785.4	11785.4
972.11	514.5	11874.7	11874.7
972.61	514	11853.8	11853.8
973.11	513.5	11699.5	11699.5
973.61	513	11794.6	11794.6
974.11	512.5	11798.6	11798.6
974.61	512	11761.7	11761.7
975.11	511.5	11831.1	11831.1
975.61	511	11934.9	11934.9
976.11	510.5	11896.9	11896.9
976.61	510	11951.7	11951.7
977.11	509.5	11980.9	11980.9
977.61	509	11969.3	11969.3
978.11	508.5	11928.5	11928.5
978.61	508	11824.1	11824.1
979.11	507.5	11993.9	11993.9
979.61	507	12078.6	12078.6
980.11	506.5	11818.6	11818.6
980.61	506	11885.3	11885.3
981.11	505.5	11873.7	11873.7
981.61	505	11922.6	11922.6
982.11	504.5	11965.3	11965.3
982.61	504	11992.1	11992.1
983.11	503.5	12068.9	12068.9
983.61	503	11934.6	11934.6
984.11	502.5	11996.8	11996.8
984.61	502	11956	11956
985.11	501.5	12057.4	12057.4
985.61	501	12075	12075
986.11	500.5	12006.5	12006.5
986.61	500	12000.8	12000.8
987.11	499.5	11946.7	11946.7
987.61	499	12086.3	12086.3
988.11	498.5	12089	12089
988.61	498	12203.7	12203.7
989.11	497.5	12204	12204
989.61	497	12176.9	12176.9
990.11	496.5	12142.7	12142.7
990.61	496	12241	12241
991.11	495.5	12157.2	12157.2
991.61	495	12166.2	12166.2
992.11	494.5	12156.9	12156.9
992.61	494	12106.7	12106.7
993.11	493.5	12133.7	12133.7
993.61	493	12147.7	12147.7
994.11	492.5	12150.7	12150.7
994.61	492	12214.9	12214.9
995.11	491.5	12077.5	12077.5
995.61	491	12355.7	12355.7
996.11	490.5	12255.3	12255.3
996.61	490	12243	12243
997.11	489.5	12132.9	12132.9
997.61	489	12207.6	12207.6
998.11	488.5	12154	12154
998.61	488	12220.7	12220.7
999.11	487.5	12319.5	12319.5
999.61	487	12344.5	12344.5
1000.11	486.5	12280.3	12280.3
1000.61	486	12374.6	12374.6
1001.11	485.5	12430.7	12430.7
1001.61	485	12348.1	12348.1
1002.11	484.5	12306.4	12306.4
1002.61	484	12382.6	12382.6
1003.11	483.5	12448.1	12448.1
1003.61	483	12458.5	12458.5
1004.11	482.5	12375.7	12375.7
1004.61	482	12514.5	12514.5
1005.11	481.5	12439.5	12439.5
1005.61	481	12548.8	12548.8
1006.11	480.5	12506.5	12506.5
1006.61	480	12410.8	12410.8
1007.11	479.5	12487.9	12487.9
1007.61	479	12369.3	12369.3
1008.11	478.5	12569.3	12569.3
1008.61	478	12592.2	12592.2
1009.11	477.5	12535.9	12535.9
1009.61	477	12565.5	12565.5
1010.11	476.5	12611.7	12611.7
1010.61	476	12476.3	12476.3
1011.11	475.5	12643.3	12643.3
1011.61	475	12583.1	12583.1
1012.11	474.5	12678.7	12678.7
1012.61	474	12476.6	12476.6
1013.11	473.5	12654.8	12654.8
1013.61	473	12681.4	12681.4
1014.11	472.5	12729	12729
1014.61	472	12680.5	12680.5
1015.11	471.5	12685.9	12685.9
1015.61	471	12699.2	12699.2
1016.11	470.5	12715.1	12715.1
1016.61	470	12720.5	12720.5
1017.11	469.5	12578.3	12578.3
1017.61	469	12740.3	12740.3
1018.11	468.5	12768.2	12768.2
1018.61	468	12732.5	12732.5
1019.11	467.5	12982.7	12982.7
1019.61	467	12791.3	12791.3
1020.11	466.5	12800.7	12800.7
1020.61	466	12891.1	12891.1
1021.11	465.5	12987.7	12987.7
1021.61	465	12933.7	12933.7
1022.11	464.5	12948.2	12948.2
1022.61	464	12936.7	12936.7
1023.11	463.5	12936.9	12936.9
1023.61	463	12956.2	12956.2
1024.11	462.5	12760.5	12760.5
1024.61	462	12751.1	12751.1
1025.11	461.5	12862.3	12862.3
1025.61	461	13032.2	13032.2
1026.11	460.5	12991.5	12991.5
1026.61	460	12921.6	12921.6
1027.11	459.5	12924.2	12924.2
1027.61	459	13113.9	13113.9
1028.11	458.5	13054.6	13054.6
1028.61	458	13003.4	13003.4
1029.11	457.5	13090.3	13090.3
1029.61	457	13147.4	13147.4
1030.11	456.5	13201.5	13201.5
1030.61	456	13087.2	13087.2
1031.11	455.5	13013.1	13013.1
1031.61	455	13037.9	13037.9
1032.11	454.5	13069.9	13069.9
1032.61	454	13029.7	13029.7
1033.11	453.5	13110.7	13110.7
1033.61	453	13259.1	13259.1
1034.11	452.5	13304.1	13304.1
1034.61	452	13071.3	13071.3
1035.11	451.5	13201.5	13201.5
1035.61	451	13210.9	13210.9
1036.11	450.5	13246.7	13246.7
1036.61	450	13230.9	13230.9
1037.11	449.5	13174.1	13174.1
1037.61	449	13265.4	13265.4
1038.11	448.5	13228.3	13228.3
1038.61	448	13178.5	13178.5
1039.11	447.5	13271.7	13271.7
1039.61	447	13392.3	13392.3
1040.11	446.5	13395.3	13395.3
1040.61	446	13366.7	13366.7
1041.11	445.5	13391.5	13391.5
1041.61	445	13387.7	13387.7
1042.11	444.5	13344.8	13344.8
1042.61	444	13415.9	13415.9
1043.11	443.5	13331.3	13331.3
1043.61	443	13461.8	13461.8
1044.11	442.5	13336.4	13336.4
1044.61	442	13570.1	13570.1
1045.11	441.5	13537.9	13537.9
1045.61	441	13532	13532
1046.11	440.5	13491.3	13491.3
1046.61	440	13557.7	13557.7
1047.11	439.5	13611.2	13611.2
1047.61	439	13576.4	13576.4
1048.11	438.5	13712.9	13712.9
1048.61	438	13728.5	13728.5
1049.11	437.5	13732.5	13732.5
1049.61	437	13538	13538
1050.11	436.5	13672	13672
1050.61	436	13685.7	13685.7
1051.11	435.5	13855.3	13855.3
1051.61	435	13744	13744
1052.11	434.5	13651.8	13651.8
1052.61	434	13749.3	13749.3
1053.11	433.5	13804.7	13804.7
1053.61	433	13770.7	13770.7
1054.11	432.5	13758.3	13758.3
1054.61	432	13896.5	13896.5
1055.11	431.5	13931.7	13931.7
1055.61	431	13798.5	13798.5
1056.11	430.5	13908.9	13908.9
1056.61	430	13846.1	13846.1
1057.11	429.5	13949.8	13949.8
1057.61	429	13870.9	13870.9
1058.11	428.5	13973.5	13973.5
1058.61	428	14046.8	14046.8
1059.11	427.5	14073.9	14073.9
1059.61	427	14000.5	14000.5
1060.11	426.5	14061.5	14061.5
1060.61	426	14222.3	14222.3
1061.11	425.5	14066.1	14066.1
1061.61	425	13992.3	13992.3
1062.11	424.5	14049.7	14049.7
1062.61	424	14163.1	14163.1
1063.11	423.5	14180.2	14180.2
1063.61	423	14094.7	14094.7
1064.11	422.5	14118.9	14118.9
1064.61	422	14333	14333
1065.11	421.5	14279.6	14279.6
1065.61	421	14287.4	14287.4
1066.11	420.5	14303.7	14303.7
1066.61	420	14284.1	14284.1
1067.11	419.5	14327.1	14327.1
1067.61	419	14174.4	14174.4
1068.11	418.5	14221	14221
1068.61	418	14413.9	14413.9
1069.11	417.5	14486.5	14486.5
1069.61	417	14483.1	14483.1
1070.11	416.5	14391.9	14391.9
1070.61	416	14432.3	14432.3
1071.11	415.5	14405.1	14405.1
1071.61	415	14483.5	14483.5
1072.11	414.5	14350.9	14350.9
1072.61	414	14479.4	14479.4
1073.11	413.5	14562.5	14562.5
1073.61	413	14545.6	14545.6
1074.11	412.5	14493.3	14493.3
1074.61	412	14534.5	14534.5
1075.11	411.5	14501.9	14501.9
1075.61	411	14764.1	14764.1
1076.11	410.5	14576.9	14576.9
1076.61	410	14630.4	14630.4
1077.11	409.5	14645.7	14645.7
1077.61	409	14581	14581
1078.11	408.5	14663.1	14663.1
1078.61	408	14717.7	14717.7
1079.11	407.5	14768.2	14768.2
1079.61	407	14800.7	14800.7
1080.11	406.5	14914.9	14914.9
1080.61	406	14930.7	14930.7
1081.11	405.5	14917.9	14917.9
1081.61	405	14914.5	14914.5
1082.11	404.5	14813.9	14813.9
1082.61	404	14863.8	14863.8
1083.11	403.5	14944	14944
1083.61	403	14885	14885
1084.11	402.5	14905.3	14905.3
1084.61	402	15160.8	15160.8
1085.11	401.5	15090.1	15090.1
1085.61	401	15057.4	15057.4
1086.11	400.5	15189.4	15189.4
1086.61	400	15306.8	15306.8
1087.11	399.5	15228	15228
1087.61	399	15281.1	15281.1
1088.11	398.5	15330.9	15330.9
1088.61	398	15298	15298
1089.11	397.5	15271.5	15271.5
1089.61	397	15239.5	15239.5
1090.11	396.5	15302.5	15302.5
1090.61	396	15397.1	15397.1
1091.11	395.5	15384.8	15384.8
1091.61	395	15247.5	15247.5
1092.11	394.5	15190.6	15190.6
1092.61	394	15343.9	15343.9
1093.11	393.5	15444	15444
1093.61	393	15405.5	15405.5
1094.11	392.5	15560.1	15560.1
1094.61	392	15527.9	15527.9
1095.11	391.5	15441.9	15441.9
1095.61	391	15661.1	15661.1
1096.11	390.5	15657.3	15657.3
1096.61	390	15691.1	15691.1
1097.11	389.5	15671.1	15671.1
1097.61	389	15703.9	15703.9
1098.11	388.5	15820.3	15820.3
1098.61	388	15829.3	15829.3
1099.11	387.5	15858.8	15858.8
1099.61	387	15944.1	15944.1
1100.11	386.5	16111.9	16111.9
1100.61	386	16084	16084
1101.11	385.5	16079	16079
1101.61	385	16050.8	16050.8
1102.11	384.5	16030.9	16030.9
1102.61	384	15974	15974
1103.11	383.5	16147.3	16147.3
1103.61	383	16073.7	16073.7
1104.11	382.5	16053.7	16053.7
1104.61	382	16221.3	16221.3
1105.11	381.5	16237.7	16237.7
1105.61	381	16222.6	16222.6
1106.11	380.5	16308	16308
1106.61	380	16481.7	16481.7
1107.11	379.5	16647.8	16647.8
1107.61	379	16533.2	16533.2
1108.11	378.5	16599.6	16599.6
1108.61	378	16659.2	16659.2
1109.11	377.5	16670.4	16670.4
1109.61	377	16527.3	16527.3
1110.11	376.5	16498.5	16498.5
1110.61	376	16731.3	16731.3
1111.11	375.5	16655.1	16655.1
1111.61	375	16700.3	16700.3
1112.11	374.5	16784.5	16784.5
1112.61	374	16762	16762
1113.11	373.5	16610.8	16610.8
1113.61	373	16509.9	16509.9
1114.11	372.5	16538.7	16538.7
1114.61	372	16244.9	16244.9
1115.11	371.5	16320.7	16320.7
1115.61	371	16413.1	16413.1
1116.11	370.5	16173.7	16173.7
1116.61	370	16291.1	16291.1
1117.11	369.5	16300.8	16300.8
1117.61	369	16435.7	16435.7
1118.11	368.5	16589.9	16589.9
1118.61	368	16577.5	16577.5
1119.11	367.5	16626.5	16626.5
1119.61	367	16495.6	16495.6
1120.11	366.5	16468.5	16468.5
1120.61	366	16532.5	16532.5
1121.11	365.5	16665.3	16665.3
1121.61	365	16615.5	16615.5
1122.11	364.5	16681.3	16681.3
1122.61	364	16842.2	16842.2
1123.11	363.5	16822.7	16822.7
1123.61	363	16888.3	16888.3
1124.11	362.5	16989.5	16989.5
1124.61	362	17078.7	17078.7
1125.11	361.5	17270.4	17270.4
1125.61	361	17238.8	17238.8
1126.11	360.5	17272.9	17272.9
1126.61	360	17637.2	17637.2
1127.11	359.5	17912.5	17912.5
1127.61	359	18216.9	18216.9
1128.11	358.5	18438.9	18438.9
1128.61	358	18938.9	18938.9
1129.11	357.5	19358.8	19358.8
1129.61	357	19890	19890
1130.11	356.5	20721.6	20721.6
1130.61	356	21772.4	21772.4
1131.11	355.5	22954.9	22954.9
1131.61	355	24418.3	24418.3
1132.11	354.5	26056.9	26056.9
1132.61	354	27702.9	27702.9
1133.11	353.5	28540.2	28540.2
1133.61	353	28542.2	28542.2
1134.11	352.5	27032.2	27032.2
1134.61	352	24896.9	24896.9
1135.11	351.5	22789	22789
1135.61	351	20813.9	20813.9
1136.11	350.5	19058.7	19058.7
1136.61	350	17645.3	17645.3
1137.11	349.5	16613.3	16613.3
1137.61	349	15822.9	15822.9
1138.11	348.5	15212.4	15212.4
1138.61	348	14815.1	14815.1
1139.11	347.5	14344.7	14344.7
1139.61	347	14077.5	14077.5
1140.11	346.5	13875.1	13875.1
1140.61	346	13652	13652
1141.11	345.5	13438.6	13438.6
1141.61	345	13444.1	13444.1
1142.11	344.5	13438.4	13438.4
1142.61	344	13292.9	13292.9
1143.11	343.5	13291.1	13291.1
1143.61	343	13306.9	13306.9
1144.11	342.5	13430.6	13430.6
1144.61	342	13513.5	13513.5
1145.11	341.5	13807.5	13807.5
1145.61	341	14223.8	14223.8
1146.11	340.5	14574.1	14574.1
1146.61	340	15148.6	15148.6
1147.11	339.5	15831.8	15831.8
1147.61	339	16750.4	16750.4
1148.11	338.5	18000.8	18000.8
1148.61	338	19567.4	19567.4
1149.11	337.5	21788.5	21788.5
1149.61	337	24375.3	24375.3
1150.11	336.5	27766.7	27766.7
1150.61	336	31098.7	31098.7
1151.11	335.5	33195.5	33195.5
1151.61	335	33232.7	33232.7
1152.11	334.5	30993.8	30993.8
1152.61	334	27379.1	27379.1
1153.11	333.5	23429.9	23429.9
1153.61	333	19858.9	19858.9
1154.11	332.5	17161	17161
1154.61	332	15162.5	15162.5
1155.11	331.5	13578.2	13578.2
1155.61	331	12365.3	12365.3
1156.11	330.5	11539.4	11539.4
1156.61	330	10784.8	10784.8
1157.11	329.5	10156.1	10156.1
1157.61	329	9642.67	9642.67
1158.11	328.5	9364.33	9364.33
1158.61	328	8994.4	8994.4
1159.11	327.5	8780.47	8780.47
1159.61	327	8576.73	8576.73
1160.11	326.5	8377.07	8377.07
1160.61	326	8265	8265
1161.11	325.5	8163.13	8163.13
1161.61	325	8051.07	8051.07
1162.11	324.5	7866.53	7866.53
1162.61	324	7710.93	7710.93
1163.11	323.5	7704.8	7704.8
1163.61	323	7603.13	7603.13
1164.11	322.5	7572.33	7572.33
1164.61	322	7612.93	7612.93
1165.11	321.5	7620	7620
1165.61	321	7433.67	7433.67
1166.11	320.5	7369.67	7369.67
1166.61	320	7465.53	7465.53
1167.11	319.5	7400.67	7400.67
1167.61	319	7341.13	7341.13
1168.11	318.5	7252.8	7252.8
1168.61	318	7274.73	7274.73
1169.11	317.5	7274.67	7274.67
1169.61	317	7234.73	7234.73
1170.11	316.5	7141.07	7141.07
1170.61	316	7180.47	7180.47
1171.11	315.5	7216.67	7216.67
1171.61	315	7124.47	7124.47
1172.11	314.5	7135.53	7135.53
1172.61	314	7265.53	7265.53
1173.11	313.5	7056.6	7056.6
1173.61	313	7085.33	7085.33
1174.11	312.5	7107	7107
1174.61	312	7083.8	7083.8
1175.11	311.5	7049.67	7049.67
1175.61	311	7089.47	7089.47
1176.11	310.5	7112	7112
1176.61	310	7021.53	7021.53
1177.11	309.5	7087.27	7087.27
1177.61	309	7081.4	7081.4
1178.11	308.5	7013.13	7013.13
1178.61	308	7065	7065
1179.11	307.5	7193.87	7193.87
1179.61	307	7004.8	7004.8
1180.11	306.5	7019.07	7019.07
1180.61	306	7021.33	7021.33
1181.11	305.5	7071.6	7071.6
1181.61	305	7054.27	7054.27
1182.11	304.5	6976.07	6976.07
1182.61	304	7041.67	7041.67
1183.11	303.5	6923.87	6923.87
1183.61	303	6927.2	6927.2
1184.11	302.5	6968	6968
1184.61	302	6957.87	6957.87
1185.11	301.5	6991.33	6991.33
1185.61	301	7016	7016
1186.11	300.5	7074.4	7074.4
1186.61	300	7045.73	7045.73
1187.11	299.5	6997.53	6997.53
1187.61	299	6974.2	6974.2
1188.11	298.5	6925.47	6925.47
1188.61	298	6912.67	6912.67
1189.11	297.5	7069	7069
1189.61	297	7058.47	7058.47
1190.11	296.5	7039.6	7039.6
1190.61	296	6911	6911
1191.11	295.5	6980	6980
1191.61	295	7009.33	7009.33
1192.11	294.5	7044.2	7044.2
1192.61	294	7121.33	7121.33
1193.11	293.5	6999.6	6999.6
1193.61	293	7078	7078
1194.11	292.5	6967.53	6967.53
1194.61	292	7038.33	7038.33
1195.11	291.5	6993.8	6993.8
1195.61	291	7101.2	7101.2
1196.11	290.5	7166.2	7166.2
1196.61	290	7145.67	7145.67
1197.11	289.5	7090.4	7090.4
1197.61	289	7147.4	7147.4
1198.11	288.5	7282.13	7282.13
1198.61	288	7225.8	7225.8
1199.11	287.5	7241.13	7241.13
1199.61	287	7245.93	7245.93
1200.11	286.5	7341.27	7341.27
1200.61	286	7310.73	7310.73
1201.11	285.5	7433.13	7433.13
1201.61	285	7865.67	7865.67
1202.11	284.5	8113.6	8113.6
1202.61	284	7932.8	7932.8
1203.11	283.5	7208	7208
1203.61	283	7170.33	7170.33
1204.11	282.5	7178	7178
1204.61	282	7128.4	7128.4
1205.11	281.5	7171.8	7171.8
1205.61	281	7217.8	7217.8
1206.11	280.5	7154.27	7154.27
1206.61	280	7131.4	7131.4
1207.11	279.5	7138	7138
1207.61	279	7058.8	7058.8
1208.11	278.5	7137.6	7137.6
1208.61	278	7140.2	7140.2
1209.11	277.5	7147.13	7147.13
1209.61	277	7203.73	7203.73
1210.11	276.5	7149.73	7149.73
1210.61	276	7266.07	7266.07
1211.11	275.5	7127.13	7127.13
1211.61	275	7295.93	7295.93
1212.11	274.5	7233.27	7233.27
1212.61	274	7250.07	7250.07
1213.11	273.5	7211.4	7211.4
1213.61	273	7237.27	7237.27
1214.11	272.5	7187.4	7187.4
1214.61	272	7128.07	7128.07
1215.11	271.5	7161.47	7161.47
1215.61	271	7242.73	7242.73
1216.11	270.5	7274.53	7274.53
1216.61	270	7173.47	7173.47
1217.11	269.5	7264.67	7264.67
1217.61	269	7319	7319
1218.11	268.5	7312.53	7312.53
1218.61	268	7306.47	7306.47
1219.11	267.5	7198.73	7198.73
1219.61	267	7181.67	7181.67
1220.11	266.5	7324.13	7324.13
1220.61	266	7308.47	7308.47
1221.11	265.5	7434.4	7434.4
1221.61	265	7264.8	7264.8
1222.11	264.5	7365.6	7365.6
1222.61	264	7300	7300
1223.11	263.5	7374.27	7374.27
1223.61	263	7519.87	7519.87
1224.11	262.5	7537.27	7537.27
1224.61	262	7491.87	7491.87
1225.11	261.5	7557.27	7557.27
1225.61	261	7565	7565
1226.11	260.5	7547.47	7547.47
1226.61	260	7539.33	7539.33
1227.11	259.5	7486.87	7486.87
1227.61	259	7539.8	7539.8
1228.11	258.5	7390.67	7390.67
1228.61	258	7413.53	7413.53
1229.11	257.5	7511.87	7511.87
1229.61	257	7395.67	7395.67
1230.11	256.5	7469.07	7469.07
1230.61	256	7512.73	7512.73
1231.11	255.5	7485.2	7485.2
1231.61	255	7422.07	7422.07
1232.11	254.5	7363.67	7363.67
1232.61	254	7333.93	7333.93
1233.11	253.5	7385.2	7385.2
1233.61	253	7452.27	7452.27
1234.11	252.5	7430.53	7430.53
1234.61	252	7369.73	7369.73
1235.11	251.5	7400.6	7400.6
1235.61	251	7397.6	7397.6
1236.11	250.5	7344	7344
1236.61	250	7320.27	7320.27
1237.11	249.5	7490.6	7490.6
1237.61	249	7528.6	7528.6
1238.11	248.5	7588.2	7588.2
1238.61	248	7345.53	7345.53
1239.11	247.5	7468.07	7468.07
1239.61	247	7564.87	7564.87
1240.11	246.5	7504	7504
1240.61	246	7395.8	7395.8
1241.11	245.5	7513.07	7513.07
1241.61	245	7456.53	7456.53
1242.11	244.5	7600.67	7600.67
1242.61	244	7745.33	7745.33
1243.11	243.5	7705.07	7705.07
1243.61	243	7763.8	7763.8
1244.11	242.5	7574.73	7574.73
1244.61	242	7667.67	7667.67
1245.11	241.5	7814.53	7814.53
1245.61	241	7901.87	7901.87
1246.11	240.5	7679.4	7679.4
1246.61	240	7545.4	7545.4
1247.11	239.5	7491.47	7491.47
1247.61	239	7563.67	7563.67
1248.11	238.5	7648.47	7648.47
1248.61	238	7572.87	7572.87
1249.11	237.5	7530.53	7530.53
1249.61	237	7615.07	7615.07
1250.11	236.5	7587.53	7587.53
1250.61	236	7558.67	7558.67
1251.11	235.5	7601.4	7601.4
1251.61	235	7713.2	7713.2
1252.11	234.5	7601.8	7601.8
1252.61	234	7684.4	7684.4
1253.11	233.5	7691.53	7691.53
1253.61	233	7660.33	7660.33
1254.11	232.5	7722.27	7722.27
1254.61	232	7725.07	7725.07
1255.11	231.5	7703.53	7703.53
1255.61	231	7722.07	7722.07
1256.11	230.5	7730.4	7730.4
1256.61	230	7763.73	7763.73
1257.11	229.5	7824.27	7824.27
1257.61	229	7838.13	7838.13
1258.11	228.5	7770.93	7770.93
1258.61	228	7778.93	7778.93
1259.11	227.5	7696.07	7696.07
1259.61	227	7740.27	7740.27
1260.11	226.5	7859.13	7859.13
1260.61	226	7963.27	7963.27
1261.11	225.5	8024.6	8024.6
1261.61	225	7989.93	7989.93
1262.11	224.5	8037	8037
1262.61	224	7826	7826
1263.11	223.5	7782.73	7782.73
1263.61	223	7735.2	7735.2
1264.11	222.5	7929.13	7929.13
1264.61	222	7931.27	7931.27
1265.11	221.5	7876.6	7876.6
1265.61	221	7787.47	7787.47
1266.11	220.5	7926.93	7926.93
1266.61	220	7828.53	7828.53
1267.11	219.5	7861.33	7861.33
1267.61	219	7952.93	7952.93
1268.11	218.5	7927.47	7927.47
1268.61	218	7935.53	7935.53
1269.11	217.5	7915.53	7915.53
1269.61	217	7892.13	7892.13
1270.11	216.5	7954.13	7954.13
1270.61	216	7943.87	7943.87
1271.11	215.5	7819.13	7819.13
1271.61	215	7936.87	7936.87
1272.11	214.5	8060.47	8060.47
1272.61	214	7992.8	7992.8
1273.11	213.5	8122.67	8122.67
1273.61	213	8107	8107
1274.11	212.5	8080.53	8080.53
1274.61	212	8078.6	8078.6
1275.11	211.5	8162.2	8162.2
1275.61	211	8066	8066
1276.11	210.5	8065.33	8065.33
1276.61	210	7967.33	7967.33
1277.11	209.5	8013.67	8013.67
1277.61	209	8123.93	8123.93
1278.11	208.5	8176.47	8176.47
1278.61	208	8168.8	8168.8
1279.11	207.5	8155.47	8155.47
1279.61	207	8212.6	8212.6
1280.11	206.5	8058.13	8058.13
1280.61	206	8203.07	8203.07
1281.11	205.5	8224.87	8224.87
1281.61	205	8141.27	8141.27
1282.11	204.5	8102.13	8102.13
1282.61	204	8172.4	8172.4
1283.11	203.5	8146.4	8146.4
1283.61	203	8237.53	8237.53
1284.11	202.5	8382.13	8382.13
1284.61	202	8302.4	8302.4
1285.11	201.5	8180.6	8180.6
1285.61	201	8218.73	8218.73
1286.11	200.5	8136.73	8136.73
1286.61	200	8208.6	8208.6
1287.11	199.5	8252.4	8252.4
1287.61	199	8348.53	8348.53
1288.11	198.5	8295.6	8295.6
1288.61	198	8291.87	8291.87
1289.11	197.5	8247.27	8247.27
1289.61	197	8394.47	8394.47
1290.11	196.5	8260.67	8260.67
1290.61	196	8326	8326
1291.11	195.5	8320.4	8320.4
1291.61	195	8346.2	8346.2
1292.11	194.5	8395.2	8395.2
1292.61	194	8380.33	8380.33
1293.11	193.5	8344.87	8344.87
1293.61	193	8414.2	8414.2
1294.11	192.5	8429.8	8429.8
1294.61	192	8441.6	8441.6
1295.11	191.5	8368.53	8368.53
1295.61	191	8399.4	8399.4
1296.11	190.5	8474.33	8474.33
1296.61	190	8481	8481
1297.11	189.5	8576.6	8576.6
1297.61	189	8529.4	8529.4
1298.11	188.5	8518.87	8518.87
1298.61	188	8450.07	8450.07
1299.11	187.5	8647.73	8647.73
1299.61	187	8529.07	8529.07
1300.11	186.5	8630.8	8630.8
1300.61	186	8672.87	8672.87
1301.11	185.5	8579.87	8579.87
1301.61	185	8487.93	8487.93
1302.11	184.5	8542.47	8542.47
1302.61	184	8715.47	8715.47
1303.11	183.5	8610.33	8610.33
1303.61	183	8691.73	8691.73
1304.11	182.5	8605.33	8605.33
1304.61	182	8555.87	8555.87
1305.11	181.5	8627.27	8627.27
1305.61	181	8791.73	8791.73
1306.11	180.5	8720.73	8720.73
1306.61	180	8704.4	8704.4
1307.11	179.5	8719.6	8719.6
1307.61	179	8839	8839
1308.11	178.5	8810.87	8810.87
1308.61	178	8809.73	8809.73
1309.11	177.5	8812	8812
1309.61	177	8882.13	8882.13
1310.11	176.5	8905	8905
1310.61	176	8790.73	8790.73
1311.11	175.5	8873	8873
1311.61	175	8923.4	8923.4
1312.11	174.5	8899.2	8899.2
1312.61	174	8876.07	8876.07
1313.11	173.5	8993.93	8993.93
1313.61	173	8963.73	8963.73
1314.11	172.5	8966	8966
1314.61	172	9065.47	9065.47
1315.11	171.5	8947.13	8947.13
1315.61	171	8879.87	8879.87
1316.11	170.5	8944.4	8944.4
1316.61	170	8949.13	8949.13
1317.11	169.5	9034.2	9034.2
1317.61	169	9052.4	9052.4
1318.11	168.5	9030.6	9030.6
1318.61	168	9042.6	9042.6
1319.11	167.5	9139	9139
1319.61	167	9054	9054
1320.11	166.5	8949.93	8949.93
1320.61	166	9075	9075
1321.11	165.5	9108.53	9108.53
1321.61	165	9185.07	9185.07
1322.11	164.5	9218.93	9218.93
1322.61	164	9147.8	9147.8
1323.11	163.5	9212.53	9212.53
1323.61	163	9185.87	9185.87
1324.11	162.5	9277.87	9277.87
1324.61	162	9375.13	9375.13
1325.11	161.5	9399.27	9399.27
1325.61	161	9373.6	9373.6
1326.11	160.5	9300.53	9300.53
1326.61	160	9253.6	9253.6
1327.11	159.5	9296.87	9296.87
1327.61	159	9368.13	9368.13
1328.11	158.5	9317.33	9317.33
1328.61	158	9264.47	9264.47
1329.11	157.5	9365.73	9365.73
1329.61	157	9381.6	9381.6
1330.11	156.5	9392.47	9392.47
1330.61	156	9479	9479
1331.11	155.5	9407.27	9407.27
1331.61	155	9425.4	9425.4
1332.11	154.5	9488.53	9488.53
1332.61	154	9500.2	9500.2
1333.11	153.5	9592.87	9592.87
1333.61	153	9615.27	9615.27
1334.11	152.5	9462.67	9462.67
1334.61	152	9655.33	9655.33
1335.11	151.5	9758.4	9758.4
1335.61	151	9753.73	9753.73
1336.11	150.5	9733.4	9733.4
1336.61	150	9682.33	9682.33
1337.11	149.5	9738.27	9738.27
1337.61	149	9771.93	9771.93
1338.11	148.5	9761	9761
1338.61	148	9830.13	9830.13
1339.11	147.5	9816.8	9816.8
1339.61	147	9697.53	9697.53
1340.11	146.5	9867.53	9867.53
1340.61	146	9897	9897
1341.11	145.5	9789.27	9789.27
1341.61	145	9819.87	9819.87
1342.11	144.5	9910.47	9910.47
1342.61	144	9846.47	9846.47
1343.11	143.5	9982.27	9982.27
1343.61	143	10034.3	10034.3
1344.11	142.5	10073.5	10073.5
1344.61	142	9993.4	9993.4
1345.11	141.5	9927.67	9927.67
1345.61	141	9979.07	9979.07
1346.11	140.5	10079.9	10079.9
1346.61	140	9997.47	9997.47
1347.11	139.5	9990.53	9990.53
1347.61	139	10103.3	10103.3
1348.11	138.5	10107.3	10107.3
1348.61	138	10084.2	10084.2
1349.11	137.5	10105	10105
1349.61	137	10100.9	10100.9
1350.11	136.5	10159	10159
1350.61	136	10207.5	10207.5
1351.11	135.5	10224.5	10224.5
1351.61	135	10157.5	10157.5
1352.11	134.5	10079.9	10079.9
1352.61	134	10190	10190
1353.11	133.5	10223.1	10223.1
1353.61	133	10195.4	10195.4
1354.11	132.5	10404.9	10404.9
1354.61	132	10387.7	10387.7
1355.11	131.5	10216.3	10216.3
1355.61	131	10297.8	10297.8
1356.11	130.5	10319.6	10319.6
1356.61	130	10396.3	10396.3
1357.11	129.5	10512.6	10512.6
1357.61	129	10429.6	10429.6
1358.11	128.5	10519.1	10519.1
1358.61	128	10445.3	10445.3
1359.11	127.5	10363	10363
1359.61	127	10492	10492
1360.11	126.5	10569	10569
1360.61	126	10751.6	10751.6
1361.11	125.5	10732.1	10732.1
1361.61	125	10661.9	10661.9
1362.11	124.5	10823.1	10823.1
1362.61	124	10778.2	10778.2
1363.11	123.5	10945.1	10945.1
1363.61	123	10983.5	10983.5
1364.11	122.5	10948.4	10948.4
1364.61	122	11109.1	11109.1
1365.11	121.5	11107.2	11107.2
1365.61	121	11104.7	11104.7
1366.11	120.5	11241.1	11241.1
1366.61	120	11328.6	11328.6
1367.11	119.5	11464.5	11464.5
1367.61	119	11384.5	11384.5
1368.11	118.5	11340	11340
1368.61	118	11427.7	11427.7
1369.11	117.5	11450.3	11450.3
1369.61	117	11627.8	11627.8
1370.11	116.5	11683.1	11683.1
1370.61	116	11814.3	11814.3
1371.11	115.5	11859.7	11859.7
1371.61	115	11823.4	11823.4
1372.11	114.5	11977.7	11977.7
1372.61	114	11984.1	11984.1
1373.11	113.5	12134.1	12134.1
1373.61	113	12153.9	12153.9
1374.11	112.5	12267.3	12267.3
1374.61	112	12439.4	12439.4
1375.11	111.5	12616.5	12616.5
1375.61	111	12751.7	12751.7
1376.11	110.5	12566.2	12566.2
1376.61	110	12342.6	12342.6
1377.11	109.5	13063.1	13063.1
1377.61	109	14683.5	14683.5
1378.11	108.5	13214.9	13214.9
1378.61	108	11825.2	11825.2
1379.11	107.5	11383.3	11383.3
1379.61	107	11065.1	11065.1
1380.11	106.5	10458.5	10458.5
1380.61	106	10993.7	10993.7
1381.11	105.5	13085.5	13085.5
1381.61	105	12856	12856
1382.11	104.5	10431.1	10431.1
1382.61	104	9780.53	9780.53
1383.11	103.5	9589.73	9589.73
1383.61	103	9501.93	9501.93
1384.11	102.5	9510.4	9510.4
1384.61	102	9570.93	9570.93
1385.11	101.5	9592.13	9592.13
1385.61	101	9565.87	9565.87
1386.11	100.5	9647.33	9647.33
1386.61	100	9741.87	9741.87
1387.11	99.5	9665.13	9665.13
1387.61	99	9763.93	9763.93
1388.11	98.5	9736.47	9736.47
1388.61	98	9650.47	9650.47
1389.11	97.5	9484.73	9484.73
1389.61	97	9355.13	9355.13
1390.11	96.5	9179.27	9179.27
1390.61	96	9093.93	9093.93
1391.11	95.5	9220.47	9220.47
1391.61	95	9257.33	9257.33
1392.11	94.5	9254.33	9254.33
1392.61	94	9281.67	9281.67
1393.11	93.5	9218.13	9218.13
1393.61	93	9034.27	9034.27
1394.11	92.5	9001.53	9001.53
1394.61	92	9109.33	9109.33
1395.11	91.5	9320.27	9320.27
1395.61	91	9735.6	9735.6
1396.11	90.5	10123.1	10123.1
1396.61	90	10312.1	10312.1
1397.11	89.5	11287.2	11287.2
1397.61	89	15658	15658
1398.11	88.5	32387.2	32387.2
1398.61	88	76610.7	76610.7
1399.11	87.5	78638.7	78638.7
1399.61	87	26802.5	26802.5
1400.11	86.5	11952.3	11952.3
1400.61	86	10182.1	10182.1
1401.11	85.5	12635.6	12635.6
1401.61	85	25131	25131
1402.11	84.5	70208	70208
1402.61	84	111198	111198
1403.11	83.5	46817.5	46817.5
1403.61	83	11021.5	11021.5
1404.11	82.5	5606.3	5606.3
1404.61	82	4086.5	4086.5
1405.11	81.5	3346.5	3346.5
1405.61	81	2974.49	2974.49
1406.11	80.5	2719.49	2719.49
1406.61	80	2573.75	2573.75
1407.11	79.5	2523.37	2523.37
1407.61	79	2453.94	2453.94
1408.11	78.5	2388.49	2388.49
1408.61	78	2372.31	2372.31
1409.11	77.5	2405.53	2405.53
1409.61	77	2405.11	2405.11
1410.11	76.5	2430.01	2430.01
1410.61	76	2415.3	2415.3
1411.11	75.5	2548.6	2548.6
1411.61	75	2545.8	2545.8
1412.11	74.5	2604.92	2604.92
1412.61	74	2688.47	2688.47
1413.11	73.5	2619.28	2619.28
1413.61	73	2492.21	2492.21
1414.11	72.5	2427.44	2427.44
1414.61	72	2339.09	2339.09
1415.11	71.5	2269.89	2269.89
1415.61	71	2145.91	2145.91
1416.11	70.5	2068.15	2068.15
1416.61	70	1971.68	1971.68
1417.11	69.5	1915.19	1915.19
1417.61	69	1847.88	1847.88
1418.11	68.5	1825.86	1825.86
1418.61	68	1832.51	1832.51
1419.11	67.5	1791.69	1791.69
1419.61	67	1770.39	1770.39
1420.11	66.5	1746.15	1746.15
1420.61	66	1777.38	1777.38
1421.11	65.5	1799.89	1799.89
1421.61	65	1791.36	1791.36
1422.11	64.5	1764.09	1764.09
1422.61	64	1870.28	1870.28
1423.11	63.5	1894.59	1894.59
1423.61	63	1900.53	1900.53
1424.11	62.5	1972.55	1972.55
1424.61	62	2096.59	2096.59
1425.11	61.5	2176.68	2176.68
1425.61	61	2291.02	2291.02
1426.11	60.5	2418.15	2418.15
1426.61	60	2596.38	2596.38
1427.11	59.5	2795.96	2795.96
1427.61	59	2992.61	2992.61
1428.11	58.5	3200.11	3200.11
1428.61	58	3368.04	3368.04
1429.11	57.5	3402.32	3402.32
1429.61	57	3553.05	3553.05
1430.11	56.5	3406.34	3406.34
1430.61	56	3194.15	3194.15
1431.11	55.5	2952.79	2952.79
1431.61	55	2680.11	2680.11
1432.11	54.5	2432.93	2432.93
1432.61	54	2183.17	2183.17
1433.11	53.5	2015.03	2015.03
1433.61	53	1890.97	1890.97
1434.11	52.5	1782.93	1782.93
1434.61	52	1670.89	1670.89
1435.11	51.5	1564.32	1564.32
1435.61	51	1526.41	1526.41
1436.11	50.5	1476.29	1476.29
1436.61	50	1413.82	1413.82
1437.11	49.5	1357.11	1357.11
1437.61	49	1317.64	1317.64
1438.11	48.5	1274.82	1274.82
1438.61	48	1225.31	1225.31
1439.11	47.5	1234.69	1234.69
1439.61	47	1246.74	1246.74
1440.11	46.5	1233.25	1233.25
1440.61	46	1190.2	1190.2
1441.11	45.5	1174.35	1174.35
1441.61	45	1188.49	1188.49
1442.11	44.5	1179.84	1179.84
1442.61	44	1159.63	1159.63
1443.11	43.5	1156.43	1156.43
1443.61	43	1187.69	1187.69
1444.11	42.5	1167	1167
1444.61	42	1210.26	1210.26
1445.11	41.5	1256.23	1256.23
1445.61	41	1251.55	1251.55
1446.11	40.5	1199.49	1199.49
1446.61	40	1191.01	1191.01
1447.11	39.5	1176.53	1176.53
1447.61	39	1162.15	1162.15
1448.11	38.5	1154.28	1154.28
1448.61	38	1182.4	1182.4
1449.11	37.5	1206.56	1206.56
1449.61	37	1184.87	1184.87
1450.11	36.5	1153.75	1153.75
1450.61	36	1189.91	1189.91
1451.11	35.5	1173.08	1173.08
1451.61	35	1156.26	1156.26
1452.11	34.5	1239.29	1239.29
1452.61	34	1255.88	1255.88
1453.11	33.5	1221.63	1221.63
1453.61	33	1242.25	1242.25
1454.11	32.5	1207.56	1207.56
1454.61	32	1237.91	1237.91
1455.11	31.5	1268.19	1268.19
1455.61	31	1259.73	1259.73
1456.11	30.5	1266.29	1266.29
1456.61	30	1291.49	1291.49
1457.11	29.5	1254.24	1254.24
1457.61	29	1265.39	1265.39
1458.11	28.5	1314.85	1314.85
1458.61	28	1332.08	1332.08
1459.11	27.5	1372.41	1372.41
1459.61	27	1310.78	1310.78
1460.11	26.5	1244.77	1244.77
1460.61	26	1198.37	1198.37
1461.11	25.5	1204.48	1204.48
1461.61	25	1187.33	1187.33
1462.11	24.5	1163.79	1163.79
1462.61	24	1136.77	1136.77
1463.11	23.5	1088.55	1088.55
1463.61	23	970.767	970.767
1464.11	22.5	960.713	960.713
1464.61	22	957.14	957.14
1465.11	21.5	973.387	973.387
1465.61	21	975.42	975.42
1466.11	20.5	1009.34	1009.34
1466.61	20	933.98	933.98
1467.11	19.5	934.227	934.227
1467.61	19	962.487	962.487
1468.11	18.5	936.953	936.953
1468.61	18	944.88	944.88
1469.11	17.5	930.2	930.2
1469.61	17	921.047	921.047
1470.11	16.5	904.34	904.34
1470.61	16	910.387	910.387
1471.11	15.5	920.1	920.1
1471.61	15	911.453	911.453
1472.11	14.5	895.96	895.96
1472.61	14	914.187	914.187
1473.11	13.5	936.727	936.727
1473.61	13	910.967	910.967
1474.11	12.5	899.253	899.253
1474.61	12	881.047	881.047
1475.11	11.5	901.04	901.04
1475.61	11	955.627	955.627
1476.11	10.5	1008.09	1008.09
1476.61	10	1059	1059
1477.11	9.5	1162.53	1162.53
1477.61	9	1267.62	1267.62
1478.11	8.5	1591.04	1591.04
1478.61	8	2436.17	2436.17
1479.11	7.5	3844.95	3844.95
1479.61	7	5021.6	5021.6
1480.11	6.5	6055.42	6055.42
1480.61	6	5865.17	5865.17
1481.11	5.5	4539.81	4539.81
1481.61	5	4589.97	4589.97
1482.11	4.5	5689.94	5689.94
1482.61	4	6733	6733
1483.11	3.5	6647.57	6647.57
1483.61	3	6419.27	6419.27
1484.11	2.5	5154.32	5154.32
1484.61	2	2372.24	2372.24
1485.11	1.5	1035.33	1035.33
1485.61	1	755.94	755.94
1486.11	0.5	607.05	607.05
1486.61	-2.27374e-013	297.985	297.985