c:\users\mark\owncloud\muelheim group\projects\gas phase background\ex340_cec356_au he largearea.vms
Au4d
	Characteristic Energy eV	1486.61	Acquisition Time s	3
KE_Au4d	BE_Au4d	CPS_Au4d
1016.61	470	12767.2
1016.71	469.9	12715.2
1016.81	469.8	12788.8
1016.91	469.7	12853
1017.01	469.6	12751.5
1017.11	469.5	12844
1017.21	469.4	12793.5
1017.31	469.3	12736.8
1017.41	469.2	12705.1
1017.51	469.1	12707.2
1017.61	469	12750.9
1017.71	468.9	12750
1017.81	468.8	12733.5
1017.91	468.7	12754.3
1018.01	468.6	12720.1
1018.11	468.5	12779.9
1018.21	468.4	12760.8
1018.31	468.3	12750.9
1018.41	468.2	12835
1018.51	468.1	12743.6
1018.61	468	12762.5
1018.71	467.9	12780.6
1018.81	467.8	12704.5
1018.91	467.7	12884.9
1019.01	467.6	12771.4
1019.11	467.5	12747.1
1019.21	467.4	12682.9
1019.31	467.3	12676.7
1019.41	467.2	12714.7
1019.51	467.1	12917.6
1019.61	467	12729.6
1019.71	466.9	12814.5
1019.81	466.8	12918
1019.91	466.7	12763.6
1020.01	466.6	12769.2
1020.11	466.5	12788.8
1020.21	466.4	12785.6
1020.31	466.3	12852.8
1020.41	466.2	12790.8
1020.51	466.1	12739.7
1020.61	466	12737
1020.71	465.9	12777.5
1020.81	465.8	12761.2
1020.91	465.7	12808.8
1021.01	465.6	12919.9
1021.11	465.5	12875.1
1021.21	465.4	12874.8
1021.31	465.3	12927.3
1021.41	465.2	12900.9
1021.51	465.1	12887.7
1021.61	465	12792.9
1021.71	464.9	12918.3
1021.81	464.8	12905.6
1021.91	464.7	12798.6
1022.01	464.6	12821.1
1022.11	464.5	12866.1
1022.21	464.4	12974.7
1022.31	464.3	12907.5
1022.41	464.2	12891
1022.51	464.1	12852.2
1022.61	464	12901.4
1022.71	463.9	12889.6
1022.81	463.8	12925.9
1022.91	463.7	12862.1
1023.01	463.6	12930.8
1023.11	463.5	13011.8
1023.21	463.4	12847.1
1023.31	463.3	12926.9
1023.41	463.2	12891.5
1023.51	463.1	12951
1023.61	463	12907.7
1023.71	462.9	12870.8
1023.81	462.8	12844.9
1023.91	462.7	12861.2
1024.01	462.6	12852.9
1024.11	462.5	12911.1
1024.21	462.4	12975.8
1024.31	462.3	12989.3
1024.41	462.2	13013.1
1024.51	462.1	13004.5
1024.61	462	12900.7
1024.71	461.9	12938
1024.81	461.8	12924.1
1024.91	461.7	12926.6
1025.01	461.6	12885.9
1025.11	461.5	12959.8
1025.21	461.4	12947.4
1025.31	461.3	12954
1025.41	461.2	12951.4
1025.51	461.1	13023.9
1025.61	461	12881.8
1025.71	460.9	12952.5
1025.81	460.8	12995.7
1025.91	460.7	12987.7
1026.01	460.6	12950.2
1026.11	460.5	13035.2
1026.21	460.4	12993.9
1026.31	460.3	12938.7
1026.41	460.2	12912.6
1026.51	460.1	12956.8
1026.61	460	13013.9
1026.71	459.9	12980.5
1026.81	459.8	13032.2
1026.91	459.7	12968
1027.01	459.6	12980.1
1027.11	459.5	13048.2
1027.21	459.4	13014.6
1027.31	459.3	13008.8
1027.41	459.2	13040.4
1027.51	459.1	12985.5
1027.61	459	13001
1027.71	458.9	12991.1
1027.81	458.8	13089.7
1027.91	458.7	13042
1028.01	458.6	13056.3
1028.11	458.5	13010.8
1028.21	458.4	12926
1028.31	458.3	13035.7
1028.41	458.2	13169.3
1028.51	458.1	13095.6
1028.61	458	13018
1028.71	457.9	13087.7
1028.81	457.8	13046.1
1028.91	457.7	12990.9
1029.01	457.6	13040.4
1029.11	457.5	12959.2
1029.21	457.4	13088.7
1029.31	457.3	13024.2
1029.41	457.2	13049
1029.51	457.1	13027
1029.61	457	13018.9
1029.71	456.9	13039.3
1029.81	456.8	12989.7
1029.91	456.7	13033.8
1030.01	456.6	13093.5
1030.11	456.5	13036.8
1030.21	456.4	13128.8
1030.31	456.3	13139.4
1030.41	456.2	13143.3
1030.51	456.1	13165.8
1030.61	456	13064.1
1030.71	455.9	13103.5
1030.81	455.8	13144.6
1030.91	455.7	13096.2
1031.01	455.6	13135.9
1031.11	455.5	13121.3
1031.21	455.4	13056.1
1031.31	455.3	13120.7
1031.41	455.2	13165.2
1031.51	455.1	13144.6
1031.61	455	13127.9
1031.71	454.9	13140.6
1031.81	454.8	13177.6
1031.91	454.7	13016.6
1032.01	454.6	13099.3
1032.11	454.5	13046.1
1032.21	454.4	13115.5
1032.31	454.3	13103.2
1032.41	454.2	13178.3
1032.51	454.1	13149.2
1032.61	454	13103.9
1032.71	453.9	13076.2
1032.81	453.8	13158
1032.91	453.7	13109.3
1033.01	453.6	13192
1033.11	453.5	13279.9
1033.21	453.4	13089.2
1033.31	453.3	13113.5
1033.41	453.2	13119.8
1033.51	453.1	13159.9
1033.61	453	13253.6
1033.71	452.9	13100.3
1033.81	452.8	13159.8
1033.91	452.7	13186
1034.01	452.6	13180.3
1034.11	452.5	13187.6
1034.21	452.4	13159.3
1034.31	452.3	13111.6
1034.41	452.2	13123.8
1034.51	452.1	13101.1
1034.61	452	13200.2
1034.71	451.9	13111.4
1034.81	451.8	13136.2
1034.91	451.7	13123.8
1035.01	451.6	13196
1035.11	451.5	13254.7
1035.21	451.4	13117.8
1035.31	451.3	13156.4
1035.41	451.2	13126.6
1035.51	451.1	13202.2
1035.61	451	13178.9
1035.71	450.9	13272.6
1035.81	450.8	13268.6
1035.91	450.7	13195.3
1036.01	450.6	13299.6
1036.11	450.5	13263.2
1036.21	450.4	13240.7
1036.31	450.3	13237.6
1036.41	450.2	13192.1
1036.51	450.1	13219
1036.61	450	13286.6
1036.71	449.9	13275.8
1036.81	449.8	13324.9
1036.91	449.7	13287.8
1037.01	449.6	13242.5
1037.11	449.5	13347.7
1037.21	449.4	13301.3
1037.31	449.3	13302.9
1037.41	449.2	13236.8
1037.51	449.1	13206.1
1037.61	449	13279.8
1037.71	448.9	13271.7
1037.81	448.8	13276.9
1037.91	448.7	13331.3
1038.01	448.6	13332.4
1038.11	448.5	13364.9
1038.21	448.4	13250.5
1038.31	448.3	13326.7
1038.41	448.2	13280.9
1038.51	448.1	13350.5
1038.61	448	13174.6
1038.71	447.9	13228.2
1038.81	447.8	13298.8
1038.91	447.7	13365.8
1039.01	447.6	13244.4
1039.11	447.5	13292.2
1039.21	447.4	13354
1039.31	447.3	13318.4
1039.41	447.2	13348
1039.51	447.1	13333.2
1039.61	447	13282.7
1039.71	446.9	13264.9
1039.81	446.8	13400.6
1039.91	446.7	13296.5
1040.01	446.6	13277.3
1040.11	446.5	13343.6
1040.21	446.4	13366
1040.31	446.3	13427.7
1040.41	446.2	13386.6
1040.51	446.1	13383.8
1040.61	446	13416
1040.71	445.9	13396.1
1040.81	445.8	13399.4
1040.91	445.7	13398.4
1041.01	445.6	13311.5
1041.11	445.5	13387.2
1041.21	445.4	13369.5
1041.31	445.3	13368.3
1041.41	445.2	13409.3
1041.51	445.1	13433.1
1041.61	445	13410.2
1041.71	444.9	13278.2
1041.81	444.8	13421.3
1041.91	444.7	13376.5
1042.01	444.6	13392.4
1042.11	444.5	13452.3
1042.21	444.4	13463.6
1042.31	444.3	13445.9
1042.41	444.2	13455.5
1042.51	444.1	13390.3
1042.61	444	13434.9
1042.71	443.9	13424.5
1042.81	443.8	13473.1
1042.91	443.7	13393.5
1043.01	443.6	13482.4
1043.11	443.5	13398.3
1043.21	443.4	13528.3
1043.31	443.3	13509.5
1043.41	443.2	13407.6
1043.51	443.1	13324.4
1043.61	443	13469.2
1043.71	442.9	13524.4
1043.81	442.8	13392
1043.91	442.7	13383.1
1044.01	442.6	13456.6
1044.11	442.5	13469.7
1044.21	442.4	13471.2
1044.31	442.3	13449.5
1044.41	442.2	13488.8
1044.51	442.1	13409.7
1044.61	442	13486
1044.71	441.9	13600.4
1044.81	441.8	13581.3
1044.91	441.7	13432.2
1045.01	441.6	13530.3
1045.11	441.5	13480.5
1045.21	441.4	13460.3
1045.31	441.3	13475.2
1045.41	441.2	13456.5
1045.51	441.1	13405.1
1045.61	441	13472.7
1045.71	440.9	13567.6
1045.81	440.8	13457.6
1045.91	440.7	13462.9
1046.01	440.6	13593.3
1046.11	440.5	13635.3
1046.21	440.4	13502.7
1046.31	440.3	13612.4
1046.41	440.2	13568.3
1046.51	440.1	13592.7
1046.61	440	13612.7
1046.71	439.9	13446.1
1046.81	439.8	13472.1
1046.91	439.7	13583
1047.01	439.6	13588.3
1047.11	439.5	13624.1
1047.21	439.4	13663.7
1047.31	439.3	13577.6
1047.41	439.2	13478.9
1047.51	439.1	13580.5
1047.61	439	13539.6
1047.71	438.9	13664.1
1047.81	438.8	13660.1
1047.91	438.7	13556.4
1048.01	438.6	13559.6
1048.11	438.5	13609.4
1048.21	438.4	13635.7
1048.31	438.3	13684.1
1048.41	438.2	13588.6
1048.51	438.1	13663.2
1048.61	438	13569.8
1048.71	437.9	13572.3
1048.81	437.8	13534.6
1048.91	437.7	13502.1
1049.01	437.6	13593.4
1049.11	437.5	13590.8
1049.21	437.4	13695.6
1049.31	437.3	13758.8
1049.41	437.2	13695.1
1049.51	437.1	13666.7
1049.61	437	13699.4
1049.71	436.9	13655.6
1049.81	436.8	13688.3
1049.91	436.7	13737.5
1050.01	436.6	13740.5
1050.11	436.5	13655.1
1050.21	436.4	13662
1050.31	436.3	13781.5
1050.41	436.2	13748.2
1050.51	436.1	13684.2
1050.61	436	13732.9
1050.71	435.9	13770.4
1050.81	435.8	13727.3
1050.91	435.7	13790.9
1051.01	435.6	13699
1051.11	435.5	13694.4
1051.21	435.4	13606.4
1051.31	435.3	13640
1051.41	435.2	13700.8
1051.51	435.1	13659.2
1051.61	435	13692.4
1051.71	434.9	13807.1
1051.81	434.8	13791
1051.91	434.7	13658
1052.01	434.6	13741.9
1052.11	434.5	13629.2
1052.21	434.4	13680.2
1052.31	434.3	13767.9
1052.41	434.2	13724
1052.51	434.1	13759
1052.61	434	13799.6
1052.71	433.9	13733.9
1052.81	433.8	13798.4
1052.91	433.7	13808.8
1053.01	433.6	13756.8
1053.11	433.5	13774.7
1053.21	433.4	13725.9
1053.31	433.3	13773.8
1053.41	433.2	13806.6
1053.51	433.1	13734
1053.61	433	13721.3
1053.71	432.9	13824
1053.81	432.8	13875.2
1053.91	432.7	13788.8
1054.01	432.6	13798.8
1054.11	432.5	13772.2
1054.21	432.4	13782.9
1054.31	432.3	13858.4
1054.41	432.2	13916.1
1054.51	432.1	13893.7
1054.61	432	13846
1054.71	431.9	13817.6
1054.81	431.8	13795.9
1054.91	431.7	13829.2
1055.01	431.6	13874.6
1055.11	431.5	13900.3
1055.21	431.4	13915.9
1055.31	431.3	13882.8
1055.41	431.2	13860.1
1055.51	431.1	13883.7
1055.61	431	13908.8
1055.71	430.9	13996.1
1055.81	430.8	13888.5
1055.91	430.7	13895.2
1056.01	430.6	13974.5
1056.11	430.5	13984.9
1056.21	430.4	13939
1056.31	430.3	13986.1
1056.41	430.2	13959.1
1056.51	430.1	13856.1
1056.61	430	13908.9
1056.71	429.9	13943.5
1056.81	429.8	13888.9
1056.91	429.7	13890.3
1057.01	429.6	13844.6
1057.11	429.5	13978.7
1057.21	429.4	13931.4
1057.31	429.3	13833.7
1057.41	429.2	13929.6
1057.51	429.1	13903.7
1057.61	429	13943.1
1057.71	428.9	13950.9
1057.81	428.8	13988.9
1057.91	428.7	13978.5
1058.01	428.6	13892.2
1058.11	428.5	14013.6
1058.21	428.4	13959.1
1058.31	428.3	13962.1
1058.41	428.2	14008.8
1058.51	428.1	13932.2
1058.61	428	13890.9
1058.71	427.9	13978.2
1058.81	427.8	14022.2
1058.91	427.7	13893.1
1059.01	427.6	14052.6
1059.11	427.5	13985.3
1059.21	427.4	14016.5
1059.31	427.3	13990.1
1059.41	427.2	14029.1
1059.51	427.1	13999.2
1059.61	427	14065.1
1059.71	426.9	13998.4
1059.81	426.8	13944.8
1059.91	426.7	13973
1060.01	426.6	14027.6
1060.11	426.5	13965.4
1060.21	426.4	14031.2
1060.31	426.3	14024.8
1060.41	426.2	14075.3
1060.51	426.1	13999.9
1060.61	426	14013.6
1060.71	425.9	14134
1060.81	425.8	14031.3
1060.91	425.7	13965.8
1061.01	425.6	14045.1
1061.11	425.5	14110.5
1061.21	425.4	13970.7
1061.31	425.3	14148.1
1061.41	425.2	14054.5
1061.51	425.1	13982.8
1061.61	425	14037.7
1061.71	424.9	14032.3
1061.81	424.8	14022.8
1061.91	424.7	14053.3
1062.01	424.6	14119.9
1062.11	424.5	14070
1062.21	424.4	14182
1062.31	424.3	14134.5
1062.41	424.2	14088.3
1062.51	424.1	14148.1
1062.61	424	14168.1
1062.71	423.9	14100.8
1062.81	423.8	14167.1
1062.91	423.7	14239.7
1063.01	423.6	14225.7
1063.11	423.5	14102.5
1063.21	423.4	14128
1063.31	423.3	14182.3
1063.41	423.2	14164.8
1063.51	423.1	14084.6
1063.61	423	14177
1063.71	422.9	14152.2
1063.81	422.8	14177.1
1063.91	422.7	14219.1
1064.01	422.6	14137.7
1064.11	422.5	14155.6
1064.21	422.4	14199.9
1064.31	422.3	14276
1064.41	422.2	14328.4
1064.51	422.1	14322.6
1064.61	422	14170.1
1064.71	421.9	14245
1064.81	421.8	14274
1064.91	421.7	14261.5
1065.01	421.6	14243.5
1065.11	421.5	14188.5
1065.21	421.4	14141.4
1065.31	421.3	14192.1
1065.41	421.2	14170.5
1065.51	421.1	14136.8
1065.61	421	14285.5
1065.71	420.9	14186.8
1065.81	420.8	14221.6
1065.91	420.7	14228.6
1066.01	420.6	14283.6
1066.11	420.5	14260.2
1066.21	420.4	14213.6
1066.31	420.3	14311.1
1066.41	420.2	14284.5
1066.51	420.1	14274.2
1066.61	420	14400.2
1066.71	419.9	14215.4
1066.81	419.8	14240.1
1066.91	419.7	14212
1067.01	419.6	14313.6
1067.11	419.5	14237
1067.21	419.4	14310.4
1067.31	419.3	14273.8
1067.41	419.2	14280.5
1067.51	419.1	14323.2
1067.61	419	14262.9
1067.71	418.9	14218.3
1067.81	418.8	14229.4
1067.91	418.7	14323.8
1068.01	418.6	14390.2
1068.11	418.5	14399.4
1068.21	418.4	14385
1068.31	418.3	14356.3
1068.41	418.2	14398.7
1068.51	418.1	14370.3
1068.61	418	14324.1
1068.71	417.9	14349.1
1068.81	417.8	14410
1068.91	417.7	14377.4
1069.01	417.6	14403.8
1069.11	417.5	14299.6
1069.21	417.4	14322.9
1069.31	417.3	14334.7
1069.41	417.2	14386.1
1069.51	417.1	14348.7
1069.61	417	14476
1069.71	416.9	14398.7
1069.81	416.8	14265.2
1069.91	416.7	14321.9
1070.01	416.6	14426.8
1070.11	416.5	14347.5
1070.21	416.4	14362.8
1070.31	416.3	14374.8
1070.41	416.2	14379.6
1070.51	416.1	14410.1
1070.61	416	14381.1
1070.71	415.9	14423.6
1070.81	415.8	14376.6
1070.91	415.7	14325.4
1071.01	415.6	14354
1071.11	415.5	14480.6
1071.21	415.4	14482.1
1071.31	415.3	14587.2
1071.41	415.2	14486
1071.51	415.1	14414.6
1071.61	415	14522.8
1071.71	414.9	14491.6
1071.81	414.8	14424.7
1071.91	414.7	14498.5
1072.01	414.6	14406.3
1072.11	414.5	14406.1
1072.21	414.4	14452
1072.31	414.3	14454.3
1072.41	414.2	14516.9
1072.51	414.1	14501.2
1072.61	414	14479.4
1072.71	413.9	14503.1
1072.81	413.8	14421.6
1072.91	413.7	14481.4
1073.01	413.6	14494.6
1073.11	413.5	14435.7
1073.21	413.4	14470.9
1073.31	413.3	14522.7
1073.41	413.2	14606
1073.51	413.1	14612.1
1073.61	413	14528.1
1073.71	412.9	14468.4
1073.81	412.8	14482.2
1073.91	412.7	14501.3
1074.01	412.6	14538.6
1074.11	412.5	14491.4
1074.21	412.4	14645.1
1074.31	412.3	14626.9
1074.41	412.2	14598.9
1074.51	412.1	14557.4
1074.61	412	14551.7
1074.71	411.9	14602.2
1074.81	411.8	14650.5
1074.91	411.7	14644.3
1075.01	411.6	14577.4
1075.11	411.5	14614.8
1075.21	411.4	14594.6
1075.31	411.3	14566.2
1075.41	411.2	14658.2
1075.51	411.1	14547.6
1075.61	411	14493.2
1075.71	410.9	14655.9
1075.81	410.8	14612
1075.91	410.7	14604.5
1076.01	410.6	14541.3
1076.11	410.5	14604.7
1076.21	410.4	14595.5
1076.31	410.3	14573.1
1076.41	410.2	14633.2
1076.51	410.1	14695
1076.61	410	14583.9
1076.71	409.9	14632.8
1076.81	409.8	14712.6
1076.91	409.7	14708
1077.01	409.6	14642.1
1077.11	409.5	14641.8
1077.21	409.4	14747.7
1077.31	409.3	14718.1
1077.41	409.2	14684
1077.51	409.1	14753.5
1077.61	409	14671.5
1077.71	408.9	14608
1077.81	408.8	14682.3
1077.91	408.7	14781.3
1078.01	408.6	14693.7
1078.11	408.5	14827.7
1078.21	408.4	14791.9
1078.31	408.3	14768.1
1078.41	408.2	14691.4
1078.51	408.1	14749.7
1078.61	408	14743.5
1078.71	407.9	14822.2
1078.81	407.8	14806
1078.91	407.7	14739.8
1079.01	407.6	14731.4
1079.11	407.5	14861
1079.21	407.4	14759.6
1079.31	407.3	14757.7
1079.41	407.2	14818.5
1079.51	407.1	14782.4
1079.61	407	14756.3
1079.71	406.9	14750.3
1079.81	406.8	14807.3
1079.91	406.7	14784
1080.01	406.6	14799.5
1080.11	406.5	14834.7
1080.21	406.4	14724.1
1080.31	406.3	14707.2
1080.41	406.2	14794.6
1080.51	406.1	14852.7
1080.61	406	14918
1080.71	405.9	14752.3
1080.81	405.8	14822.6
1080.91	405.7	14946.4
1081.01	405.6	14852
1081.11	405.5	14870.6
1081.21	405.4	14841.7
1081.31	405.3	14735.2
1081.41	405.2	14873.1
1081.51	405.1	14966.2
1081.61	405	14859.2
1081.71	404.9	14864.7
1081.81	404.8	14920.8
1081.91	404.7	14822.5
1082.01	404.6	14841.7
1082.11	404.5	14888.4
1082.21	404.4	14904.3
1082.31	404.3	14845.5
1082.41	404.2	14967.6
1082.51	404.1	15067.1
1082.61	404	15014.2
1082.71	403.9	14912.1
1082.81	403.8	14866.2
1082.91	403.7	14899
1083.01	403.6	14846
1083.11	403.5	14849.8
1083.21	403.4	14979.2
1083.31	403.3	15007.6
1083.41	403.2	15001
1083.51	403.1	15004
1083.61	403	14997.8
1083.71	402.9	15030.1
1083.81	402.8	14972.8
1083.91	402.7	15006.8
1084.01	402.6	15095.3
1084.11	402.5	15060.3
1084.21	402.4	14957.2
1084.31	402.3	14970.4
1084.41	402.2	14962.2
1084.51	402.1	14934.2
1084.61	402	15062.4
1084.71	401.9	15083.6
1084.81	401.8	15056.9
1084.91	401.7	15067.3
1085.01	401.6	15179.4
1085.11	401.5	15111.6
1085.21	401.4	15061.1
1085.31	401.3	14983.2
1085.41	401.2	15144.5
1085.51	401.1	15107.1
1085.61	401	14979.8
1085.71	400.9	15081.1
1085.81	400.8	15135.1
1085.91	400.7	15244.7
1086.01	400.6	15070.5
1086.11	400.5	15128.7
1086.21	400.4	15181.7
1086.31	400.3	15191
1086.41	400.2	15195.1
1086.51	400.1	15146.9
1086.61	400	15203.6
1086.71	399.9	15174.2
1086.81	399.8	15152.7
1086.91	399.7	15172.6
1087.01	399.6	15146.4
1087.11	399.5	15121.9
1087.21	399.4	15189
1087.31	399.3	15250
1087.41	399.2	15106.8
1087.51	399.1	15118.4
1087.61	399	15188.1
1087.71	398.9	15170.1
1087.81	398.8	15221.3
1087.91	398.7	15247.8
1088.01	398.6	15180.1
1088.11	398.5	15210.1
1088.21	398.4	15290.5
1088.31	398.3	15243.5
1088.41	398.2	15254
1088.51	398.1	15269
1088.61	398	15153.7
1088.71	397.9	15205
1088.81	397.8	15312.4
1088.91	397.7	15261.7
1089.01	397.6	15248
1089.11	397.5	15201.8
1089.21	397.4	15293.1
1089.31	397.3	15332.1
1089.41	397.2	15263.5
1089.51	397.1	15256.7
1089.61	397	15331.5
1089.71	396.9	15334.3
1089.81	396.8	15342.5
1089.91	396.7	15395.1
1090.01	396.6	15335.2
1090.11	396.5	15309.2
1090.21	396.4	15315.2
1090.31	396.3	15223.9
1090.41	396.2	15287.9
1090.51	396.1	15348.8
1090.61	396	15245
1090.71	395.9	15221.3
1090.81	395.8	15400.7
1090.91	395.7	15349.4
1091.01	395.6	15391.3
1091.11	395.5	15463
1091.21	395.4	15423.2
1091.31	395.3	15338.9
1091.41	395.2	15365.9
1091.51	395.1	15387.9
1091.61	395	15385.3
1091.71	394.9	15348.3
1091.81	394.8	15398.9
1091.91	394.7	15549
1092.01	394.6	15395.4
1092.11	394.5	15254.2
1092.21	394.4	15313.2
1092.31	394.3	15421.9
1092.41	394.2	15349.8
1092.51	394.1	15420.7
1092.61	394	15554.7
1092.71	393.9	15472
1092.81	393.8	15368
1092.91	393.7	15497.2
1093.01	393.6	15603.2
1093.11	393.5	15525.7
1093.21	393.4	15455.1
1093.31	393.3	15463.6
1093.41	393.2	15603
1093.51	393.1	15528
1093.61	393	15455
1093.71	392.9	15636.8
1093.81	392.8	15573.3
1093.91	392.7	15490.1
1094.01	392.6	15580.6
1094.11	392.5	15555.2
1094.21	392.4	15574.5
1094.31	392.3	15420
1094.41	392.2	15443.9
1094.51	392.1	15599.2
1094.61	392	15610.5
1094.71	391.9	15501
1094.81	391.8	15610.8
1094.91	391.7	15520.1
1095.01	391.6	15584.4
1095.11	391.5	15598.7
1095.21	391.4	15649.1
1095.31	391.3	15686.3
1095.41	391.2	15597.9
1095.51	391.1	15648.2
1095.61	391	15586.7
1095.71	390.9	15600.5
1095.81	390.8	15652.5
1095.91	390.7	15619.8
1096.01	390.6	15625.5
1096.11	390.5	15650.4
1096.21	390.4	15707.8
1096.31	390.3	15742.8
1096.41	390.2	15731.6
1096.51	390.1	15748.2
1096.61	390	15826.1
1096.71	389.9	15725.8
1096.81	389.8	15644.8
1096.91	389.7	15605.8
1097.01	389.6	15720.1
1097.11	389.5	15824.9
1097.21	389.4	15721.2
1097.31	389.3	15619.2
1097.41	389.2	15694.5
1097.51	389.1	15755.7
1097.61	389	15693.4
1097.71	388.9	15793.5
1097.81	388.8	15757.5
1097.91	388.7	15813.7
1098.01	388.6	15735.3
1098.11	388.5	15647.4
1098.21	388.4	15827
1098.31	388.3	15880.2
1098.41	388.2	15916.3
1098.51	388.1	15800
1098.61	388	15856.3
1098.71	387.9	15886.4
1098.81	387.8	15807.2
1098.91	387.7	15787.4
1099.01	387.6	15828.3
1099.11	387.5	15869.5
1099.21	387.4	15830.2
1099.31	387.3	15862.7
1099.41	387.2	15921.3
1099.51	387.1	15953.3
1099.61	387	15942.5
1099.71	386.9	15847.9
1099.81	386.8	15946.8
1099.91	386.7	15944.1
1100.01	386.6	15966.8
1100.11	386.5	15881
1100.21	386.4	16067.6
1100.31	386.3	16070.2
1100.41	386.2	16039.7
1100.51	386.1	15954.5
1100.61	386	15925.9
1100.71	385.9	15882.6
1100.81	385.8	15882.5
1100.91	385.7	16000.1
1101.01	385.6	16060
1101.11	385.5	16018
1101.21	385.4	15998.2
1101.31	385.3	15957.4
1101.41	385.2	16097.5
1101.51	385.1	16042.9
1101.61	385	15974
1101.71	384.9	16026
1101.81	384.8	15979.1
1101.91	384.7	16020.1
1102.01	384.6	15945.1
1102.11	384.5	16052.6
1102.21	384.4	15976.1
1102.31	384.3	16089.1
1102.41	384.2	16098.3
1102.51	384.1	16094.3
1102.61	384	16058.4
1102.71	383.9	16120.2
1102.81	383.8	16012
1102.91	383.7	16141.6
1103.01	383.6	16171.9
1103.11	383.5	16155.6
1103.21	383.4	16221.5
1103.31	383.3	16193.2
1103.41	383.2	16069.6
1103.51	383.1	16165
1103.61	383	16115.4
1103.71	382.9	16093.4
1103.81	382.8	16231.5
1103.91	382.7	16247.3
1104.01	382.6	16259.6
1104.11	382.5	16172.1
1104.21	382.4	16152.1
1104.31	382.3	16138.5
1104.41	382.2	16078.7
1104.51	382.1	16218.1
1104.61	382	16314.3
1104.71	381.9	16230.4
1104.81	381.8	16213.2
1104.91	381.7	16345.3
1105.01	381.6	16304.1
1105.11	381.5	16306.6
1105.21	381.4	16348.1
1105.31	381.3	16327.5
1105.41	381.2	16405.5
1105.51	381.1	16295.6
1105.61	381	16380.6
1105.71	380.9	16477.5
1105.81	380.8	16368.3
1105.91	380.7	16356.9
1106.01	380.6	16406.6
1106.11	380.5	16419.1
1106.21	380.4	16391
1106.31	380.3	16477.7
1106.41	380.2	16409.5
1106.51	380.1	16367.1
1106.61	380	16442.7
1106.71	379.9	16441.9
1106.81	379.8	16477
1106.91	379.7	16651.6
1107.01	379.6	16449.7
1107.11	379.5	16400.4
1107.21	379.4	16538.2
1107.31	379.3	16476.8
1107.41	379.2	16570.6
1107.51	379.1	16479.9
1107.61	379	16575.5
1107.71	378.9	16496.1
1107.81	378.8	16542.8
1107.91	378.7	16504.1
1108.01	378.6	16517.9
1108.11	378.5	16488.6
1108.21	378.4	16536.6
1108.31	378.3	16536.3
1108.41	378.2	16606.1
1108.51	378.1	16581.5
1108.61	378	16529.1
1108.71	377.9	16573.2
1108.81	377.8	16584.2
1108.91	377.7	16616.3
1109.01	377.6	16561.6
1109.11	377.5	16719
1109.21	377.4	16620.1
1109.31	377.3	16667.3
1109.41	377.2	16584.1
1109.51	377.1	16621.7
1109.61	377	16585.9
1109.71	376.9	16655.1
1109.81	376.8	16760.8
1109.91	376.7	16735.3
1110.01	376.6	16694.4
1110.11	376.5	16725.4
1110.21	376.4	16704.6
1110.31	376.3	16631.9
1110.41	376.2	16732.8
1110.51	376.1	16613.7
1110.61	376	16649.3
1110.71	375.9	16672.7
1110.81	375.8	16732.7
1110.91	375.7	16698.1
1111.01	375.6	16662.3
1111.11	375.5	16660.1
1111.21	375.4	16725.6
1111.31	375.3	16802.4
1111.41	375.2	16771.7
1111.51	375.1	16798.5
1111.61	375	16709.4
1111.71	374.9	16715.9
1111.81	374.8	16655
1111.91	374.7	16776.2
1112.01	374.6	16630.3
1112.11	374.5	16668.3
1112.21	374.4	16636.6
1112.31	374.3	16555.6
1112.41	374.2	16689.7
1112.51	374.1	16644
1112.61	374	16620.9
1112.71	373.9	16596.8
1112.81	373.8	16581.5
1112.91	373.7	16602.3
1113.01	373.6	16622.8
1113.11	373.5	16726.9
1113.21	373.4	16569.8
1113.31	373.3	16533.1
1113.41	373.2	16539.1
1113.51	373.1	16482.4
1113.61	373	16401.4
1113.71	372.9	16389.2
1113.81	372.8	16346
1113.91	372.7	16413.9
1114.01	372.6	16401.6
1114.11	372.5	16417.8
1114.21	372.4	16370.4
1114.31	372.3	16421.1
1114.41	372.2	16326.5
1114.51	372.1	16383.7
1114.61	372	16368.2
1114.71	371.9	16402.5
1114.81	371.8	16470.8
1114.91	371.7	16393.9
1115.01	371.6	16359.9
1115.11	371.5	16299.6
1115.21	371.4	16250.1
1115.31	371.3	16284.4
1115.41	371.2	16349.6
1115.51	371.1	16242.4
1115.61	371	16310.1
1115.71	370.9	16373.5
1115.81	370.8	16290.1
1115.91	370.7	16392.9
1116.01	370.6	16369.5
1116.11	370.5	16245.6
1116.21	370.4	16334.5
1116.31	370.3	16312.6
1116.41	370.2	16359.2
1116.51	370.1	16385.1
1116.61	370	16469.3
1116.71	369.9	16371.7
1116.81	369.8	16370.4
1116.91	369.7	16349.9
1117.01	369.6	16440.2
1117.11	369.5	16353.9
1117.21	369.4	16392.1
1117.31	369.3	16400.1
1117.41	369.2	16316.6
1117.51	369.1	16435
1117.61	369	16321.6
1117.71	368.9	16354.8
1117.81	368.8	16245.5
1117.91	368.7	16315.4
1118.01	368.6	16447.6
1118.11	368.5	16476
1118.21	368.4	16450.8
1118.31	368.3	16420.2
1118.41	368.2	16393.8
1118.51	368.1	16347.6
1118.61	368	16435.9
1118.71	367.9	16580.9
1118.81	367.8	16442.8
1118.91	367.7	16415.5
1119.01	367.6	16457.7
1119.11	367.5	16444.4
1119.21	367.4	16530.7
1119.31	367.3	16482.1
1119.41	367.2	16493.8
1119.51	367.1	16445.9
1119.61	367	16554.9
1119.71	366.9	16399.3
1119.81	366.8	16511.4
1119.91	366.7	16468.8
1120.01	366.6	16541.6
1120.11	366.5	16482.8
1120.21	366.4	16410.7
1120.31	366.3	16485.3
1120.41	366.2	16500.5
1120.51	366.1	16529.5
1120.61	366	16471.3
1120.71	365.9	16509.3
1120.81	365.8	16527.3
1120.91	365.7	16532.5
1121.01	365.6	16477.4
1121.11	365.5	16599.8
1121.21	365.4	16571.9
1121.31	365.3	16533.9
1121.41	365.2	16483
1121.51	365.1	16538.8
1121.61	365	16679.7
1121.71	364.9	16533.2
1121.81	364.8	16561.3
1121.91	364.7	16612
1122.01	364.6	16816.7
1122.11	364.5	16673.9
1122.21	364.4	16623
1122.31	364.3	16723.3
1122.41	364.2	16640.4
1122.51	364.1	16749.7
1122.61	364	16721.2
1122.71	363.9	16669.7
1122.81	363.8	16712.1
1122.91	363.7	16753.5
1123.01	363.6	16716.4
1123.11	363.5	16699.2
1123.21	363.4	16692.1
1123.31	363.3	16697.8
1123.41	363.2	16718.4
1123.51	363.1	16760.5
1123.61	363	16834.7
1123.71	362.9	16880.8
1123.81	362.8	16974.7
1123.91	362.7	16843.8
1124.01	362.6	16864.6
1124.11	362.5	16954
1124.21	362.4	16903.8
1124.31	362.3	16958.9
1124.41	362.2	17022.8
1124.51	362.1	16957
1124.61	362	16929.6
1124.71	361.9	17009.7
1124.81	361.8	17041.5
1124.91	361.7	17039.1
1125.01	361.6	17173.2
1125.11	361.5	17133.9
1125.21	361.4	17084.6
1125.31	361.3	17188.6
1125.41	361.2	17292.5
1125.51	361.1	17229.8
1125.61	361	17225.1
1125.71	360.9	17252.2
1125.81	360.8	17301.2
1125.91	360.7	17356.9
1126.01	360.6	17385.9
1126.11	360.5	17427.5
1126.21	360.4	17603.1
1126.31	360.3	17627.3
1126.41	360.2	17621
1126.51	360.1	17709.9
1126.61	360	17714.3
1126.71	359.9	17730.4
1126.81	359.8	17687.1
1126.91	359.7	17797.1
1127.01	359.6	17860.4
1127.11	359.5	17808.3
1127.21	359.4	17817.3
1127.31	359.3	17987.8
1127.41	359.2	18097.3
1127.51	359.1	18119.5
1127.61	359	18172.6
1127.71	358.9	18178.3
1127.81	358.8	18233.7
1127.91	358.7	18408.9
1128.01	358.6	18459.1
1128.11	358.5	18366.7
1128.21	358.4	18463.5
1128.31	358.3	18509.3
1128.41	358.2	18643.1
1128.51	358.1	18748
1128.61	358	18852.1
1128.71	357.9	18874.7
1128.81	357.8	19103.8
1128.91	357.7	19202.3
1129.01	357.6	19254.5
1129.11	357.5	19417.3
1129.21	357.4	19338.2
1129.31	357.3	19544.9
1129.41	357.2	19784.1
1129.51	357.1	19907.3
1129.61	357	20084.3
1129.71	356.9	20233
1129.81	356.8	20271.6
1129.91	356.7	20425.8
1130.01	356.6	20743.6
1130.11	356.5	20839.4
1130.21	356.4	20976.6
1130.31	356.3	21202.4
1130.41	356.2	21367.9
1130.51	356.1	21479
1130.61	356	21764.6
1130.71	355.9	21885
1130.81	355.8	22220.4
1130.91	355.7	22493.1
1131.01	355.6	22721.4
1131.11	355.5	22992.6
1131.21	355.4	23353.4
1131.31	355.3	23597.1
1131.41	355.2	23828.2
1131.51	355.1	23984.9
1131.61	355	24351.9
1131.71	354.9	24683.2
1131.81	354.8	25134
1131.91	354.7	25504.4
1132.01	354.6	26023.8
1132.11	354.5	26364.1
1132.21	354.4	26633.6
1132.31	354.3	26890.1
1132.41	354.2	27234.1
1132.51	354.1	27573
1132.61	354	27814.5
1132.71	353.9	28121.8
1132.81	353.8	28417
1132.91	353.7	28658.4
1133.01	353.6	28903.2
1133.11	353.5	28859.4
1133.21	353.4	28918.1
1133.31	353.3	29041.5
1133.41	353.2	28906.7
1133.51	353.1	28667.3
1133.61	353	28637.7
1133.71	352.9	28408.5
1133.81	352.8	28131.2
1133.91	352.7	27765.1
1134.01	352.6	27478.6
1134.11	352.5	27188.7
1134.21	352.4	26833.3
1134.31	352.3	26364.3
1134.41	352.2	26020.6
1134.51	352.1	25416.5
1134.61	352	24926.2
1134.71	351.9	24384.3
1134.81	351.8	24058.5
1134.91	351.7	23519.9
1135.01	351.6	22992.5
1135.11	351.5	22605.8
1135.21	351.4	22221.9
1135.31	351.3	21721.1
1135.41	351.2	21520.8
1135.51	351.1	21085.4
1135.61	351	20578.4
1135.71	350.9	20152.5
1135.81	350.8	19880.3
1135.91	350.7	19551.4
1136.01	350.6	19313.4
1136.11	350.5	18905.9
1136.21	350.4	18483.6
1136.31	350.3	18444.8
1136.41	350.2	18155.6
1136.51	350.1	17653.4
1136.61	350	17534.8
1136.71	349.9	17305.7
1136.81	349.8	17312.1
1136.91	349.7	17069.4
1137.01	349.6	16849.7
1137.11	349.5	16540.3
1137.21	349.4	16459.6
1137.31	349.3	16302.1
1137.41	349.2	16231.9
1137.51	349.1	16064.8
1137.61	349	15876.8
1137.71	348.9	15735.2
1137.81	348.8	15587.2
1137.91	348.7	15518.7
1138.01	348.6	15419.1
1138.11	348.5	15277.2
1138.21	348.4	15108.2
1138.31	348.3	14972.7
1138.41	348.2	14879.9
1138.51	348.1	14931.3
1138.61	348	14856.5
1138.71	347.9	14682.4
1138.81	347.8	14542.2
1138.91	347.7	14571.6
1139.01	347.6	14509.8
1139.11	347.5	14464
1139.21	347.4	14319.1
1139.31	347.3	14331.8
1139.41	347.2	14242.3
1139.51	347.1	14123.8
1139.61	347	14098.9
1139.71	346.9	14083.2
1139.81	346.8	14008
1139.91	346.7	13918.9
1140.01	346.6	13834.7
1140.11	346.5	13883
1140.21	346.4	13824.2
1140.31	346.3	13790.2
1140.41	346.2	13689.7
1140.51	346.1	13707.2
1140.61	346	13739.8
1140.71	345.9	13638.8
1140.81	345.8	13623.6
1140.91	345.7	13625.2
1141.01	345.6	13558.4
1141.11	345.5	13488.6
1141.21	345.4	13544.7
1141.31	345.3	13468.7
1141.41	345.2	13434
1141.51	345.1	13396.6
1141.61	345	13330
1141.71	344.9	13466.8
1141.81	344.8	13375.5
1141.91	344.7	13324.7
1142.01	344.6	13403.7
1142.11	344.5	13259.6
1142.21	344.4	13251.4
1142.31	344.3	13353.6
1142.41	344.2	13359.7
1142.51	344.1	13260.5
1142.61	344	13299.8
1142.71	343.9	13365.6
1142.81	343.8	13222.5
1142.91	343.7	13273.1
1143.01	343.6	13265.2
1143.11	343.5	13313.2
1143.21	343.4	13248.9
1143.31	343.3	13310.9
1143.41	343.2	13437.7
1143.51	343.1	13405.2
1143.61	343	13311.9
1143.71	342.9	13356.7
1143.81	342.8	13396.4
1143.91	342.7	13408.2
1144.01	342.6	13402.9
1144.11	342.5	13385
1144.21	342.4	13518.2
1144.31	342.3	13512
1144.41	342.2	13542.9
1144.51	342.1	13589
1144.61	342	13584.7
1144.71	341.9	13578.5
1144.81	341.8	13756.9
1144.91	341.7	13835.6
1145.01	341.6	13772.6
1145.11	341.5	13857.2
1145.21	341.4	13886.3
1145.31	341.3	13973.2
1145.41	341.2	14015.7
1145.51	341.1	14086.2
1145.61	341	14220.9
1145.71	340.9	14269
1145.81	340.8	14220.8
1145.91	340.7	14435.5
1146.01	340.6	14493.4
1146.11	340.5	14564.6
1146.21	340.4	14705.8
1146.31	340.3	14687.4
1146.41	340.2	14922.2
1146.51	340.1	15055.7
1146.61	340	15161.7
1146.71	339.9	15276.4
1146.81	339.8	15317.8
1146.91	339.7	15419.3
1147.01	339.6	15641.2
1147.11	339.5	15827.8
1147.21	339.4	15996
1147.31	339.3	16239.3
1147.41	339.2	16362.8
1147.51	339.1	16495.4
1147.61	339	16663.3
1147.71	338.9	16859.8
1147.81	338.8	17218.3
1147.91	338.7	17453.7
1148.01	338.6	17636.7
1148.11	338.5	17889.5
1148.21	338.4	18190.7
1148.31	338.3	18557.3
1148.41	338.2	18933.5
1148.51	338.1	19256.8
1148.61	338	19544.4
1148.71	337.9	19871.7
1148.81	337.8	20317.6
1148.91	337.7	20775.6
1149.01	337.6	21203.7
1149.11	337.5	21669.7
1149.21	337.4	22219.4
1149.31	337.3	22764.5
1149.41	337.2	23289.8
1149.51	337.1	23916.8
1149.61	337	24530.4
1149.71	336.9	25138.9
1149.81	336.8	25823.3
1149.91	336.7	26424.4
1150.01	336.6	27100.2
1150.11	336.5	27787.2
1150.21	336.4	28508.3
1150.31	336.3	29167.5
1150.41	336.2	29922.6
1150.51	336.1	30689
1150.61	336	31212.3
1150.71	335.9	31870.6
1150.81	335.8	32504.7
1150.91	335.7	32857.7
1151.01	335.6	33071.1
1151.11	335.5	33494.7
1151.21	335.4	33686
1151.31	335.3	33920.7
1151.41	335.2	33860
1151.51	335.1	33629.3
1151.61	335	33635.7
1151.71	334.9	33224.7
1151.81	334.8	32862
1151.91	334.7	32244.9
1152.01	334.6	31688.2
1152.11	334.5	31132.8
1152.21	334.4	30395.4
1152.31	334.3	29565.3
1152.41	334.2	28814.9
1152.51	334.1	28075.3
1152.61	334	27342.5
1152.71	333.9	26550.7
1152.81	333.8	25596.5
1152.91	333.7	24866.5
1153.01	333.6	24092.2
1153.11	333.5	23292.1
1153.21	333.4	22550.7
1153.31	333.3	21812
1153.41	333.2	21121.1
1153.51	333.1	20433.4
1153.61	333	19908.8
1153.71	332.9	19230.1
1153.81	332.8	18765.9
1153.91	332.7	18178.5
1154.01	332.6	17704.9
1154.11	332.5	17194
1154.21	332.4	16819.3
1154.31	332.3	16270.9
1154.41	332.2	15850.7
1154.51	332.1	15456.7
1154.61	332	15036.3
1154.71	331.9	14774.1
1154.81	331.8	14415
1154.91	331.7	14112.1
1155.01	331.6	13842.5
1155.11	331.5	13499.6
1155.21	331.4	13263.9
1155.31	331.3	12979.5
1155.41	331.2	12689.5
1155.51	331.1	12433.6
1155.61	331	12306.6
1155.71	330.9	12168.3
1155.81	330.8	11981.3
1155.91	330.7	11794.3
1156.01	330.6	11627.9
1156.11	330.5	11516.6
1156.21	330.4	11253.9
1156.31	330.3	11115.6
1156.41	330.2	11028.1
1156.51	330.1	10852.8
1156.61	330	10755.1
1156.71	329.9	10660.1
1156.81	329.8	10396.1
1156.91	329.7	10242.8
1157.01	329.6	10262.2
1157.11	329.5	10174
1157.21	329.4	10150.2
1157.31	329.3	9963.97
1157.41	329.2	9825.43
1157.51	329.1	9776.23
1157.61	329	9713.73
1157.71	328.9	9611.6
1157.81	328.8	9598.83
1157.91	328.7	9468.6
1158.01	328.6	9361.07
1158.11	328.5	9401.93
1158.21	328.4	9247.23
1158.31	328.3	9218.73
1158.41	328.2	9143.97
1158.51	328.1	9112.93
1158.61	328	9075.83
1158.71	327.9	8941.97
1158.81	327.8	8901.77
1158.91	327.7	8857.37
1159.01	327.6	8832.2
1159.11	327.5	8744.27
1159.21	327.4	8821.73
1159.31	327.3	8682.93
1159.41	327.2	8553.07
1159.51	327.1	8568.27
1159.61	327	8545.37
1159.71	326.9	8464.43
1159.81	326.8	8421.33
1159.91	326.7	8463.8
1160.01	326.6	8474.23
1160.11	326.5	8387.07
1160.21	326.4	8330.97
1160.31	326.3	8279.93
1160.41	326.2	8254.63
1160.51	326.1	8232.2
1160.61	326	8173.03
1160.71	325.9	8212.3
1160.81	325.8	8220.1
1160.91	325.7	8101.77
1161.01	325.6	8148.63
1161.11	325.5	8103.57
1161.21	325.4	8035.07
1161.31	325.3	8085
1161.41	325.2	8009.53
1161.51	325.1	8009.2
1161.61	325	7951.83
1161.71	324.9	7953.9
1161.81	324.8	7896.8
1161.91	324.7	7930.93
1162.01	324.6	7878.23
1162.11	324.5	7809.03
1162.21	324.4	7754.3
1162.31	324.3	7781.37
1162.41	324.2	7851.73
1162.51	324.1	7832.47
1162.61	324	7788.07
1162.71	323.9	7807.07
1162.81	323.8	7786.43
1162.91	323.7	7755.33
1163.01	323.6	7790.37
1163.11	323.5	7738.9
1163.21	323.4	7679.13
1163.31	323.3	7691.4
1163.41	323.2	7698.63
1163.51	323.1	7715.2
1163.61	323	7624.17
1163.71	322.9	7570.9
1163.81	322.8	7508.27
1163.91	322.7	7570.67
1164.01	322.6	7569.17
1164.11	322.5	7591.4
1164.21	322.4	7548.9
1164.31	322.3	7537.87
1164.41	322.2	7553.27
1164.51	322.1	7527.73
1164.61	322	7558
1164.71	321.9	7531.7
1164.81	321.8	7552.03
1164.91	321.7	7562.53
1165.01	321.6	7534.43
1165.11	321.5	7475.7
1165.21	321.4	7567.5
1165.31	321.3	7479.1
1165.41	321.2	7432.8
1165.51	321.1	7495.43
1165.61	321	7462.47
1165.71	320.9	7416.33
1165.81	320.8	7475.47
1165.91	320.7	7523.23
1166.01	320.6	7504.4
1166.11	320.5	7427.6
1166.21	320.4	7402.9
1166.31	320.3	7492.1
1166.41	320.2	7451.2
1166.51	320.1	7345.9
1166.61	320	7338.53
1166.71	319.9	7443.8
1166.81	319.8	7387.3
1166.91	319.7	7444.33
1167.01	319.6	7428.97
1167.11	319.5	7435.27
1167.21	319.4	7407.03
1167.31	319.3	7365.9
1167.41	319.2	7428.43
1167.51	319.1	7452.93
1167.61	319	7451.9
1167.71	318.9	7440.77
1167.81	318.8	7432.07
1167.91	318.7	7380.1
1168.01	318.6	7344.3
1168.11	318.5	7343.47
1168.21	318.4	7319.27
1168.31	318.3	7356.53
1168.41	318.2	7395.27
1168.51	318.1	7310.53
1168.61	318	7296.63
1168.71	317.9	7299.73
1168.81	317.8	7334.53
1168.91	317.7	7366
1169.01	317.6	7381.3
1169.11	317.5	7271.6
1169.21	317.4	7260.93
1169.31	317.3	7197.47
1169.41	317.2	7222.9
1169.51	317.1	7219.03
1169.61	317	7197.5
1169.71	316.9	7176.2
1169.81	316.8	7241.7
1169.91	316.7	7230.37
1170.01	316.6	7241.03
1170.11	316.5	7245.6
1170.21	316.4	7289.67
1170.31	316.3	7198.6
1170.41	316.2	7220.33
1170.51	316.1	7230.63
1170.61	316	7177.6
1170.71	315.9	7120.9
1170.81	315.8	7142.53
1170.91	315.7	7211.7
1171.01	315.6	7216.43
1171.11	315.5	7230.23
1171.21	315.4	7133.2
1171.31	315.3	7179.3
1171.41	315.2	7125.77
1171.51	315.1	7154.67
1171.61	315	7153.7
1171.71	314.9	7160.13
1171.81	314.8	7214.77
1171.91	314.7	7192.1
1172.01	314.6	7167.87
1172.11	314.5	7128.17
1172.21	314.4	7100.87
1172.31	314.3	7171.73
1172.41	314.2	7087.4
1172.51	314.1	7089.97
1172.61	314	7049.5
1172.71	313.9	7070.83
1172.81	313.8	7113.37
1172.91	313.7	7186.8
1173.01	313.6	7184.03
1173.11	313.5	7098.9
1173.21	313.4	7154.5
1173.31	313.3	7130.37
1173.41	313.2	7043.33
1173.51	313.1	7133.77
1173.61	313	7170.67
1173.71	312.9	7102.7
1173.81	312.8	7106.1
1173.91	312.7	7081
1174.01	312.6	7114.37
1174.11	312.5	7080
1174.21	312.4	7132.53
1174.31	312.3	7072
1174.41	312.2	7128.57
1174.51	312.1	7113.8
1174.61	312	7129.87
1174.71	311.9	7063.07
1174.81	311.8	7054.73
1174.91	311.7	7068.53
1175.01	311.6	7063.07
1175.11	311.5	7075.3
1175.21	311.4	7037.13
1175.31	311.3	7047.6
1175.41	311.2	7066.4
1175.51	311.1	7058.53
1175.61	311	7034.67
1175.71	310.9	7102.13
1175.81	310.8	7109.7
1175.91	310.7	7084.6
1176.01	310.6	7137.17
1176.11	310.5	7110.9
1176.21	310.4	7149
1176.31	310.3	7040.7
1176.41	310.2	7025.97
1176.51	310.1	7091.43
1176.61	310	7136.7
1176.71	309.9	7086.13
1176.81	309.8	7091.73
1176.91	309.7	7135.53
1177.01	309.6	7048.27
1177.11	309.5	6989.9
1177.21	309.4	7003.23
1177.31	309.3	7093.37
1177.41	309.2	7055.4
1177.51	309.1	7073.17
1177.61	309	7078.37
1177.71	308.9	7051.57
1177.81	308.8	7032.2
1177.91	308.7	7044.6
1178.01	308.6	7008.87
1178.11	308.5	7046.57
1178.21	308.4	7044.47
1178.31	308.3	6977.6
1178.41	308.2	7052.7
1178.51	308.1	7050.37
1178.61	308	7063.03
1178.71	307.9	7069.4
1178.81	307.8	7003.43
1178.91	307.7	7000.67
1179.01	307.6	6965.6
1179.11	307.5	7041.63
1179.21	307.4	6975.73
1179.31	307.3	7007.37
1179.41	307.2	7007.13
1179.51	307.1	7042.63
1179.61	307	7006.53
1179.71	306.9	7069.1
1179.81	306.8	7036.63
1179.91	306.7	7054.63
1180.01	306.6	7049.67
1180.11	306.5	7005
1180.21	306.4	7040.8
1180.31	306.3	7027.03
1180.41	306.2	6998.77
1180.51	306.1	7017.3
1180.61	306	7018.37
1180.71	305.9	7044.63
1180.81	305.8	7084.8
1180.91	305.7	7011.27
1181.01	305.6	7059.57
1181.11	305.5	7002.67
1181.21	305.4	7068.6
1181.31	305.3	7029.93
1181.41	305.2	7079.33
1181.51	305.1	7109.53
1181.61	305	7026.13
1181.71	304.9	6958.33
1181.81	304.8	6962.3
1181.91	304.7	6971.17
1182.01	304.6	7078.9
1182.11	304.5	7067.3
1182.21	304.4	7015.73
1182.31	304.3	7005.9
1182.41	304.2	7025.9
1182.51	304.1	7043.97
1182.61	304	7008.7
1182.71	303.9	7014.7
1182.81	303.8	7056.2
1182.91	303.7	7006.27
1183.01	303.6	7064.7
1183.11	303.5	6997.23
1183.21	303.4	6995.1
1183.31	303.3	7007.03
1183.41	303.2	6977.13
1183.51	303.1	7003.6
1183.61	303	7020.87
1183.71	302.9	6993.67
1183.81	302.8	6947.57
1183.91	302.7	7043.37
1184.01	302.6	7044.2
1184.11	302.5	7009.1
1184.21	302.4	7041.17
1184.31	302.3	7027.5
1184.41	302.2	7016.5
1184.51	302.1	7044
1184.61	302	7090.83
1184.71	301.9	6990.4
1184.81	301.8	6991.07
1184.91	301.7	7041.3
1185.01	301.6	7074.73
1185.11	301.5	7039.7
1185.21	301.4	6994.57
1185.31	301.3	6977.7
1185.41	301.2	6959.63
1185.51	301.1	7073.37
1185.61	301	7098.8
1185.71	300.9	6975.8
1185.81	300.8	7025.2
1185.91	300.7	7047.37
1186.01	300.6	7047.33
1186.11	300.5	6985.23
1186.21	300.4	7003.87
1186.31	300.3	7027.3
1186.41	300.2	7002.17
1186.51	300.1	7042.77
1186.61	300	7009.3
1186.71	299.9	7014.6
1186.81	299.8	7085.1
1186.91	299.7	7001.1
1187.01	299.6	6974.23
1187.11	299.5	7027.8
1187.21	299.4	6985.83
1187.31	299.3	7000.9
1187.41	299.2	7033.6
1187.51	299.1	7061.03
1187.61	299	6998.1
1187.71	298.9	7029.1
1187.81	298.8	7010.23
1187.91	298.7	7018.43
1188.01	298.6	7052.9
1188.11	298.5	7032.7
1188.21	298.4	7059.7
1188.31	298.3	6967.67
1188.41	298.2	7066.3
1188.51	298.1	6985.67
1188.61	298	6971.1
1188.71	297.9	7008.43
1188.81	297.8	7026.3
1188.91	297.7	6976.5
1189.01	297.6	7086.77
1189.11	297.5	7045.37
1189.21	297.4	7019.13
1189.31	297.3	6970.43
1189.41	297.2	6943.27
1189.51	297.1	6990.63
1189.61	297	7039.4
1189.71	296.9	7042.43
1189.81	296.8	7051.93
1189.91	296.7	7035.77
1190.01	296.6	7038.13
1190.11	296.5	7072.9
1190.21	296.4	7070.03
1190.31	296.3	6999.43
1190.41	296.2	7030.37
1190.51	296.1	7076.73
1190.61	296	7039.9
1190.71	295.9	7036.4
1190.81	295.8	7046.03
1190.91	295.7	7061.1
1191.01	295.6	7010.57
1191.11	295.5	7026.6
1191.21	295.4	6999.33
1191.31	295.3	7017.8
1191.41	295.2	7024.4
1191.51	295.1	6959.6
1191.61	295	7089.4
1191.71	294.9	7088.87
1191.81	294.8	7075.4
1191.91	294.7	6967.57
1192.01	294.6	6971.2
1192.11	294.5	7027.17
1192.21	294.4	7038.5
1192.31	294.3	7044.5
1192.41	294.2	7074.9
1192.51	294.1	7066.73
1192.61	294	7033.97
1192.71	293.9	7048.17
1192.81	293.8	7077.07
1192.91	293.7	7063.4
1193.01	293.6	7115.63
1193.11	293.5	7025.97
1193.21	293.4	6950.87
1193.31	293.3	7025.3
1193.41	293.2	7029.23
1193.51	293.1	7001.83
1193.61	293	7005.53
1193.71	292.9	7058.2
1193.81	292.8	7065.67
1193.91	292.7	7057.17
1194.01	292.6	7058.53
1194.11	292.5	6976.43
1194.21	292.4	7026.33
1194.31	292.3	7064.6
1194.41	292.2	7093.8
1194.51	292.1	7039.83
1194.61	292	7045.3
1194.71	291.9	7006.3
1194.81	291.8	7098.8
1194.91	291.7	7118.97
1195.01	291.6	7064.43
1195.11	291.5	7065.57
1195.21	291.4	7087.57
1195.31	291.3	7091.73
1195.41	291.2	7123.03
1195.51	291.1	7063.47
1195.61	291	7030.87
1195.71	290.9	7032.2
1195.81	290.8	7150.83
1195.91	290.7	7074.63
1196.01	290.6	7076.93
1196.11	290.5	7101.03
1196.21	290.4	7053.9
1196.31	290.3	7062.73
1196.41	290.2	7052.23
1196.51	290.1	7101.83
1196.61	290	7108.57