c:\users\mark\owncloud\muelheim group\projects\gas phase background\ex340_cec356_au he largearea.vms
Au4f
	Characteristic Energy eV	1486.61	Acquisition Time s	2.9
KE_Au4f	BE_Au4f	CPS_Au4f
1311.61	175	8910.62
1311.71	174.9	8908.31
1311.81	174.8	8904.07
1311.91	174.7	8915.38
1312.01	174.6	8815.59
1312.11	174.5	8900.24
1312.21	174.4	9024.1
1312.31	174.3	8908.66
1312.41	174.2	8917.48
1312.51	174.1	8901.55
1312.61	174	8926.14
1312.71	173.9	8882.72
1312.81	173.8	8857.76
1312.91	173.7	8891.97
1313.01	173.6	8957.45
1313.11	173.5	8889.59
1313.21	173.4	8904.72
1313.31	173.3	8866.69
1313.41	173.2	8906.52
1313.51	173.1	8973.45
1313.61	173	8955.72
1313.71	172.9	8967.52
1313.81	172.8	8964.48
1313.91	172.7	8989.24
1314.01	172.6	9012.97
1314.11	172.5	8951.17
1314.21	172.4	8932.55
1314.31	172.3	8982.55
1314.41	172.2	8944.86
1314.51	172.1	8885.1
1314.61	172	8968.48
1314.71	171.9	8952.69
1314.81	171.8	9010.59
1314.91	171.7	9012.28
1315.01	171.6	9033.48
1315.11	171.5	8958.66
1315.21	171.4	9027.97
1315.31	171.3	8957.17
1315.41	171.2	9003
1315.51	171.1	9033.24
1315.61	171	8926.07
1315.71	170.9	9037.55
1315.81	170.8	9001.76
1315.91	170.7	9002.14
1316.01	170.6	9039.69
1316.11	170.5	9063.59
1316.21	170.4	8994.45
1316.31	170.3	8999.97
1316.41	170.2	8972.24
1316.51	170.1	9050.55
1316.61	170	9055.69
1316.71	169.9	9011.07
1316.81	169.8	9064.48
1316.91	169.7	8998
1317.01	169.6	8958.21
1317.11	169.5	9060.17
1317.21	169.4	9046.59
1317.31	169.3	9071.9
1317.41	169.2	9058.28
1317.51	169.1	9076.28
1317.61	169	9038.38
1317.71	168.9	9061.31
1317.81	168.8	9025.9
1317.91	168.7	9043.31
1318.01	168.6	9085.48
1318.11	168.5	9025.79
1318.21	168.4	9026.66
1318.31	168.3	9050.52
1318.41	168.2	9003.97
1318.51	168.1	9074.38
1318.61	168	8987.93
1318.71	167.9	8993.28
1318.81	167.8	9031.17
1318.91	167.7	9081.97
1319.01	167.6	9104.52
1319.11	167.5	9082.48
1319.21	167.4	9131.52
1319.31	167.3	9058.48
1319.41	167.2	9091.55
1319.51	167.1	9026.38
1319.61	167	9051
1319.71	166.9	9113.83
1319.81	166.8	9094.86
1319.91	166.7	9095.07
1320.01	166.6	9022.79
1320.11	166.5	9015.21
1320.21	166.4	9061.38
1320.31	166.3	9106.76
1320.41	166.2	9137.69
1320.51	166.1	9094.14
1320.61	166	9081.69
1320.71	165.9	9224.55
1320.81	165.8	9165.24
1320.91	165.7	9130.03
1321.01	165.6	9168.24
1321.11	165.5	9094.93
1321.21	165.4	9121.21
1321.31	165.3	9167.28
1321.41	165.2	9140.55
1321.51	165.1	9188.07
1321.61	165	9217.07
1321.71	164.9	9150.38
1321.81	164.8	9192.03
1321.91	164.7	9157.28
1322.01	164.6	9172.21
1322.11	164.5	9185.07
1322.21	164.4	9227.97
1322.31	164.3	9120.41
1322.41	164.2	9070.24
1322.51	164.1	9172.66
1322.61	164	9205.72
1322.71	163.9	9221.72
1322.81	163.8	9139.31
1322.91	163.7	9298.1
1323.01	163.6	9263.52
1323.11	163.5	9267.21
1323.21	163.4	9290.52
1323.31	163.3	9200.76
1323.41	163.2	9142.72
1323.51	163.1	9298.9
1323.61	163	9245.97
1323.71	162.9	9315.97
1323.81	162.8	9309
1323.91	162.7	9252.66
1324.01	162.6	9301.86
1324.11	162.5	9316.69
1324.21	162.4	9388.24
1324.31	162.3	9343.17
1324.41	162.2	9300.79
1324.51	162.1	9324
1324.61	162	9196.34
1324.71	161.9	9268.76
1324.81	161.8	9363.45
1324.91	161.7	9280.17
1325.01	161.6	9345.59
1325.11	161.5	9331.79
1325.21	161.4	9350.55
1325.31	161.3	9401.79
1325.41	161.2	9281.31
1325.51	161.1	9296.14
1325.61	161	9274.69
1325.71	160.9	9247.03
1325.81	160.8	9269.21
1325.91	160.7	9353.34
1326.01	160.6	9269.79
1326.11	160.5	9271.45
1326.21	160.4	9246.48
1326.31	160.3	9180.55
1326.41	160.2	9209.62
1326.51	160.1	9251.93
1326.61	160	9221.59
1326.71	159.9	9286.14
1326.81	159.8	9287.03
1326.91	159.7	9305.76
1327.01	159.6	9302.41
1327.11	159.5	9248.86
1327.21	159.4	9228.17
1327.31	159.3	9308.21
1327.41	159.2	9228.83
1327.51	159.1	9372.72
1327.61	159	9380.45
1327.71	158.9	9371.21
1327.81	158.8	9304.41
1327.91	158.7	9330.76
1328.01	158.6	9370.62
1328.11	158.5	9284.45
1328.21	158.4	9391.55
1328.31	158.3	9326
1328.41	158.2	9322.9
1328.51	158.1	9328.97
1328.61	158	9350.45
1328.71	157.9	9349.34
1328.81	157.8	9407.45
1328.91	157.7	9395
1329.01	157.6	9353.03
1329.11	157.5	9393.59
1329.21	157.4	9370.17
1329.31	157.3	9410.1
1329.41	157.2	9366.45
1329.51	157.1	9359
1329.61	157	9443.83
1329.71	156.9	9472.66
1329.81	156.8	9373.79
1329.91	156.7	9362.62
1330.01	156.6	9408.59
1330.11	156.5	9374.31
1330.21	156.4	9357.86
1330.31	156.3	9359.03
1330.41	156.2	9377.45
1330.51	156.1	9407.31
1330.61	156	9375.86
1330.71	155.9	9398.24
1330.81	155.8	9481
1330.91	155.7	9482.45
1331.01	155.6	9420.62
1331.11	155.5	9404.24
1331.21	155.4	9469.21
1331.31	155.3	9466.93
1331.41	155.2	9461.93
1331.51	155.1	9478.28
1331.61	155	9482.41
1331.71	154.9	9476.9
1331.81	154.8	9450.38
1331.91	154.7	9476.72
1332.01	154.6	9509.48
1332.11	154.5	9502.79
1332.21	154.4	9489.28
1332.31	154.3	9455.41
1332.41	154.2	9507.48
1332.51	154.1	9538.28
1332.61	154	9568.1
1332.71	153.9	9570.21
1332.81	153.8	9494.28
1332.91	153.7	9553.38
1333.01	153.6	9589.24
1333.11	153.5	9596.48
1333.21	153.4	9620.38
1333.31	153.3	9605.72
1333.41	153.2	9496.69
1333.51	153.1	9491.28
1333.61	153	9546.72
1333.71	152.9	9544.83
1333.81	152.8	9563.21
1333.91	152.7	9574.9
1334.01	152.6	9564
1334.11	152.5	9535.21
1334.21	152.4	9633.17
1334.31	152.3	9508.48
1334.41	152.2	9525.41
1334.51	152.1	9623.45
1334.61	152	9660.52
1334.71	151.9	9654.17
1334.81	151.8	9650.55
1334.91	151.7	9614.97
1335.01	151.6	9625.97
1335.11	151.5	9699.07
1335.21	151.4	9696.72
1335.31	151.3	9569.24
1335.41	151.2	9582.14
1335.51	151.1	9607.62
1335.61	151	9712.14
1335.71	150.9	9625.93
1335.81	150.8	9708.28
1335.91	150.7	9621.17
1336.01	150.6	9694.59
1336.11	150.5	9688.62
1336.21	150.4	9704.93
1336.31	150.3	9661.66
1336.41	150.2	9708.86
1336.51	150.1	9713.07
1336.61	150	9756.34
1336.71	149.9	9719.66
1336.81	149.8	9694.59
1336.91	149.7	9669.66
1337.01	149.6	9808.07
1337.11	149.5	9687.07
1337.21	149.4	9717.03
1337.31	149.3	9764
1337.41	149.2	9801.28
1337.51	149.1	9686.07
1337.61	149	9779.24
1337.71	148.9	9731.45
1337.81	148.8	9727.41
1337.91	148.7	9729.41
1338.01	148.6	9720.76
1338.11	148.5	9700.38
1338.21	148.4	9735.34
1338.31	148.3	9828.79
1338.41	148.2	9734.72
1338.51	148.1	9760.86
1338.61	148	9776.9
1338.71	147.9	9787.07
1338.81	147.8	9788.66
1338.91	147.7	9715.79
1339.01	147.6	9777.48
1339.11	147.5	9819.28
1339.21	147.4	9734.41
1339.31	147.3	9781.45
1339.41	147.2	9794.62
1339.51	147.1	9828.21
1339.61	147	9848.21
1339.71	146.9	9751.31
1339.81	146.8	9823.21
1339.91	146.7	9754.93
1340.01	146.6	9724.45
1340.11	146.5	9732.45
1340.21	146.4	9794.45
1340.31	146.3	9788.41
1340.41	146.2	9796.69
1340.51	146.1	9847.28
1340.61	146	9908
1340.71	145.9	9798.41
1340.81	145.8	9833.28
1340.91	145.7	9844.76
1341.01	145.6	9835.07
1341.11	145.5	9877.45
1341.21	145.4	9906.62
1341.31	145.3	9903.34
1341.41	145.2	9799.48
1341.51	145.1	9854.76
1341.61	145	9873.76
1341.71	144.9	9864.03
1341.81	144.8	9899.28
1341.91	144.7	9817.62
1342.01	144.6	9873.69
1342.11	144.5	9913.66
1342.21	144.4	9931.52
1342.31	144.3	9946.76
1342.41	144.2	9938.72
1342.51	144.1	9934.55
1342.61	144	9936.17
1342.71	143.9	9912.34
1342.81	143.8	9910.66
1342.91	143.7	9833.52
1343.01	143.6	9903.34
1343.11	143.5	9861.76
1343.21	143.4	9921.93
1343.31	143.3	9985.34
1343.41	143.2	9900.79
1343.51	143.1	9932.72
1343.61	143	9919
1343.71	142.9	9906.07
1343.81	142.8	9906.07
1343.91	142.7	9913
1344.01	142.6	9911.59
1344.11	142.5	9954.97
1344.21	142.4	9921.76
1344.31	142.3	9932.69
1344.41	142.2	9929.86
1344.51	142.1	9955.79
1344.61	142	9939.86
1344.71	141.9	9914.76
1344.81	141.8	9927.07
1344.91	141.7	9992.69
1345.01	141.6	9944
1345.11	141.5	10060.8
1345.21	141.4	10026.2
1345.31	141.3	9882.41
1345.41	141.2	9922.69
1345.51	141.1	9931.79
1345.61	141	9984.83
1345.71	140.9	10009.8
1345.81	140.8	10020.2
1345.91	140.7	9985.07
1346.01	140.6	10050.1
1346.11	140.5	9992.55
1346.21	140.4	9985.66
1346.31	140.3	9968.55
1346.41	140.2	10015
1346.51	140.1	9980.28
1346.61	140	9981.07
1346.71	139.9	10030.2
1346.81	139.8	10036.3
1346.91	139.7	10027.1
1347.01	139.6	10035.7
1347.11	139.5	9955.17
1347.21	139.4	10004.9
1347.31	139.3	10020.4
1347.41	139.2	10059.5
1347.51	139.1	10054
1347.61	139	10004.1
1347.71	138.9	10047.2
1347.81	138.8	10050.9
1347.91	138.7	9984.41
1348.01	138.6	9991.34
1348.11	138.5	10068.2
1348.21	138.4	9957.07
1348.31	138.3	10051
1348.41	138.2	10173.2
1348.51	138.1	10063.7
1348.61	138	10016.9
1348.71	137.9	9987.24
1348.81	137.8	10040.3
1348.91	137.7	10092.9
1349.01	137.6	10172
1349.11	137.5	10142.3
1349.21	137.4	10116.3
1349.31	137.3	10099.2
1349.41	137.2	10138
1349.51	137.1	10148.4
1349.61	137	10092.1
1349.71	136.9	10097.2
1349.81	136.8	10130
1349.91	136.7	10122.4
1350.01	136.6	10175.4
1350.11	136.5	10208.4
1350.21	136.4	10216.7
1350.31	136.3	10172.6
1350.41	136.2	10167.3
1350.51	136.1	10145.6
1350.61	136	10165.7
1350.71	135.9	10237.5
1350.81	135.8	10123.6
1350.91	135.7	10121.4
1351.01	135.6	10149.4
1351.11	135.5	10195.8
1351.21	135.4	10240.3
1351.31	135.3	10145.1
1351.41	135.2	10105.3
1351.51	135.1	10185.2
1351.61	135	10166
1351.71	134.9	10189.8
1351.81	134.8	10153.5
1351.91	134.7	10224.1
1352.01	134.6	10238.9
1352.11	134.5	10183.2
1352.21	134.4	10197.4
1352.31	134.3	10254.9
1352.41	134.2	10236
1352.51	134.1	10261.3
1352.61	134	10203.5
1352.71	133.9	10175
1352.81	133.8	10269.6
1352.91	133.7	10260.7
1353.01	133.6	10250.1
1353.11	133.5	10312.4
1353.21	133.4	10220.3
1353.31	133.3	10262.1
1353.41	133.2	10239.1
1353.51	133.1	10239.5
1353.61	133	10305.8
1353.71	132.9	10335.3
1353.81	132.8	10314.7
1353.91	132.7	10337.3
1354.01	132.6	10253.4
1354.11	132.5	10368.2
1354.21	132.4	10321.3
1354.31	132.3	10362.4
1354.41	132.2	10382
1354.51	132.1	10345.9
1354.61	132	10428.6
1354.71	131.9	10375.3
1354.81	131.8	10206.4
1354.91	131.7	10249
1355.01	131.6	10380.5
1355.11	131.5	10261.1
1355.21	131.4	10331.7
1355.31	131.3	10281.7
1355.41	131.2	10225.5
1355.51	131.1	10274.6
1355.61	131	10295.6
1355.71	130.9	10351.3
1355.81	130.8	10369.6
1355.91	130.7	10390
1356.01	130.6	10321
1356.11	130.5	10312.5
1356.21	130.4	10385.4
1356.31	130.3	10432.6
1356.41	130.2	10494.5
1356.51	130.1	10417
1356.61	130	10440.7
1356.71	129.9	10407.8
1356.81	129.8	10420
1356.91	129.7	10340.6
1357.01	129.6	10367.9
1357.11	129.5	10424.5
1357.21	129.4	10380.5
1357.31	129.3	10413.1
1357.41	129.2	10495.3
1357.51	129.1	10477.9
1357.61	129	10405.4
1357.71	128.9	10392.5
1357.81	128.8	10445.2
1357.91	128.7	10504
1358.01	128.6	10486.9
1358.11	128.5	10414.9
1358.21	128.4	10399.7
1358.31	128.3	10454.6
1358.41	128.2	10410.2
1358.51	128.1	10351.9
1358.61	128	10419.4
1358.71	127.9	10530.2
1358.81	127.8	10449.5
1358.91	127.7	10514.6
1359.01	127.6	10585.8
1359.11	127.5	10490.1
1359.21	127.4	10498.9
1359.31	127.3	10474.6
1359.41	127.2	10369
1359.51	127.1	10477.1
1359.61	127	10581.4
1359.71	126.9	10613.6
1359.81	126.8	10657.1
1359.91	126.7	10572.2
1360.01	126.6	10547.3
1360.11	126.5	10621.9
1360.21	126.4	10617.7
1360.31	126.3	10660.9
1360.41	126.2	10536.8
1360.51	126.1	10590.4
1360.61	126	10630.8
1360.71	125.9	10638.6
1360.81	125.8	10666.5
1360.91	125.7	10601.1
1361.01	125.6	10598.4
1361.11	125.5	10659.8
1361.21	125.4	10721.9
1361.31	125.3	10687.2
1361.41	125.2	10694.1
1361.51	125.1	10793.8
1361.61	125	10752.2
1361.71	124.9	10718
1361.81	124.8	10743.5
1361.91	124.7	10746.3
1362.01	124.6	10695.3
1362.11	124.5	10738.4
1362.21	124.4	10818.8
1362.31	124.3	10759.5
1362.41	124.2	10888.2
1362.51	124.1	10794.2
1362.61	124	10780.4
1362.71	123.9	10758.4
1362.81	123.8	10893.9
1362.91	123.7	10886.9
1363.01	123.6	10844.2
1363.11	123.5	10912.2
1363.21	123.4	10878.5
1363.31	123.3	10796.3
1363.41	123.2	10933.5
1363.51	123.1	10976.5
1363.61	123	11027.3
1363.71	122.9	11033.3
1363.81	122.8	10955.2
1363.91	122.7	10939.5
1364.01	122.6	11011.7
1364.11	122.5	10914.4
1364.21	122.4	10977.6
1364.31	122.3	11034.9
1364.41	122.2	10976.7
1364.51	122.1	10995.7
1364.61	122	11034.4
1364.71	121.9	11001.4
1364.81	121.8	11076.5
1364.91	121.7	11100.4
1365.01	121.6	11171.2
1365.11	121.5	11066.3
1365.21	121.4	11107.4
1365.31	121.3	11181.5
1365.41	121.2	11212.4
1365.51	121.1	11168.1
1365.61	121	11194.6
1365.71	120.9	11182.5
1365.81	120.8	11206.6
1365.91	120.7	11244.6
1366.01	120.6	11263.2
1366.11	120.5	11329.1
1366.21	120.4	11284.4
1366.31	120.3	11330
1366.41	120.2	11351.7
1366.51	120.1	11332.1
1366.61	120	11330.4
1366.71	119.9	11367.9
1366.81	119.8	11321.4
1366.91	119.7	11364
1367.01	119.6	11407.8
1367.11	119.5	11400.5
1367.21	119.4	11354.5
1367.31	119.3	11355.1
1367.41	119.2	11390.5
1367.51	119.1	11335.1
1367.61	119	11379.2
1367.71	118.9	11433.8
1367.81	118.8	11441.6
1367.91	118.7	11488.1
1368.01	118.6	11469.3
1368.11	118.5	11484.9
1368.21	118.4	11419.3
1368.31	118.3	11508.5
1368.41	118.2	11493.8
1368.51	118.1	11417.8
1368.61	118	11489.4
1368.71	117.9	11532.7
1368.81	117.8	11493.8
1368.91	117.7	11422.6
1369.01	117.6	11386
1369.11	117.5	11550
1369.21	117.4	11572.3
1369.31	117.3	11552
1369.41	117.2	11646.2
1369.51	117.1	11641.3
1369.61	117	11569.4
1369.71	116.9	11580.8
1369.81	116.8	11636.5
1369.91	116.7	11607
1370.01	116.6	11593.6
1370.11	116.5	11612.7
1370.21	116.4	11657.2
1370.31	116.3	11642.3
1370.41	116.2	11617.4
1370.51	116.1	11634.3
1370.61	116	11655.4
1370.71	115.9	11723.8
1370.81	115.8	11762.8
1370.91	115.7	11791.6
1371.01	115.6	11695.7
1371.11	115.5	11795.7
1371.21	115.4	11857.7
1371.31	115.3	11870.8
1371.41	115.2	11745.2
1371.51	115.1	11830.8
1371.61	115	11871.5
1371.71	114.9	11912.3
1371.81	114.8	11883.7
1371.91	114.7	11846.3
1372.01	114.6	11853
1372.11	114.5	11916.9
1372.21	114.4	11826.3
1372.31	114.3	11924.6
1372.41	114.2	11883
1372.51	114.1	11895
1372.61	114	11967.4
1372.71	113.9	11994.9
1372.81	113.8	12011.3
1372.91	113.7	12071
1373.01	113.6	12089.6
1373.11	113.5	11990.7
1373.21	113.4	12101.2
1373.31	113.3	12207.2
1373.41	113.2	12101.1
1373.51	113.1	12156.8
1373.61	113	12150.5
1373.71	112.9	12148.2
1373.81	112.8	12258.5
1373.91	112.7	12198.4
1374.01	112.6	12292.7
1374.11	112.5	12297.8
1374.21	112.4	12292.3
1374.31	112.3	12368.6
1374.41	112.2	12416.2
1374.51	112.1	12329.8
1374.61	112	12348.1
1374.71	111.9	12434.9
1374.81	111.8	12397.4
1374.91	111.7	12400.1
1375.01	111.6	12431.2
1375.11	111.5	12445.9
1375.21	111.4	12500.9
1375.31	111.3	12608.1
1375.41	111.2	12575.7
1375.51	111.1	12518.2
1375.61	111	12600.6
1375.71	110.9	12650.1
1375.81	110.8	12599.9
1375.91	110.7	12607.1
1376.01	110.6	12535.3
1376.11	110.5	12419.1
1376.21	110.4	12204.4
1376.31	110.3	12188.9
1376.41	110.2	12038.3
1376.51	110.1	11976.1
1376.61	110	12017.1
1376.71	109.9	12161.5
1376.81	109.8	12245.6
1376.91	109.7	12484.1
1377.01	109.6	12673.2
1377.11	109.5	12911.3
1377.21	109.4	13368.8
1377.31	109.3	13657.6
1377.41	109.2	14131.5
1377.51	109.1	14667.7
1377.61	109	15049.4
1377.71	108.9	14970.3
1377.81	108.8	14774
1377.91	108.7	14220.7
1378.01	108.6	13557
1378.11	108.5	13043.8
1378.21	108.4	12593.8
1378.31	108.3	12186.3
1378.41	108.2	12011.3
1378.51	108.1	11814.6
1378.61	108	11758
1378.71	107.9	11628.6
1378.81	107.8	11593.3
1378.91	107.7	11482.6
1379.01	107.6	11482.7
1379.11	107.5	11455.7
1379.21	107.4	11516.1
1379.31	107.3	11429.8
1379.41	107.2	11456.9
1379.51	107.1	11356
1379.61	107	11302.4
1379.71	106.9	11095.1
1379.81	106.8	10872.2
1379.91	106.7	10706.2
1380.01	106.6	10585.1
1380.11	106.5	10379.4
1380.21	106.4	10354.8
1380.31	106.3	10403.9
1380.41	106.2	10620.9
1380.51	106.1	10740.1
1380.61	106	10936.1
1380.71	105.9	11291.1
1380.81	105.8	11551.2
1380.91	105.7	12050.3
1381.01	105.6	12642
1381.11	105.5	13306.1
1381.21	105.4	13896.4
1381.31	105.3	14206.5
1381.41	105.2	14226.7
1381.51	105.1	13739.3
1381.61	105	12933.3
1381.71	104.9	12088.5
1381.81	104.8	11480.6
1381.91	104.7	10935.9
1382.01	104.6	10576.3
1382.11	104.5	10293.5
1382.21	104.4	10107.4
1382.31	104.3	9903.21
1382.41	104.2	9884.21
1382.51	104.1	9735.69
1382.61	104	9754.24
1382.71	103.9	9712.31
1382.81	103.8	9715.21
1382.91	103.7	9664.59
1383.01	103.6	9653.83
1383.11	103.5	9619.34
1383.21	103.4	9548.52
1383.31	103.3	9588.66
1383.41	103.2	9582.17
1383.51	103.1	9588.07
1383.61	103	9600.34
1383.71	102.9	9590.9
1383.81	102.8	9572.48
1383.91	102.7	9407.45
1384.01	102.6	9427.86
1384.11	102.5	9640.21
1384.21	102.4	9567.21
1384.31	102.3	9663.97
1384.41	102.2	9473.69
1384.51	102.1	9598.9
1384.61	102	9604.21
1384.71	101.9	9560.14
1384.81	101.8	9536.07
1384.91	101.7	9527.45
1385.01	101.6	9537.31
1385.11	101.5	9580.17
1385.21	101.4	9635.72
1385.31	101.3	9591.38
1385.41	101.2	9621.31
1385.51	101.1	9647.62
1385.61	101	9522.41
1385.71	100.9	9621.31
1385.81	100.8	9567.31
1385.91	100.7	9674.76
1386.01	100.6	9673.38
1386.11	100.5	9635.86
1386.21	100.4	9666.38
1386.31	100.3	9612.83
1386.41	100.2	9592.34
1386.51	100.1	9699.59
1386.61	100	9712.79
1386.71	99.9	9633.1
1386.81	99.8	9698.03
1386.91	99.7	9698.52
1387.01	99.6	9657.48
1387.11	99.5	9742.45
1387.21	99.4	9723.28
1387.31	99.3	9661.52
1387.41	99.2	9688.83
1387.51	99.1	9619.55
1387.61	99	9606.07
1387.71	98.9	9714.38
1387.81	98.8	9679.14
1387.91	98.7	9715.9
1388.01	98.6	9658.9
1388.11	98.5	9626.52
1388.21	98.4	9575.76
1388.31	98.3	9667.41
1388.41	98.2	9634.97
1388.51	98.1	9637.69
1388.61	98	9597.62
1388.71	97.9	9533.07
1388.81	97.8	9590.52
1388.91	97.7	9562.1
1389.01	97.6	9560.28
1389.11	97.5	9550.34
1389.21	97.4	9546.24
1389.31	97.3	9477.31
1389.41	97.2	9446.66
1389.51	97.1	9381.07
1389.61	97	9262.28
1389.71	96.9	9241.48
1389.81	96.8	9295.59
1389.91	96.7	9284.62
1390.01	96.6	9148.24
1390.11	96.5	9185.83
1390.21	96.4	9167.52
1390.31	96.3	9254.31
1390.41	96.2	9172.9
1390.51	96.1	9114.17
1390.61	96	9086.69
1390.71	95.9	9045.17
1390.81	95.8	8998.21
1390.91	95.7	9122.86
1391.01	95.6	9078.52
1391.11	95.5	9093.41
1391.21	95.4	9130.52
1391.31	95.3	9198.1
1391.41	95.2	9285.66
1391.51	95.1	9227.1
1391.61	95	9302.1
1391.71	94.9	9276.34
1391.81	94.8	9299.83
1391.91	94.7	9359.69
1392.01	94.6	9341.86
1392.11	94.5	9345.62
1392.21	94.4	9353.83
1392.31	94.3	9309.17
1392.41	94.2	9381.17
1392.51	94.1	9361.34
1392.61	94	9353.1
1392.71	93.9	9371.07
1392.81	93.8	9349
1392.91	93.7	9323.38
1393.01	93.6	9398.55
1393.11	93.5	9296.97
1393.21	93.4	9283.83
1393.31	93.3	9230.59
1393.41	93.2	9170.17
1393.51	93.1	9109.31
1393.61	93	9048.9
1393.71	92.9	8978.52
1393.81	92.8	8962.76
1393.91	92.7	8985.76
1394.01	92.6	8935.9
1394.11	92.5	8879.59
1394.21	92.4	8946.52
1394.31	92.3	8903.24
1394.41	92.2	8917.07
1394.51	92.1	8962.48
1394.61	92	9001.93
1394.71	91.9	9056.45
1394.81	91.8	9105.31
1394.91	91.7	9249.83
1395.01	91.6	9336.62
1395.11	91.5	9427.55
1395.21	91.4	9458.9
1395.31	91.3	9486.97
1395.41	91.2	9564.48
1395.51	91.1	9648.24
1395.61	91	9743.07
1395.71	90.9	9851
1395.81	90.8	9932.86
1395.91	90.7	10068.4
1396.01	90.6	10169
1396.11	90.5	10303.4
1396.21	90.4	10250.1
1396.31	90.3	10291
1396.41	90.2	10325.7
1396.51	90.1	10371.7
1396.61	90	10375.2
1396.71	89.9	10477.1
1396.81	89.8	10478.2
1396.91	89.7	10676.2
1397.01	89.6	10890.2
1397.11	89.5	11199.6
1397.21	89.4	11566.2
1397.31	89.3	12166.4
1397.41	89.2	12833
1397.51	89.1	13760.8
1397.61	89	14928.4
1397.71	88.9	16491.9
1397.81	88.8	18511.2
1397.91	88.7	21358.2
1398.01	88.6	25029.7
1398.11	88.5	29626.2
1398.21	88.4	35620.3
1398.31	88.3	43404.5
1398.41	88.2	53502.4
1398.51	88.1	65534.5
1398.61	88	78712.1
1398.71	87.9	91977.6
1398.81	87.8	102271
1398.91	87.7	105230
1399.01	87.6	98803.8
1399.11	87.5	84724.1
1399.21	87.4	67267.9
1399.31	87.3	50490
1399.41	87.2	37333.4
1399.51	87.1	27905.6
1399.61	87	21780.5
1399.71	86.9	17840.9
1399.81	86.8	15173.9
1399.91	86.7	13505.9
1400.01	86.6	12404.8
1400.11	86.5	11478.3
1400.21	86.4	10982.7
1400.31	86.3	10450.6
1400.41	86.2	10063
1400.51	86.1	9984.03
1400.61	86	9993.97
1400.71	85.9	10055.9
1400.81	85.8	10336.5
1400.91	85.7	10641.4
1401.01	85.6	11196.2
1401.11	85.5	11879.7
1401.21	85.4	12986.7
1401.31	85.3	14411.2
1401.41	85.2	16378
1401.51	85.1	19184.6
1401.61	85	22848.2
1401.71	84.9	27753.2
1401.81	84.8	34112.8
1401.91	84.7	42373.8
1402.01	84.6	53015.2
1402.11	84.5	66641.7
1402.21	84.4	82757.6
1402.31	84.3	100716
1402.41	84.2	117399
1402.51	84.1	129089
1402.61	84	130746
1402.71	83.9	119589
1402.81	83.8	98549
1402.91	83.7	74804.5
1403.01	83.6	53845.9
1403.11	83.5	37690
1403.21	83.4	26480.2
1403.31	83.3	19248.9
1403.41	83.2	14420.2
1403.51	83.1	11423.1
1403.61	83	9366.52
1403.71	82.9	8005.93
1403.81	82.8	7045.9
1403.91	82.7	6291.21
1404.01	82.6	5743.07
1404.11	82.5	5297.9
1404.21	82.4	4969.24
1404.31	82.3	4683
1404.41	82.2	4397.72
1404.51	82.1	4214.69
1404.61	82	4026.1
1404.71	81.9	3884.07
1404.81	81.8	3704.41
1404.91	81.7	3574.76
1405.01	81.6	3480.1
1405.11	81.5	3403.16
1405.21	81.4	3255.99
1405.31	81.3	3181.99
1405.41	81.2	3103.25
1405.51	81.1	3029.12
1405.61	81	2962.46
1405.71	80.9	2934.42
1405.81	80.8	2876.62
1405.91	80.7	2835.42
1406.01	80.6	2810.31
1406.11	80.5	2730.5
1406.21	80.4	2684.19
1406.31	80.3	2614.8
1406.41	80.2	2648.8
1406.51	80.1	2570.07
1406.61	80	2579.65
1406.71	79.9	2519.72
1406.81	79.8	2522.27
1406.91	79.7	2495.55
1407.01	79.6	2524.48
1407.11	79.5	2531.03
1407.21	79.4	2520.44
1407.31	79.3	2468.21
1407.41	79.2	2408.27
1407.51	79.1	2398.81
1407.61	79	2420.73
1407.71	78.9	2416.18
1407.81	78.8	2385.47
1407.91	78.7	2405.04
1408.01	78.6	2424.19
1408.11	78.5	2385.96
1408.21	78.4	2385.01
1408.31	78.3	2377.69
1408.41	78.2	2373.29
1408.51	78.1	2328.68
1408.61	78	2349.18
1408.71	77.9	2370.1
1408.81	77.8	2396.23
1408.91	77.7	2369.25
1409.01	77.6	2362.07
1409.11	77.5	2357.25
1409.21	77.4	2372.24
1409.31	77.3	2380.99
1409.41	77.2	2305.83
1409.51	77.1	2343.16
1409.61	77	2381.5
1409.71	76.9	2424.3
1409.81	76.8	2426.38
1409.91	76.7	2418.55
1410.01	76.6	2387.43
1410.11	76.5	2423.99
1410.21	76.4	2456.43
1410.31	76.3	2450.68
1410.41	76.2	2416.15
1410.51	76.1	2449.63
1410.61	76	2462.08
1410.71	75.9	2490.47
1410.81	75.8	2497.29
1410.91	75.7	2518.38
1411.01	75.6	2508.52
1411.11	75.5	2531.94
1411.21	75.4	2546.1
1411.31	75.3	2542.99
1411.41	75.2	2550.8
1411.51	75.1	2575.01
1411.61	75	2549.48