c:\users\mark\owncloud\muelheim group\projects\gas phase background\ex340_cec356_au he largearea.vms
Pr:Au4p
	Characteristic Energy eV	1486.61	Acquisition Time s	2
KE_Pr:Au4p	BE_Pr:Au4p	CPS_Pr:Au4p
656.61	830	2887.84
656.71	829.9	2866.5
656.81	829.8	2789.11
656.91	829.7	2776.87
657.01	829.6	2912.28
657.11	829.5	2966.54
657.21	829.4	2959.29
657.31	829.3	2920.9
657.41	829.2	2954.21
657.51	829.1	2952.47
657.61	829	2815.73
657.71	828.9	2832.94
657.81	828.8	2727.75
657.91	828.7	2979.65
658.01	828.6	2940.71
658.11	828.5	2840.02
658.21	828.4	2905.08
658.31	828.3	3031.29
658.41	828.2	2870.95
658.51	828.1	2868.35
658.61	828	2919.26
658.71	827.9	3008.37
658.81	827.8	2920.38
658.91	827.7	3014.39
659.01	827.6	3014.7
659.11	827.5	3005.8
659.21	827.4	2994.96
659.31	827.3	3037.42
659.41	827.2	3019.93
659.51	827.1	3104.79
659.61	827	2997.2
659.71	826.9	3005.95
659.81	826.8	3022.56
659.91	826.7	2911.27
660.01	826.6	2917.93
660.11	826.5	2989.44
660.21	826.4	2919.65
660.31	826.3	2970.2
660.41	826.2	2926.36
660.51	826.1	2947.12
660.61	826	2897.68
660.71	825.9	2887.64
660.81	825.8	2840.49
660.91	825.7	2902.4
661.01	825.6	2950.36
661.11	825.5	2910.12
661.21	825.4	3004.43
661.31	825.3	2925.13
661.41	825.2	2959.79
661.51	825.1	2924.8
661.61	825	2944.31
661.71	824.9	2928.07
661.81	824.8	2928.52
661.91	824.7	3100.83
662.01	824.6	3041.34
662.11	824.5	3100.35
662.21	824.4	2973.21
662.31	824.3	3093.26
662.41	824.2	3083.82
662.51	824.1	2980.78
662.61	824	2916.79
662.71	823.9	2963.04
662.81	823.8	3063.9
662.91	823.7	2899.71
663.01	823.6	2887.37
663.11	823.5	2944.23
663.21	823.4	3041.93
663.31	823.3	3045.49
663.41	823.2	2964.15
663.51	823.1	3078.21
663.61	823	3122.56
663.71	822.9	2994.57
663.81	822.8	2958.38
663.91	822.7	3047.89
664.01	822.6	2948.54
664.11	822.5	2887.6
664.21	822.4	2932.61
664.31	822.3	3027.42
664.41	822.2	3072.22
664.51	822.1	2946.43
664.61	822	2850.79
664.71	821.9	3054.49
664.81	821.8	2901.75
664.91	821.7	3028.31
665.01	821.6	3111.17
665.11	821.5	2992.67
665.21	821.4	2946.83
665.31	821.3	3012.69
665.41	821.2	3084.59
665.51	821.1	3094.3
665.61	821	2982.76
665.71	820.9	2913.61
665.81	820.8	2994.67
665.91	820.7	3071.13
666.01	820.6	2994.43
666.11	820.5	3091.14
666.21	820.4	2913
666.31	820.3	3009.8
666.41	820.2	3076.91
666.51	820.1	3069.17
666.61	820	2995.67
666.71	819.9	2843.33
666.81	819.8	2933.29
666.91	819.7	3007.24
667.01	819.6	2930.3
667.11	819.5	3097.51
667.21	819.4	3108.41
667.31	819.3	3094.92
667.41	819.2	3121.87
667.51	819.1	3122.28
667.61	819	3026.59
667.71	818.9	3021.79
667.81	818.8	3020.85
667.91	818.7	3090.71
668.01	818.6	3060.66
668.11	818.5	3241.62
668.21	818.4	3078.62
668.31	818.3	2950.48
668.41	818.2	2960.88
668.51	818.1	3054.29
668.61	818	3017.95
668.71	817.9	2869.15
668.81	817.8	3128.21
668.91	817.7	3111.01
669.01	817.6	3085.07
669.11	817.5	3050.72
669.21	817.4	3052.98
669.31	817.3	3038.88
669.41	817.2	3006.24
669.51	817.1	2996.49
669.61	817	3101.2
669.71	816.9	3163.2
669.81	816.8	3099.01
669.91	816.7	3022.02
670.01	816.6	3092.02
670.11	816.5	2988.07
670.21	816.4	3026.73
670.31	816.3	2925.73
670.41	816.2	2971.19
670.51	816.1	3001.24
670.61	816	3042.45
670.71	815.9	3016.95
670.81	815.8	2939.76
670.91	815.7	2957.36
671.01	815.6	2948.97
671.11	815.5	3029.62
671.21	815.4	3183.78
671.31	815.3	2989.08
671.41	815.2	3039.48
671.51	815.1	3086.49
671.61	815	3130.44
671.71	814.9	3071.5
671.81	814.8	2900.35
671.91	814.7	3062.35
672.01	814.6	3192.76
672.11	814.5	2959.11
672.21	814.4	3036.82
672.31	814.3	2979.62
672.41	814.2	3231.22
672.51	814.1	3089.98
672.61	814	3104.48
672.71	813.9	3038.28
672.81	813.8	3058.94
672.91	813.7	3114.09
673.01	813.6	3064.44
673.11	813.5	3096.5
673.21	813.4	3030.25
673.31	813.3	3095.15
673.41	813.2	3166.91
673.51	813.1	3207.26
673.61	813	3012.31
673.71	812.9	2879.06
673.81	812.8	2960.87
673.91	812.7	3043.97
674.01	812.6	2984.62
674.11	812.5	2992.67
674.21	812.4	3056.83
674.31	812.3	3048.58
674.41	812.2	3154.73
674.51	812.1	3059.53
674.61	812	3019.59
674.71	811.9	3117.19
674.81	811.8	3282.54
674.91	811.7	3079.24
675.01	811.6	3104.89
675.11	811.5	3115.65
675.21	811.4	3043.35
675.31	811.3	2965.95
675.41	811.2	3080.4
675.51	811.1	3081.6
675.61	811	3154.5
675.71	810.9	3016.8
675.81	810.8	2993.21
675.91	810.7	3019.81
676.01	810.6	3102.26
676.11	810.5	3089.76
676.21	810.4	3172.16
676.31	810.3	3039.06
676.41	810.2	3010.36
676.51	810.1	3151.26
676.61	810	3024.16
676.71	809.9	3073.56
676.81	809.8	3069.66
676.91	809.7	3117.92
677.01	809.6	3071.87
677.11	809.5	3033.87
677.21	809.4	3032.17
677.31	809.3	2945.97
677.41	809.2	3073.47
677.51	809.1	3081.67
677.61	809	3119.92
677.71	808.9	3037.77
677.81	808.8	3052.67
677.91	808.7	3098.67
678.01	808.6	3148.71
678.11	808.5	3044.61
678.21	808.4	2984.21
678.31	808.3	3116.16
678.41	808.2	3168.21
678.51	808.1	3121.56
678.61	808	3051.16
678.71	807.9	3008.31
678.81	807.8	3124.56
678.91	807.7	3137.36
679.01	807.6	3003.86
679.11	807.5	3122.35
679.21	807.4	2961.65
679.31	807.3	3016.35
679.41	807.2	3107.55
679.51	807.1	3069.45
679.61	807	3134.75
679.71	806.9	3133.09
679.81	806.8	3062.84
679.91	806.7	3157.04
680.01	806.6	3023.19
680.11	806.5	3116.59
680.21	806.4	3058.83
680.31	806.3	3150.03
680.41	806.2	3102.48
680.51	806.1	3133.88
680.61	806	3105.72
680.71	805.9	3221.82
680.81	805.8	3232.97
680.91	805.7	3161.01
681.01	805.6	3026.86
681.11	805.5	3036.51
681.21	805.4	3026.1
681.31	805.3	3016.2
681.41	805.2	3121.35
681.51	805.1	3070.04
681.61	805	3115.44
681.71	804.9	3143.09
681.81	804.8	3136.33
681.91	804.7	3116.98
682.01	804.6	3047.62
682.11	804.5	3128.27
682.21	804.4	3266.92
682.31	804.3	3162.76
682.41	804.2	3050.11
682.51	804.1	3108.1
682.61	804	3182.45
682.71	803.9	3262.19
682.81	803.8	3257.34
682.91	803.7	3157.93
683.01	803.6	3209.68
683.11	803.5	3129.02
683.21	803.4	3203.17
683.31	803.3	3167.76
683.41	803.2	3132.86
683.51	803.1	3196.3
683.61	803	3254.1
683.71	802.9	3225.89
683.81	802.8	3169.03
683.91	802.7	3122.13
684.01	802.6	3081.37
684.11	802.5	3152.51
684.21	802.4	3036.56
684.31	802.3	3203.15
684.41	802.2	3151.45
684.51	802.1	3073.54
684.61	802	3104.03
684.71	801.9	3160.48
684.81	801.8	3192.72
684.91	801.7	3066.46
685.01	801.6	3164.2
685.11	801.5	3156.1
685.21	801.4	3238.54
685.31	801.3	3269.98
685.41	801.2	3092.87
685.51	801.1	3044.72
685.61	801	3162.76
685.71	800.9	3244.3
685.81	800.8	3187.49
685.91	800.7	3107.63
686.01	800.6	3139.38
686.11	800.5	3171.47
686.21	800.4	3262.51
686.31	800.3	3226.1
686.41	800.2	3280.54
686.51	800.1	3202.58
686.61	800	3167.12
686.71	799.9	3301.61
686.81	799.8	3198.9
686.91	799.7	3142.84
687.01	799.6	3199.19
687.11	799.5	3221.98
687.21	799.4	3232.67
687.31	799.3	3184.81
687.41	799.2	3114.1
687.51	799.1	3161.44
687.61	799	3213.38
687.71	798.9	3253.62
687.81	798.8	3222.3
687.91	798.7	3189.39
688.01	798.6	3169.13
688.11	798.5	3271.42
688.21	798.4	3220.66
688.31	798.3	3226.15
688.41	798.2	3312.84
688.51	798.1	3123.53
688.61	798	3208.12
688.71	797.9	3132.2
688.81	797.8	3240.94
688.91	797.7	3414.78
689.01	797.6	3223.52
689.11	797.5	3285.91
689.21	797.4	3294.84
689.31	797.3	3176.63
689.41	797.2	3224.42
689.51	797.1	3122.21
689.61	797	3208.84
689.71	796.9	3303.83
689.81	796.8	3160.37
689.91	796.7	3160.56
690.01	796.6	3197.04
690.11	796.5	3284.03
690.21	796.4	3213.12
690.31	796.3	3259.2
690.41	796.2	3228.89
690.51	796.1	3300.47
690.61	796	3149.31
690.71	795.9	3234.7
690.81	795.8	3174.18
690.91	795.7	3237.72
691.01	795.6	3247.55
691.11	795.5	3203.69
691.21	795.4	3214.22
691.31	795.3	3157.46
691.41	795.2	3168.89
691.51	795.1	3099.13
691.61	795	3225.81
691.71	794.9	3332
691.81	794.8	3289.18
691.91	794.7	3174.72
692.01	794.6	3203.15
692.11	794.5	3296.53
692.21	794.4	3266.57
692.31	794.3	3210.55
692.41	794.2	3263.83
692.51	794.1	3235.27
692.61	794	3282.7
692.71	793.9	3327.78
692.81	793.8	3267.97
692.91	793.7	3201.75
693.01	793.6	3271.93
693.11	793.5	3216.51
693.21	793.4	3278.8
693.31	793.3	3266.53
693.41	793.2	3339.31
693.51	793.1	3329.84
693.61	793	3230.23
693.71	792.9	3260.81
693.81	792.8	3265.44
693.91	792.7	3308.72
694.01	792.6	3245.45
694.11	792.5	3263.93
694.21	792.4	3201.01
694.31	792.3	3132.34
694.41	792.2	3248.32
694.51	792.1	3299.85
694.61	792	3325.24
694.71	791.9	3249.32
694.81	791.8	3282.75
694.91	791.7	3204.13
695.01	791.6	3203.41
695.11	791.5	3251.73
695.21	791.4	3309.06
695.31	791.3	3337.54
695.41	791.2	3176.32
695.51	791.1	3348.5
695.61	791	3278.03
695.71	790.9	3194.71
695.81	790.8	3335.54
695.91	790.7	3284.62
696.01	790.6	3286.84
696.11	790.5	3334.62
696.21	790.4	3277.25
696.31	790.3	3318.38
696.41	790.2	3208.16
696.51	790.1	3225.58
696.61	790	3280.81
696.71	789.9	3288.79
696.81	789.8	3182.21
696.91	789.7	3269.44
697.01	789.6	3289.37
697.11	789.5	3196.19
697.21	789.4	3374.32
697.31	789.3	3372.05
697.41	789.2	3246.57
697.51	789.1	3278.45
697.61	789	3260.92
697.71	788.9	3272.85
697.81	788.8	3329.18
697.91	788.7	3262.65
698.01	788.6	3228.68
698.11	788.5	3280.4
698.21	788.4	3294.13
698.31	788.3	3240.6
698.41	788.2	3410.42
698.51	788.1	3310.9
698.61	788	3166.52
698.71	787.9	3303.3
698.81	787.8	3416.42
698.91	787.7	3269.84
699.01	787.6	3337.67
699.11	787.5	3248.59
699.21	787.4	3338.51
699.31	787.3	3302.34
699.41	787.2	3451.31
699.51	787.1	3299.38
699.61	787	3384.65
699.71	786.9	3422.13
699.81	786.8	3314.05
699.91	786.7	3347.37
700.01	786.6	3377.29
700.11	786.5	3239.96
700.21	786.4	3326.14
700.31	786.3	3343.46
700.41	786.2	3505.43
700.51	786.1	3283.65
700.61	786	3340.12
700.71	785.9	3373.34
700.81	785.8	3388.81
700.91	785.7	3323.43
701.01	785.6	3238.25
701.11	785.5	3294.07
701.21	785.4	3428.84
701.31	785.3	3430.51
701.41	785.2	3383.53
701.51	785.1	3366.55
701.61	785	3237.97
701.71	784.9	3294.79
701.81	784.8	3310.31
701.91	784.7	3329.77
702.01	784.6	3224.19
702.11	784.5	3269.51
702.21	784.4	3297.48
702.31	784.3	3341.15
702.41	784.2	3430.86
702.51	784.1	3478.03
702.61	784	3417.65
702.71	783.9	3444.57
702.81	783.8	3363.83
702.91	783.7	3242.7
703.01	783.6	3372.22
703.11	783.5	3380.53
703.21	783.4	3334.1
703.31	783.3	3260.31
703.41	783.2	3428.38
703.51	783.1	3348.2
703.61	783	3306.01
703.71	782.9	3330.48
703.81	782.8	3369.54
703.91	782.7	3321.01
704.01	782.6	3301.22
704.11	782.5	3274.04
704.21	782.4	3301.95
704.31	782.3	3433.01
704.41	782.2	3418.43
704.51	782.1	3341.39
704.61	782	3254.71
704.71	781.9	3330.32
704.81	781.8	3391.43
704.91	781.7	3436.34
705.01	781.6	3399.01
705.11	781.5	3300.97
705.21	781.4	3416.58
705.31	781.3	3390.19
705.41	781.2	3384.71
705.51	781.1	3318.97
705.61	781	3306.88
705.71	780.9	3306.29
705.81	780.8	3360.15
705.91	780.7	3190.86
706.01	780.6	3309.93
706.11	780.5	3287.14
706.21	780.4	3334.4
706.31	780.3	3332.91
706.41	780.2	3446.87
706.51	780.1	3559.33
706.61	780	3477.54
706.71	779.9	3365.3
706.81	779.8	3418.41
706.91	779.7	3341.41
707.01	779.6	3333.97
707.11	779.5	3382.43
707.21	779.4	3479.89
707.31	779.3	3490.7
707.41	779.2	3462.36
707.51	779.1	3359.07
707.61	779	3458.17
707.71	778.9	3429.43
707.81	778.8	3338.64
707.91	778.7	3446.35
708.01	778.6	3491.7
708.11	778.5	3467.46
708.21	778.4	3311.62
708.31	778.3	3311.27
708.41	778.2	3243.93
708.51	778.1	3316.73
708.61	778	3366.44
708.71	777.9	3295.2
708.81	777.8	3368.9
708.91	777.7	3493.01
709.01	777.6	3427.56
709.11	777.5	3265.12
709.21	777.4	3363.32
709.31	777.3	3330.82
709.41	777.2	3475.63
709.51	777.1	3488.53
709.61	777	3466.64
709.71	776.9	3460.94
709.81	776.8	3509.54
709.91	776.7	3422.55
710.01	776.6	3522.8
710.11	776.5	3411
710.21	776.4	3355.85
710.31	776.3	3427.06
710.41	776.2	3404.46
710.51	776.1	3365.56
710.61	776	3380.91
710.71	775.9	3377.11
710.81	775.8	3475.27
710.91	775.7	3412.82
711.01	775.6	3342.07
711.11	775.5	3430.92
711.21	775.4	3493.77
711.31	775.3	3490.57
711.41	775.2	3458.42
711.51	775.1	3435.92
711.61	775	3415.97
711.71	774.9	3540.02
711.81	774.8	3417.17
711.91	774.7	3478.76
712.01	774.6	3510.41
712.11	774.5	3459.26
712.21	774.4	3351.46
712.31	774.3	3405.26
712.41	774.2	3418.16
712.51	774.1	3506.35
712.61	774	3425.55
712.71	773.9	3444.6
712.81	773.8	3460.79
712.91	773.7	3457.79
713.01	773.6	3580.19
713.11	773.5	3599.13
713.21	773.4	3548.68
713.31	773.3	3551.68
713.41	773.2	3431.02
713.51	773.1	3379.82
713.61	773	3477.66
713.71	772.9	3500.46
713.81	772.8	3448.35
713.91	772.7	3497.05
714.01	772.6	3533.24
714.11	772.5	3431.63
714.21	772.4	3488.78
714.31	772.3	3505.27
714.41	772.2	3594.42
714.51	772.1	3492.41
714.61	772	3416.2
714.71	771.9	3507.94
714.81	771.8	3562.34
714.91	771.7	3618.73
715.01	771.6	3558.37
715.11	771.5	3601.51
715.21	771.4	3547.95
715.31	771.3	3631.45
715.41	771.2	3676.34
715.51	771.1	3526.68
715.61	771	3547.42
715.71	770.9	3575.56
715.81	770.8	3597.8
715.91	770.7	3644.99
716.01	770.6	3669.28
716.11	770.5	3654.62
716.21	770.4	3589.61
716.31	770.3	3662.1
716.41	770.2	3668.33
716.51	770.1	3678.17
716.61	770	3553.11
716.71	769.9	3517.35
716.81	769.8	3598.64
716.91	769.7	3615.02
717.01	769.6	3587.36
717.11	769.5	3655.3
717.21	769.4	3731.24
717.31	769.3	3643.57
717.41	769.2	3750.31
717.51	769.1	3717
717.61	769	3812.88
717.71	768.9	3733.87
717.81	768.8	3605.65
717.91	768.7	3775.69
718.01	768.6	3746.57
718.11	768.5	3773.26
718.21	768.4	3728.44
718.31	768.3	3820.48
718.41	768.2	3946.36
718.51	768.1	3848.59
718.61	768	3769.58
718.71	767.9	3713.71
718.81	767.8	3864.54
718.91	767.7	3853.83
719.01	767.6	3835.51
719.11	767.5	3889.94
719.21	767.4	3853.57
719.31	767.3	3951.11
719.41	767.2	3862.89
719.51	767.1	3831.17
719.61	767	4096.65
719.71	766.9	4019.78
719.81	766.8	3909.61
719.91	766.7	3972.59
720.01	766.6	4060.12
720.11	766.5	4158.85
720.21	766.4	3919.48
720.31	766.3	4039.56
720.41	766.2	4103.89
720.51	766.1	4079.67
720.61	766	4071.95
720.71	765.9	4119.48
720.81	765.8	4241.4
720.91	765.7	4194.48
721.01	765.6	4265.36
721.11	765.5	4321.89
721.21	765.4	4327.26
721.31	765.3	4267.44
721.41	765.2	4357.92
721.51	765.1	4259.29
721.61	765	4316.07
721.71	764.9	4394.65
721.81	764.8	4468.77
721.91	764.7	4390.95
722.01	764.6	4480.37
722.11	764.5	4389.35
722.21	764.4	4362.32
722.31	764.3	4632.05
722.41	764.2	4639.22
722.51	764.1	4583.64
722.61	764	4558.72
722.71	763.9	4557.59
722.81	763.8	4573.86
722.91	763.7	4702.34
723.01	763.6	4769.26
723.11	763.5	4593.38
723.21	763.4	4595.85
723.31	763.3	4635.92
723.41	763.2	4698.05
723.51	763.1	4847.57
723.61	763	4781.94
723.71	762.9	4757.01
723.81	762.8	4843.33
723.91	762.7	4828.75
724.01	762.6	4757.27
724.11	762.5	4836.69
724.21	762.4	4836.46
724.31	762.3	4883.38
724.41	762.2	4882.75
724.51	762.1	4730.87
724.61	762	4897.28
724.71	761.9	4925.85
724.81	761.8	4920.17
724.91	761.7	4895.39
725.01	761.6	4857.01
725.11	761.5	4832.57
725.21	761.4	4864.44
725.31	761.3	4819.71
725.41	761.2	4737.02
725.51	761.1	4879.09
725.61	761	4682.16
725.71	760.9	4790.62
725.81	760.8	4716.34
725.91	760.7	4725.55
726.01	760.6	4716.17
726.11	760.5	4726.18
726.21	760.4	4710.5
726.31	760.3	4612.01
726.41	760.2	4598.53
726.51	760.1	4553.09
726.61	760	4489.5
726.71	759.9	4462.72
726.81	759.8	4466.28
726.91	759.7	4417.94
727.01	759.6	4424.4
727.11	759.5	4400.27
727.21	759.4	4329.03
727.31	759.3	4309.79
727.41	759.2	4264.35
727.51	759.1	4275.96
727.61	759	4277.07
727.71	758.9	4274.09
727.81	758.8	4130.5
727.91	758.7	4004.76
728.01	758.6	4041.62
728.11	758.5	4121.68
728.21	758.4	4149.39
728.31	758.3	4106.2
728.41	758.2	4026.25
728.51	758.1	4058.01
728.61	758	3883.67
728.71	757.9	3896.43
728.81	757.8	3903.64
728.91	757.7	3854.3
729.01	757.6	3753.2
729.11	757.5	3774.36
729.21	757.4	3785.57
729.31	757.3	3617.38
729.41	757.2	3703.03
729.51	757.1	3644.29
729.61	757	3699.44
729.71	756.9	3883.2
729.81	756.8	3682.31
729.91	756.7	3564.06
730.01	756.6	3565.12
730.11	756.5	3623.62
730.21	756.4	3587.03
730.31	756.3	3499.68
730.41	756.2	3501.74
730.51	756.1	3506.24
730.61	756	3475.49
730.71	755.9	3439.95
730.81	755.8	3347.7
730.91	755.7	3434.8
731.01	755.6	3337.11
731.11	755.5	3382.61
731.21	755.4	3524.11
731.31	755.3	3434.51
731.41	755.2	3356.57
731.51	755.1	3337.87
731.61	755	3346.47
731.71	754.9	3195.12
731.81	754.8	3314.87
731.91	754.7	3297.97
732.01	754.6	3456.22
732.11	754.5	3328.87
732.21	754.4	3118.72
732.31	754.3	3134.57
732.41	754.2	3291.77
732.51	754.1	3166.72
732.61	754	3184.57
732.71	753.9	3192.17
732.81	753.8	3247.82
732.91	753.7	3231.76
733.01	753.6	3120.46
733.11	753.5	3040.41
733.21	753.4	3225.21
733.31	753.3	3227.41
733.41	753.2	3205.05
733.51	753.1	3127
733.61	753	3146
733.71	752.9	3038.74
733.81	752.8	3165.59
733.91	752.7	3098.44
734.01	752.6	3120.53
734.11	752.5	3085.53
734.21	752.4	3043.42
734.31	752.3	3101.22
734.41	752.2	3075.06
734.51	752.1	3240.36
734.61	752	3138.3
734.71	751.9	3029.39
734.81	751.8	3007.89
734.91	751.7	3031.03
735.01	751.6	3117.98
735.11	751.5	2958.77
735.21	751.4	3031.71
735.31	751.3	3102.8
735.41	751.2	3035.35
735.51	751.1	3006.84
735.61	751	3078.73
735.71	750.9	3084.62
735.81	750.8	3047.36
735.91	750.7	3008.31
736.01	750.6	3086.25
736.11	750.5	3082.94
736.21	750.4	3008.28
736.31	750.3	2791.97
736.41	750.2	2997.06
736.51	750.1	3019.65
736.61	750	2964.54
736.71	749.9	2990.53
736.81	749.8	2981.12
736.91	749.7	2883.36
737.01	749.6	2954.34
737.11	749.5	2939.03
737.21	749.4	2965.62
737.31	749.3	3028.36
737.41	749.2	2873.35
737.51	749.1	2850.39
737.61	749	2927.47
737.71	748.9	2843.81
737.81	748.8	2818.55
737.91	748.7	2940.43
738.01	748.6	2913.77
738.11	748.5	2861.76
738.21	748.4	2904.04
738.31	748.3	2909.43
738.41	748.2	2983.96
738.51	748.1	2875.85
738.61	748	3038.88
738.71	747.9	2974.72
738.81	747.8	2984.95
738.91	747.7	2885.59
739.01	747.6	2921.52
739.11	747.5	2876.41
739.21	747.4	2876.04
739.31	747.3	2953.27
739.41	747.2	2973.81
739.51	747.1	2860.09
739.61	747	2809.77
739.71	746.9	2907.41
739.81	746.8	2997.84
739.91	746.7	2911.27
740.01	746.6	2837.25
740.11	746.5	2835.33
740.21	746.4	2839.47
740.31	746.3	2862.8
740.41	746.2	2820.73
740.51	746.1	2886.91
740.61	746	2936.09
740.71	745.9	2771.62
740.81	745.8	2835.6
740.91	745.7	2933.33
741.01	745.6	2844.11
741.11	745.5	2788.89
741.21	745.4	2781.12
741.31	745.3	2865.3
741.41	745.2	2840.98
741.51	745.1	2915.11
741.61	745	2801.59
741.71	744.9	2741.11
741.81	744.8	2827.54
741.91	744.7	2765.42
742.01	744.6	2889.25
742.11	744.5	2763.57
742.21	744.4	2753.9
742.31	744.3	2934.83
742.41	744.2	2763.9
742.51	744.1	2749.13
742.61	744	2891.41
742.71	743.9	2818.58
742.81	743.8	2918.46
742.91	743.7	2738.44
743.01	743.6	2745.91
743.11	743.5	2864.89
743.21	743.4	2869.71
743.31	743.3	2826.54
743.41	743.2	2813.66
743.51	743.1	2811.48
743.61	743	2795.96
743.71	742.9	2850.33
743.81	742.8	2826.76
743.91	742.7	2776.18
744.01	742.6	2724.3
744.11	742.5	2816.98
744.21	742.4	2881.9
744.31	742.3	2802.47
744.41	742.2	2971.89
744.51	742.1	2780.62
744.61	742	2800.89
744.71	741.9	2833.01
744.81	741.8	2811.28
744.91	741.7	2848.4
745.01	741.6	2758.67
745.11	741.5	2763.29
745.21	741.4	2803.56
745.31	741.3	2761.43
745.41	741.2	2841.85
745.51	741.1	2787.87
745.61	741	2865.89
745.71	740.9	2730.06
745.81	740.8	2810.23
745.91	740.7	2758.85
746.01	740.6	2851.17
746.11	740.5	2876.44
746.21	740.4	2737.41
746.31	740.3	2860.58
746.41	740.2	2811.4
746.51	740.1	2755.66
746.61	740	2739.93
746.71	739.9	2786.95
746.81	739.8	2805.27
746.91	739.7	2834.03
747.01	739.6	2823.45
747.11	739.5	2767.32
747.21	739.4	2797.53
747.31	739.3	2828.6
747.41	739.2	2884.56
747.51	739.1	2690.98
747.61	739	2739.55
747.71	738.9	2799.61
747.81	738.8	2749.48
747.91	738.7	2778.44
748.01	738.6	2865.31
748.11	738.5	2900.22
748.21	738.4	2750.43
748.31	738.3	2750.7
748.41	738.2	2858.31
748.51	738.1	2844.83
748.61	738	2897.34
748.71	737.9	2869.3
748.81	737.8	2839.27
748.91	737.7	2703.33
749.01	737.6	2866.59
749.11	737.5	2798.35
749.21	737.4	2811.87
749.31	737.3	2744.98
749.41	737.2	2794.84
749.51	737.1	2867.2
749.61	737	2912.61
749.71	736.9	2851.22
749.81	736.8	2795.74
749.91	736.7	2756.9
750.01	736.6	2761.26
750.11	736.5	2771.02
750.21	736.4	2733.13
750.31	736.3	2827.64
750.41	736.2	2888.4
750.51	736.1	2847.56
750.61	736	2656.82
750.71	735.9	2690.92
750.81	735.8	2906.38
750.91	735.7	2882.09
751.01	735.6	2874
751.11	735.5	2870.01
751.21	735.4	2819.87
751.31	735.3	2793.93
751.41	735.2	2845.43
751.51	735.1	2777.04
751.61	735	2964.95
751.71	734.9	2766.21
751.81	734.8	2800.76
751.91	734.7	2746.57
752.01	734.6	2728.73
752.11	734.5	2751.58
752.21	734.4	2894.14
752.31	734.3	2923.04
752.41	734.2	2847.95
752.51	734.1	2857.75
752.61	734	2847.36
752.71	733.9	2800.92
752.81	733.8	2827.42
752.91	733.7	2803.07
753.01	733.6	2750.68
753.11	733.5	2875.43
753.21	733.4	2845.39
753.31	733.3	2748.04
753.41	733.2	2854.4
753.51	733.1	2831.95
753.61	733	2769.65
753.71	732.9	2835.85
753.81	732.8	2819.61
753.91	732.7	2835.11
754.01	732.6	2829.91
754.11	732.5	2952.97
754.21	732.4	2792.47
754.31	732.3	2862.52
754.41	732.2	2896.12
754.51	732.1	2836.57
754.61	732	2893.57
754.71	731.9	2887.72
754.81	731.8	2809.68
754.91	731.7	2818.28
755.01	731.6	2933.43
755.11	731.5	2770.78
755.21	731.4	2934.63
755.31	731.3	2778.13
755.41	731.2	2839.98
755.51	731.1	2744.88
755.61	731	2711.78
755.71	730.9	2802.88
755.81	730.8	2820.47
755.91	730.7	2950.17
756.01	730.6	2794.92
756.11	730.5	2813.22
756.21	730.4	2831.47
756.31	730.3	2861.32
756.41	730.2	3026.21
756.51	730.1	2994.31
756.61	730	2833.51
756.71	729.9	2828.86
756.81	729.8	2802.85
756.91	729.7	2813.65
757.01	729.6	2928.7
757.11	729.5	2890.34
757.21	729.4	2766.79
757.31	729.3	2744.04
757.41	729.2	2879.23
757.51	729.1	2833.48
757.61	729	2852.42
757.71	728.9	2880.67
757.81	728.8	2965.01
757.91	728.7	2864.16
758.01	728.6	2892.45
758.11	728.5	2768.85
758.21	728.4	2964.34
758.31	728.3	2959.49
758.41	728.2	2817.13
758.51	728.1	2773.62
758.61	728	2868.07
758.71	727.9	2893.66
758.81	727.8	2727.45
758.91	727.7	2829.2
759.01	727.6	2737.19
759.11	727.5	2829.18
759.21	727.4	2858.12
759.31	727.3	2890.52
759.41	727.2	2935.11
759.51	727.1	2831.6
759.61	727	2822.59
759.71	726.9	2762.68
759.81	726.8	2888.82
759.91	726.7	2850.82
760.01	726.6	2929.36
760.11	726.5	2921.1
760.21	726.4	2843.14
760.31	726.3	2753.23
760.41	726.2	2786.82
760.51	726.1	2806.81
760.61	726	2857.05
760.71	725.9	2999.29
760.81	725.8	2863.63
760.91	725.7	2899.22
761.01	725.6	2831.71
761.11	725.5	2836.94
761.21	725.4	2860.38
761.31	725.3	2931.42
761.41	725.2	2972.51
761.51	725.1	2742.05
761.61	725	2816.64
761.71	724.9	2760.52
761.81	724.8	2823.11
761.91	724.7	2857.4
762.01	724.6	2925.09
762.11	724.5	2812.87
762.21	724.4	2725.11
762.31	724.3	2868.25
762.41	724.2	2788.03
762.51	724.1	2899.77
762.61	724	2692.1
762.71	723.9	2917.04
762.81	723.8	2953.68
762.91	723.7	2900.36
763.01	723.6	2906.1
763.11	723.5	2889.63
763.21	723.4	2899.42
763.31	723.3	2987.8
763.41	723.2	2785.84
763.51	723.1	2775.97
763.61	723	2854.06
763.71	722.9	2730.84
763.81	722.8	2824.17
763.91	722.7	2895.21
764.01	722.6	2874.59
764.11	722.5	2931.57
764.21	722.4	2964.91
764.31	722.3	2893.09
764.41	722.2	2863.62
764.51	722.1	2832.61
764.61	722	2795.44
764.71	721.9	2807.97
764.81	721.8	2841.65
764.91	721.7	2892.63
765.01	721.6	2924.47
765.11	721.5	2920.5
765.21	721.4	2917.18
765.31	721.3	2936.56
765.41	721.2	2998.79
765.51	721.1	2919.47
765.61	721	2912.35
765.71	720.9	2755.38
765.81	720.8	2802.66
765.91	720.7	2790.94
766.01	720.6	2774.52
766.11	720.5	2805.85
766.21	720.4	2910.03
766.31	720.3	2864.16
766.41	720.2	2770.29
766.51	720.1	2888.42
766.61	720	2866.5
766.71	719.9	2954.88
766.81	719.8	2839.96
766.91	719.7	2870.59
767.01	719.6	2943.01
767.11	719.5	2977.94
767.21	719.4	3050.82
767.31	719.3	2878.6
767.41	719.2	2748.63
767.51	719.1	2838.6
767.61	719	2957.13
767.71	718.9	2884.16
767.81	718.8	2893.68
767.91	718.7	2834.01
768.01	718.6	2845.54
768.11	718.5	2877.71
768.21	718.4	2873.34
768.31	718.3	2869.61
768.41	718.2	2833.49
768.51	718.1	2834.47
768.61	718	2779.59
768.71	717.9	2900.27
768.81	717.8	2915.74
768.91	717.7	2882.67
769.01	717.6	2770.99
769.11	717.5	2861.77
769.21	717.4	2946.09
769.31	717.3	2803.01
769.41	717.2	2861.94
769.51	717.1	2908.21
769.61	717	2913.39
769.71	716.9	2978.36
769.81	716.8	2971.03
769.91	716.7	2915.51
770.01	716.6	2900.83
770.11	716.5	2949.8
770.21	716.4	2791.68
770.31	716.3	2934.75
770.41	716.2	2963.97
770.51	716.1	2820.34
770.61	716	2912.86
770.71	715.9	2918.79
770.81	715.8	2893.86
770.91	715.7	3035.18
771.01	715.6	3106.45
771.11	715.5	2910.77
771.21	715.4	2740.74
771.31	715.3	2999.51
771.41	715.2	2913.08
771.51	715.1	2811.5
771.61	715	2913.03
771.71	714.9	2979.3
771.81	714.8	2948.87
771.91	714.7	2934.89
772.01	714.6	3018.6
772.11	714.5	2935.87
772.21	714.4	3056.99
772.31	714.3	3034.46
772.41	714.2	3036.53
772.51	714.1	2959.45
772.61	714	2907.27
772.71	713.9	2928.89
772.81	713.8	2995.16
772.91	713.7	3007.77
773.01	713.6	2959.39
773.11	713.5	2890.91
773.21	713.4	2809.13
773.31	713.3	2755.2
773.41	713.2	2844.96
773.51	713.1	2912.38
773.61	713	2909.6
773.71	712.9	3072.26
773.81	712.8	2914.03
773.91	712.7	2903.55
774.01	712.6	2976.01
774.11	712.5	2905.78
774.21	712.4	2823.7
774.31	712.3	2953.86
774.41	712.2	2867.53
774.51	712.1	2913.59
774.61	712	2973.11
774.71	711.9	2923.82
774.81	711.8	2971.54
774.91	711.7	2905.85
775.01	711.6	3003.72
775.11	711.5	2937.93
775.21	711.4	3005.1
775.31	711.3	2903.16
775.41	711.2	2842.18
775.51	711.1	2891.79
775.61	711	2888.45
775.71	710.9	2964.87
775.81	710.8	2978.83
775.91	710.7	2971.09
776.01	710.6	2944.61
776.11	710.5	2938.32
776.21	710.4	3004.18
776.31	710.3	2920.1
776.41	710.2	2937.91
776.51	710.1	2867.27
776.61	710	2991.43
776.71	709.9	2960.79
776.81	709.8	3038.36
776.91	709.7	2949.62
777.01	709.6	2933.88
777.11	709.5	2979.94
777.21	709.4	2872.05
777.31	709.3	2846.91
777.41	709.2	2927.37
777.51	709.1	2928.74
777.61	709	2920.35
777.71	708.9	3000.51
777.81	708.8	2991.97
777.91	708.7	2941.28
778.01	708.6	3013.94
778.11	708.5	2926.7
778.21	708.4	2905.26
778.31	708.3	2750.77
778.41	708.2	3030.88
778.51	708.1	3074.54
778.61	708	2938.69
778.71	707.9	2959.75
778.81	707.8	2974.96
778.91	707.7	2886.12
779.01	707.6	2994.98
779.11	707.5	2933.54
779.21	707.4	2981.8
779.31	707.3	2973.4
779.41	707.2	3003.46
779.51	707.1	3041.47
779.61	707	3031.33
779.71	706.9	3043.08
779.81	706.8	2970.99
779.91	706.7	2919.45
780.01	706.6	3049.31
780.11	706.5	2957.56
780.21	706.4	3040.97
780.31	706.3	2937.93
780.41	706.2	2892.83
780.51	706.1	2942.59
780.61	706	2941.14
780.71	705.9	2985.3
780.81	705.8	3022.91
780.91	705.7	2980.66
781.01	705.6	2982.82
781.11	705.5	2944.72
781.21	705.4	2948.53
781.31	705.3	2951.93
781.41	705.2	2988.79
781.51	705.1	2946.74
781.61	705	2929.95
781.71	704.9	2973.3
781.81	704.8	3116.35
781.91	704.7	3041.41
782.01	704.6	2912.66
782.11	704.5	2951.82
782.21	704.4	3046.72
782.31	704.3	2950.47
782.41	704.2	2931.38
782.51	704.1	2889.83
782.61	704	2943.13
782.71	703.9	2936.04
782.81	703.8	2914.69
782.91	703.7	3027.04
783.01	703.6	3028.44
783.11	703.5	3036.3
783.21	703.4	3076.65
783.31	703.3	3045.55
783.41	703.2	3156.5
783.51	703.1	3107.4
783.61	703	2983.61
783.71	702.9	3048.31
783.81	702.8	3007.36
783.91	702.7	2982.11
784.01	702.6	2989.61
784.11	702.5	3087.26
784.21	702.4	3002.46
784.31	702.3	3074.81
784.41	702.2	2953.86
784.51	702.1	3001.26
784.61	702	3091.01
784.71	701.9	3080.51
784.81	701.8	3132.31
784.91	701.7	3111.36
785.01	701.6	2889.86
785.11	701.5	3071.06
785.21	701.4	3026.86
785.31	701.3	3058.81
785.41	701.2	3121.21
785.51	701.1	3082.71
785.61	701	3022.51
785.71	700.9	3081.7
785.81	700.8	3095.05
785.91	700.7	2937.05
786.01	700.6	2953.45
786.11	700.5	3078.5
786.21	700.4	3013.3
786.31	700.3	2938.69
786.41	700.2	3067.99
786.51	700.1	3050.04
786.61	700	3110.24
786.71	699.9	2934.38
786.81	699.8	2878.73
786.91	699.7	3049.88
787.01	699.6	2988.82
787.11	699.5	3027.32
787.21	699.4	3052.87
787.31	699.3	3002.56
787.41	699.2	3024.06
787.51	699.1	2845.95
787.61	699	2909.8
787.71	698.9	3037.9
787.81	698.8	3091.49
787.91	698.7	3026.14
788.01	698.6	3053.13
788.11	698.5	3060.23
788.21	698.4	3056.17
788.31	698.3	3042.02
788.41	698.2	3071.06
788.51	698.1	3093.61
788.61	698	3088.25
788.71	697.9	3081.6
788.81	697.8	2981.94
788.91	697.7	2934.63
789.01	697.6	3032.18
789.11	697.5	3122.92
789.21	697.4	3088.27
789.31	697.3	3095.06
789.41	697.2	3090.85
789.51	697.1	3061.05
789.61	697	3019.59
789.71	696.9	3035.78
789.81	696.8	3052.33
789.91	696.7	3018.22
790.01	696.6	3055.21
790.11	696.5	3086.05
790.21	696.4	3104.25
790.31	696.3	3040.14
790.41	696.2	2975.83
790.51	696.1	3020.37
790.61	696	2920.41
790.71	695.9	3135.51
790.81	695.8	3109.6
790.91	695.7	3056.69
791.01	695.6	3148.88
791.11	695.5	3228.22
791.21	695.4	3028.71
791.31	695.3	2993.5
791.41	695.2	3104.79
791.51	695.1	2995.68
791.61	695	3120.62
791.71	694.9	3099.36
791.81	694.8	2909.1
791.91	694.7	3125.74
792.01	694.6	3028.43
792.11	694.5	3099.37
792.21	694.4	3077.36
792.31	694.3	2973.15
792.41	694.2	3122.79
792.51	694.1	3131.28
792.61	694	3120.92
792.71	693.9	3156.21
792.81	693.8	3067.05
792.91	693.7	3146.49
793.01	693.6	3089.18
793.11	693.5	3275.91
793.21	693.4	3108.35
793.31	693.3	3162.24
793.41	693.2	3142.88
793.51	693.1	3220.07
793.61	693	3037
793.71	692.9	3190.29
793.81	692.8	3259.38
793.91	692.7	3141.17
794.01	692.6	3099.55
794.11	692.5	3132.04
794.21	692.4	3205.83
794.31	692.3	3138.41
794.41	692.2	3129
794.51	692.1	3145.89
794.61	692	3104.87
794.71	691.9	3267.86
794.81	691.8	3185.65
794.91	691.7	3070.28
795.01	691.6	3137.17
795.11	691.5	3178.35
795.21	691.4	3099.59
795.31	691.3	3136.38
795.41	691.2	3090.06
795.51	691.1	3093.9
795.61	691	3119.68
795.71	690.9	3090.47
795.81	690.8	3099.75
795.91	690.7	3153.69
796.01	690.6	3004.72
796.11	690.5	3053.35
796.21	690.4	3191.84
796.31	690.3	3105.47
796.41	690.2	3130.61
796.51	690.1	3089.74
796.61	690	3047.63
796.71	689.9	3068.26
796.81	689.8	3159.14
796.91	689.7	3151.53
797.01	689.6	3110.81
797.11	689.5	3090.39
797.21	689.4	3178.28
797.31	689.3	3028.61
797.41	689.2	3139.04
797.51	689.1	3263.07
797.61	689	3295.41
797.71	688.9	3198.09
797.81	688.8	3262.02
797.91	688.7	3256.65
798.01	688.6	3204.58
798.11	688.5	3154.42
798.21	688.4	3197.5
798.31	688.3	3166.63
798.41	688.2	3150.06
798.51	688.1	3015.34
798.61	688	3121.12
798.71	687.9	3212.76
798.81	687.8	3195.64
798.91	687.7	3135.07
799.01	687.6	3321.35
799.11	687.5	3232.23
799.21	687.4	3140.11
799.31	687.3	3262.04
799.41	687.2	3087.57
799.51	687.1	3192.85
799.61	687	3215.88
799.71	686.9	3194.91
799.81	686.8	3091.84
799.91	686.7	3171.42
800.01	686.6	3154.75
800.11	686.5	3220.98
800.21	686.4	3152.31
800.31	686.3	3229.34
800.41	686.2	3231.06
800.51	686.1	3306.44
800.61	686	3302.07
800.71	685.9	3331.85
800.81	685.8	3140.38
800.91	685.7	3199.81
801.01	685.6	3213.14
801.11	685.5	3116.71
801.21	685.4	3274.89
801.31	685.3	3213.12
801.41	685.2	3082.8
801.51	685.1	3123.62
801.61	685	3212.75
801.71	684.9	3274.78
801.81	684.8	3272.41
801.91	684.7	3213.38
802.01	684.6	3191.41
802.11	684.5	3177.44
802.21	684.4	3232.46
802.31	684.3	3153.54
802.41	684.2	3151.62
802.51	684.1	3259.04
802.61	684	3273.82
802.71	683.9	3337.8
802.81	683.8	3124.17
802.91	683.7	3257
803.01	683.6	3212.42
803.11	683.5	3168.55
803.21	683.4	3157.52
803.31	683.3	3227.45
803.41	683.2	3205.62
803.51	683.1	3293.8
803.61	683	3500.42
803.71	682.9	3276.2
803.81	682.8	3292.97
803.91	682.7	3261
804.01	682.6	3390.77
804.11	682.5	3288.6
804.21	682.4	3176.22
804.31	682.3	3106.95
804.41	682.2	3236.22
804.51	682.1	3242.09
804.61	682	3266.67
804.71	681.9	3228.79
804.81	681.8	3151.46
804.91	681.7	3114.24
805.01	681.6	3318.21
805.11	681.5	3296.58
805.21	681.4	3299.11
805.31	681.3	3201.73
805.41	681.2	3220.45
805.51	681.1	3321.92
805.61	681	3246.3
805.71	680.9	3352.97
805.81	680.8	3422.59
805.91	680.7	3242.26
806.01	680.6	3282.84
806.11	680.5	3410.76
806.21	680.4	3332.58
806.31	680.3	3338.75
806.41	680.2	3173.32
806.51	680.1	3199.99
806.61	680	3224.07
806.71	679.9	3270.49
806.81	679.8	3293.96
806.91	679.7	3278.98
807.01	679.6	3355.9
807.11	679.5	3392.27
807.21	679.4	3307.24
807.31	679.3	3251.41
807.41	679.2	3239.13
807.51	679.1	3371.8
807.61	679	3381.77
807.71	678.9	3187.64
807.81	678.8	3184.96
807.91	678.7	3281.58
808.01	678.6	3320.65
808.11	678.5	3305.02
808.21	678.4	3346.04
808.31	678.3	3306.31
808.41	678.2	3366.23
808.51	678.1	3279.1
808.61	678	3392.27
808.71	677.9	3428.34
808.81	677.8	3394.8
808.91	677.7	3330.37
809.01	677.6	3327.39
809.11	677.5	3278.61
809.21	677.4	3361.63
809.31	677.3	3262.5
809.41	677.2	3301.16
809.51	677.1	3348.68
809.61	677	3390.6
809.71	676.9	3374.27
809.81	676.8	3348.23
809.91	676.7	3327.2
810.01	676.6	3304.02
810.11	676.5	3231.64
810.21	676.4	3288.25
810.31	676.3	3276.97
810.41	676.2	3361.24
810.51	676.1	3363.2
810.61	676	3307.67
810.71	675.9	3316.94
810.81	675.8	3351.05
810.91	675.7	3204.22
811.01	675.6	3334.78
811.11	675.5	3438.25
811.21	675.4	3311.57
811.31	675.3	3245.13
811.41	675.2	3411.65
811.51	675.1	3332.46
811.61	675	3306.18
811.71	674.9	3209.89
811.81	674.8	3319.81
811.91	674.7	3436.67
812.01	674.6	3413.04
812.11	674.5	3276.65
812.21	674.4	3416.72
812.31	674.3	3307.68
812.41	674.2	3372.65
812.51	674.1	3368.51
812.61	674	3374.53
812.71	673.9	3343.69
812.81	673.8	3325.6
812.91	673.7	3437.42
813.01	673.6	3375.83
813.11	673.5	3310.3
813.21	673.4	3426.51
813.31	673.3	3310.67
813.41	673.2	3307.79
813.51	673.1	3303.85
813.61	673	3332.41
813.71	672.9	3358.53
813.81	672.8	3393.44
813.91	672.7	3440.25
814.01	672.6	3479.71
814.11	672.5	3434.43
814.21	672.4	3290.99
814.31	672.3	3267.4
814.41	672.2	3380.21
814.51	672.1	3603.53
814.61	672	3414.04
814.71	671.9	3403.95
814.81	671.8	3350.51
814.91	671.7	3427.27
815.01	671.6	3357.73
815.11	671.5	3307.15
815.21	671.4	3268.61
815.31	671.3	3471.77
815.41	671.2	3482.28
815.51	671.1	3465.34
815.61	671	3417.3
815.71	670.9	3512.16
815.81	670.8	3431.52
815.91	670.7	3546.58
816.01	670.6	3471.64
816.11	670.5	3461.9
816.21	670.4	3242.76
816.31	670.3	3399.27
816.41	670.2	3416.48
816.51	670.1	3374.84
816.61	670	3408.75
816.71	669.9	3338.21
816.81	669.8	3354.02
816.91	669.7	3470.48
817.01	669.6	3408.59
817.11	669.5	3391.95
817.21	669.4	3340.46
817.31	669.3	3363.02
817.41	669.2	3513.38
817.51	669.1	3552.99
817.61	669	3437.59
817.71	668.9	3445.95
817.81	668.8	3557.31
817.91	668.7	3489.67
818.01	668.6	3445.03
818.11	668.5	3462.44
818.21	668.4	3462.14
818.31	668.3	3505.05
818.41	668.2	3426.06
818.51	668.1	3368.37
818.61	668	3487.68
818.71	667.9	3456.98
818.81	667.8	3284.44
818.91	667.7	3394.25
819.01	667.6	3398.4
819.11	667.5	3402.21
819.21	667.4	3539.37
819.31	667.3	3438.92
819.41	667.2	3491.63
819.51	667.1	3496.59
819.61	667	3481.54
819.71	666.9	3431.8
819.81	666.8	3459.86
819.91	666.7	3468.56
820.01	666.6	3378.77
820.11	666.5	3461.73
820.21	666.4	3506.93
820.31	666.3	3432.74
820.41	666.2	3463.74
820.51	666.1	3408.3
820.61	666	3441.55
820.71	665.9	3380.96
820.81	665.8	3407.91
820.91	665.7	3447.52
821.01	665.6	3594.77
821.11	665.5	3471.53
821.21	665.4	3506.78
821.31	665.3	3519.79
821.41	665.2	3478.89
821.51	665.1	3513.4
821.61	665	3335.6
821.71	664.9	3408.96
821.81	664.8	3534.66
821.91	664.7	3341.36
822.01	664.6	3339.07
822.11	664.5	3485.52
822.21	664.4	3509.43
822.31	664.3	3621.38
822.41	664.2	3487.08
822.51	664.1	3404.79
822.61	664	3498.14
822.71	663.9	3453.64
822.81	663.8	3518.7
822.91	663.7	3478.25
823.01	663.6	3605.65
823.11	663.5	3564.85
823.21	663.4	3477.91
823.31	663.3	3399.76
823.41	663.2	3424.26
823.51	663.1	3493.31
823.61	663	3519.52
823.71	662.9	3620.37
823.81	662.8	3485.07
823.91	662.7	3480.67
824.01	662.6	3563.87
824.11	662.5	3582.23
824.21	662.4	3424.08
824.31	662.3	3615.28
824.41	662.2	3597.73
824.51	662.1	3589.53
824.61	662	3434.78
824.71	661.9	3424.68
824.81	661.8	3469.13
824.91	661.7	3566.94
825.01	661.6	3551.74
825.11	661.5	3578.39
825.21	661.4	3556.14
825.31	661.3	3526.54
825.41	661.2	3553.09
825.51	661.1	3425.44
825.61	661	3434.69
825.71	660.9	3432.79
825.81	660.8	3485.19
825.91	660.7	3592.29
826.01	660.6	3583.84
826.11	660.5	3652.99
826.21	660.4	3626.04
826.31	660.3	3494.79
826.41	660.2	3620.59
826.51	660.1	3491.24
826.61	660	3429.68
826.71	659.9	3498.73
826.81	659.8	3546.43
826.91	659.7	3676.58
827.01	659.6	3476.53
827.11	659.5	3558.33
827.21	659.4	3733.08
827.31	659.3	3541.58
827.41	659.2	3456.07
827.51	659.1	3507.52
827.61	659	3609.92
827.71	658.9	3544.37
827.81	658.8	3430.22
827.91	658.7	3496.41
828.01	658.6	3580.46
828.11	658.5	3669.61
828.21	658.4	3481.46
828.31	658.3	3502.16
828.41	658.2	3620.8
828.51	658.1	3644.45
828.61	658	3619.7
828.71	657.9	3500.94
828.81	657.8	3614.94
828.91	657.7	3547.84
829.01	657.6	3589.88
829.11	657.5	3564.18
829.21	657.4	3576.68
829.31	657.3	3572.77
829.41	657.2	3526.47
829.51	657.1	3578.42
829.61	657	3536.51
829.71	656.9	3656.06
829.81	656.8	3482.66
829.91	656.7	3508.25
830.01	656.6	3650.15
830.11	656.5	3602.29
830.21	656.4	3551.19
830.31	656.3	3705.88
830.41	656.2	3620.63
830.51	656.1	3656.57
830.61	656	3646.07
830.71	655.9	3546.61
830.81	655.8	3477.56
830.91	655.7	3471.05
831.01	655.6	3624.1
831.11	655.5	3638.29
831.21	655.4	3651.74
831.31	655.3	3556.93
831.41	655.2	3588.68
831.51	655.1	3484.92
831.61	655	3542.12
831.71	654.9	3664.46
831.81	654.8	3734.05
831.91	654.7	3742.2
832.01	654.6	3686.74
832.11	654.5	3590.19
832.21	654.4	3553.98
832.31	654.3	3503.77
832.41	654.2	3467.62
832.51	654.1	3607.16
832.61	654	3653.65
832.71	653.9	3592.95
832.81	653.8	3602.59
832.91	653.7	3696.58
833.01	653.6	3636.17
833.11	653.5	3677.97
833.21	653.4	3547.76
833.31	653.3	3629
833.41	653.2	3752.9
833.51	653.1	3765.99
833.61	653	3625.18
833.71	652.9	3758.52
833.81	652.8	3715.46
833.91	652.7	3804.86
834.01	652.6	3869.05
834.11	652.5	3627.74
834.21	652.4	3587.33
834.31	652.3	3745.97
834.41	652.2	3706.82
834.51	652.1	3855.06
834.61	652	3695.15
834.71	651.9	3650.39
834.81	651.8	3694.88
834.91	651.7	3770.47
835.01	651.6	3756.66
835.11	651.5	3849.1
835.21	651.4	3774.44
835.31	651.3	3869.64
835.41	651.2	3704.98
835.51	651.1	3805.02
835.61	651	3900.91
835.71	650.9	3762.6
835.81	650.8	3803.99
835.91	650.7	3749.33
836.01	650.6	3863.07
836.11	650.5	3867.71
836.21	650.4	3790.65
836.31	650.3	3897.64
836.41	650.2	4000.48
836.51	650.1	3854.87
836.61	650	3945.66
836.71	649.9	3942.7
836.81	649.8	3995.24
836.91	649.7	3916.12
837.01	649.6	3884.66
837.11	649.5	3953.5
837.21	649.4	3939.59
837.31	649.3	4015.18
837.41	649.2	4030.22
837.51	649.1	4007.11
837.61	649	4113.65
837.71	648.9	4058.49
837.81	648.8	4183.82
837.91	648.7	4052.41
838.01	648.6	4221.4
838.11	648.5	4088.09
838.21	648.4	4186.73
838.31	648.3	4101.81
838.41	648.2	4273.9
838.51	648.1	4197.89
838.61	648	4241.38
838.71	647.9	4202.92
838.81	647.8	4373.85
838.91	647.7	4323.99
839.01	647.6	4317.93
839.11	647.5	4332.57
839.21	647.4	4359.15
839.31	647.3	4385.29
839.41	647.2	4510.38
839.51	647.1	4508.36
839.61	647	4512.2
839.71	646.9	4364.39
839.81	646.8	4451.32
839.91	646.7	4654.41
840.01	646.6	4562.2
840.11	646.5	4568.68
840.21	646.4	4586.97
840.31	646.3	4560.31
840.41	646.2	4566.79
840.51	646.1	4592.28
840.61	646	4850.51
840.71	645.9	4764.6
840.81	645.8	4974.54
840.91	645.7	5003.77
841.01	645.6	4907.46
841.11	645.5	5088.44
841.21	645.4	5123.23
841.31	645.3	5063.16
841.41	645.2	5004.05
841.51	645.1	5071.03
841.61	645	5272.62
841.71	644.9	5125.95
841.81	644.8	5221.84
841.91	644.7	5204.12
842.01	644.6	5296.21
842.11	644.5	5355.04
842.21	644.4	5340.48
842.31	644.3	5538.66
842.41	644.2	5561.55
842.51	644.1	5479.33
842.61	644	5495.21
842.71	643.9	5513.55
842.81	643.8	5652.73
842.91	643.7	5601.82
843.01	643.6	5669.15
843.11	643.5	5610.33
843.21	643.4	5605.32
843.31	643.3	5791.55
843.41	643.2	5768.74
843.51	643.1	5709.17
843.61	643	5712.75
843.71	642.9	5713.54
843.81	642.8	5749.57
843.91	642.7	5724.7
844.01	642.6	5870.64
844.11	642.5	5799.57
844.21	642.4	5808.5
844.31	642.3	5761.63
844.41	642.2	5707.62
844.51	642.1	5681.2
844.61	642	5719.73
844.71	641.9	5596.11
844.81	641.8	5676.8
844.91	641.7	5678.13
845.01	641.6	5647.81
845.11	641.5	5608.49
845.21	641.4	5531.42
845.31	641.3	5338.06
845.41	641.2	5479.04
845.51	641.1	5434.77
845.61	641	5357.65
845.71	640.9	5399.73
845.81	640.8	5146.22
845.91	640.7	5156.6
846.01	640.6	5044.13
846.11	640.5	5135.51
846.21	640.4	5115.19
846.31	640.3	4903.32
846.41	640.2	4984.15
846.51	640.1	4866.83
846.61	640	4857.66
846.71	639.9	4775.35
846.81	639.8	4743.58
846.91	639.7	4802.86
847.01	639.6	4530.39
847.11	639.5	4578.97
847.21	639.4	4523.3
847.31	639.3	4563.18
847.41	639.2	4442.41
847.51	639.1	4375.49
847.61	639	4477.42
847.71	638.9	4330.6
847.81	638.8	4263.33
847.91	638.7	4370.16
848.01	638.6	4238.19
848.11	638.5	4281.17
848.21	638.4	4145.9
848.31	638.3	4128.63
848.41	638.2	4123.91
848.51	638.1	3968.99
848.61	638	3925.12
848.71	637.9	3942.19
848.81	637.8	3789.12
848.91	637.7	3920.5
849.01	637.6	3845.33
849.11	637.5	3886.51
849.21	637.4	3993.34
849.31	637.3	3850.37
849.41	637.2	3672.5
849.51	637.1	3554.08
849.61	637	3672.7
849.71	636.9	3668.18
849.81	636.8	3588.86
849.91	636.7	3736.19
850.01	636.6	3529.77
850.11	636.5	3458.49
850.21	636.4	3597.47
850.31	636.3	3577.75
850.41	636.2	3550.63
850.51	636.1	3465.81
850.61	636	3471.43
850.71	635.9	3522.91
850.81	635.8	3444.04
850.91	635.7	3476.12
851.01	635.6	3365.24
851.11	635.5	3344.27
851.21	635.4	3338.5
851.31	635.3	3304.58
851.41	635.2	3329.7
851.51	635.1	3320.43
851.61	635	3325.26
851.71	634.9	3261.53
851.81	634.8	3214.06
851.91	634.7	3274.59
852.01	634.6	3404.36
852.11	634.5	3378.89
852.21	634.4	3321.32
852.31	634.3	3243.44
852.41	634.2	3247.62
852.51	634.1	3295.35
852.61	634	3213.82
852.71	633.9	3224.05
852.81	633.8	3178.32
852.91	633.7	3236.7
853.01	633.6	3270.13
853.11	633.5	3198.3
853.21	633.4	3268.08
853.31	633.3	3318.1
853.41	633.2	3172.63
853.51	633.1	3083
853.61	633	3140.33
853.71	632.9	3207.1
853.81	632.8	3245.98
853.91	632.7	3154.1
854.01	632.6	3147.88
854.11	632.5	3060.4
854.21	632.4	3101.58
854.31	632.3	3158.95
854.41	632.2	3104.58
854.51	632.1	3156.3
854.61	632	3123.28
854.71	631.9	3049.85
854.81	631.8	3012.47
854.91	631.7	3012.9
855.01	631.6	2999.47
855.11	631.5	3147.19
855.21	631.4	2969.02
855.31	631.3	3075.34
855.41	631.2	3021.21
855.51	631.1	3142.54
855.61	631	3014.66
855.71	630.9	3071.88
855.81	630.8	3079.5
855.91	630.7	3007.12
856.01	630.6	3017.75
856.11	630.5	2945.02
856.21	630.4	3069.54
856.31	630.3	3071.06
856.41	630.2	3012.58
856.51	630.1	2961.6
856.61	630	2957.92
856.71	629.9	2847.94
856.81	629.8	2945.66
856.91	629.7	3044.63
857.01	629.6	2889.8
857.11	629.5	3052.07
857.21	629.4	2995.44
857.31	629.3	3013.01
857.41	629.2	2958.68
857.51	629.1	2969.4
857.61	629	3004.32
857.71	628.9	3125.54
857.81	628.8	3045.61
857.91	628.7	2955.72
858.01	628.6	3017.39
858.11	628.5	2926.66
858.21	628.4	2698.48
858.31	628.3	3004.34
858.41	628.2	3031.26
858.51	628.1	2849.07
858.61	628	3051.24
858.71	627.9	3075.36
858.81	627.8	2955.22
858.91	627.7	2970.94
859.01	627.6	3015.05
859.11	627.5	2747.32
859.21	627.4	2866.08
859.31	627.3	2879.49
859.41	627.2	2946.51
859.51	627.1	2847.87
859.61	627	2918.28
859.71	626.9	3058.85
859.81	626.8	2983.16
859.91	626.7	2880.92
860.01	626.6	2829.18
860.11	626.5	2840.39
860.21	626.4	2876.01
860.31	626.3	2927.72
860.41	626.2	2825.68
860.51	626.1	2762.19
860.61	626	2910.55
860.71	625.9	2953.36
860.81	625.8	2821.37
860.91	625.7	2856.97
861.01	625.6	2814.93
861.11	625.5	2932.24
861.21	625.4	3122.15
861.31	625.3	3014.21
861.41	625.2	2827.36
861.51	625.1	2941.02
861.61	625	2800.13
861.71	624.9	2901.73
861.81	624.8	2930.09
861.91	624.7	2894.64
862.01	624.6	2950.6
862.11	624.5	2995.45
862.21	624.4	2791.26
862.31	624.3	2991.11
862.41	624.2	2941.76
862.51	624.1	2836.42
862.61	624	2901.87
862.71	623.9	3024.97
862.81	623.8	3015.92
862.91	623.7	3024.82
863.01	623.6	2898.22
863.11	623.5	2848.82
863.21	623.4	2827.42
863.31	623.3	3001.57
863.41	623.2	2880.47
863.51	623.1	2883.32
863.61	623	2870.72
863.71	622.9	2890.37
863.81	622.8	2766.16
863.91	622.7	2830.41
864.01	622.6	2825.66
864.11	622.5	2735
864.21	622.4	2875.8
864.31	622.3	2888.09
864.41	622.2	2957.44
864.51	622.1	2956.53
864.61	622	2982.92
864.71	621.9	2954.87
864.81	621.8	2826.91
864.91	621.7	2864.05
865.01	621.6	2825.49
865.11	621.5	2887.73
865.21	621.4	2773.92
865.31	621.3	2834.06
865.41	621.2	2966.3
865.51	621.1	2886.94
865.61	621	3045.33
865.71	620.9	2991.22
865.81	620.8	2813.26
865.91	620.7	2844.09
866.01	620.6	2865.03
866.11	620.5	2833.17
866.21	620.4	3005.75
866.31	620.3	2993.19
866.41	620.2	3070.12
866.51	620.1	2946.65
866.61	620	2879.29
866.71	619.9	3054.67
866.81	619.8	3017.85
866.91	619.7	2998.78
867.01	619.6	2913.96
867.11	619.5	2991.34
867.21	619.4	2899.97
867.31	619.3	2943.05
867.41	619.2	2911.38
867.51	619.1	2973.56
867.61	619	3002.54
867.71	618.9	3059.27
867.81	618.8	3004.64
867.91	618.7	2822.87
868.01	618.6	2877.64
868.11	618.5	3027.62
868.21	618.4	2974.74
868.31	618.3	2847.72
868.41	618.2	2877.34
868.51	618.1	2987.21
868.61	618	2882.28
868.71	617.9	3004.15
868.81	617.8	2948.27
868.91	617.7	2926.64
869.01	617.6	3085.46
869.11	617.5	3042.13
869.21	617.4	2974.8
869.31	617.3	2985.87
869.41	617.2	2992.03
869.51	617.1	3073.7
869.61	617	2810.71
869.71	616.9	2874.83
869.81	616.8	3055.14
869.91	616.7	3054.51
870.01	616.6	2955.37
870.11	616.5	2990.38
870.21	616.4	2961.99
870.31	616.3	2874.6
870.41	616.2	2883.81
870.51	616.1	2964.27
870.61	616	2975.68
870.71	615.9	2941.39
870.81	615.8	3012.45
870.91	615.7	3021.85
871.01	615.6	2952.01
871.11	615.5	2936.26
871.21	615.4	2957.97
871.31	615.3	2938.22
871.41	615.2	2936.97
871.51	615.1	2955.48
871.61	615	3037.13
871.71	614.9	3017.03
871.81	614.8	2932.38
871.91	614.7	2829.93
872.01	614.6	2933.38
872.11	614.5	2972.23
872.21	614.4	3044.02
872.31	614.3	3067.52
872.41	614.2	2957.97
872.51	614.1	2970.91
872.61	614	3011.06
872.71	613.9	2927.8
872.81	613.8	2901.64
872.91	613.7	3069.63
873.01	613.6	2985.08
873.11	613.5	3008.37
873.21	613.4	2983.36
873.31	613.3	2996.04
873.41	613.2	2925.88
873.51	613.1	2877.22
873.61	613	2927.26
873.71	612.9	2889.84
873.81	612.8	2989.78
873.91	612.7	3057.96
874.01	612.6	2956.75
874.11	612.5	3006.83
874.21	612.4	3005.61
874.31	612.3	3052.69
874.41	612.2	3060.47
874.51	612.1	3077.95
874.61	612	2935.58
874.71	611.9	2864.56
874.81	611.8	2892.98
874.91	611.7	2995.86
875.01	611.6	2979.09
875.11	611.5	3041.81
875.21	611.4	3059.23
875.31	611.3	3047.16
875.41	611.2	2932.93
875.51	611.1	3082.95
875.61	611	3017.87
875.71	610.9	2875.04
875.81	610.8	2970.06
875.91	610.7	3040.18
876.01	610.6	2939.44
876.11	610.5	2935.51
876.21	610.4	2951.17
876.31	610.3	3087.44
876.41	610.2	3070.8
876.51	610.1	3005.81
876.61	610	2923.22
876.71	609.9	2993.54
876.81	609.8	3027.39
876.91	609.7	2986
877.01	609.6	2967.76
877.11	609.5	2933.07
877.21	609.4	3081.88
877.31	609.3	3056.58
877.41	609.2	2987.33
877.51	609.1	3010.54
877.61	609	2992.24
877.71	608.9	3075.79
877.81	608.8	2910.94
877.91	608.7	3053.69
878.01	608.6	3010.74
878.11	608.5	2960.44
878.21	608.4	3051.04
878.31	608.3	3052.73
878.41	608.2	2985.83
878.51	608.1	3006.62
878.61	608	3138.96
878.71	607.9	3068.36
878.81	607.8	3053.1
878.91	607.7	2919.19
879.01	607.6	2982.18
879.11	607.5	3034.92
879.21	607.4	2954.3
879.31	607.3	2874.49
879.41	607.2	3052.22
879.51	607.1	2967.51
879.61	607	3058.59
879.71	606.9	3067.17
879.81	606.8	3044.61
879.91	606.7	3034.94
880.01	606.6	2986.72
880.11	606.5	3027.74
880.21	606.4	2966.92
880.31	606.3	2969.55
880.41	606.2	2889.92
880.51	606.1	2953.1
880.61	606	3042.72
880.71	605.9	3110.39
880.81	605.8	2972.21
880.91	605.7	3055.53
881.01	605.6	3028.55
881.11	605.5	3143.72
881.21	605.4	3063.94
881.31	605.3	2914.75
881.41	605.2	2982.22
881.51	605.1	2984.48
881.61	605	3029.7
881.71	604.9	3035.16
881.81	604.8	2961.77
881.91	604.7	2995.18
882.01	604.6	3007.14
882.11	604.5	2989.14
882.21	604.4	3034.85
882.31	604.3	3073.16
882.41	604.2	3003.81
882.51	604.1	3071.61
882.61	604	3139.37
882.71	603.9	3033.57
882.81	603.8	2975.32
882.91	603.7	3027.67
883.01	603.6	2953.21
883.11	603.5	3043.66
883.21	603.4	3167.36
883.31	603.3	3062.5
883.41	603.2	3096.09
883.51	603.1	2985.29
883.61	603	3124.63
883.71	602.9	3031.67
883.81	602.8	2982.51
883.91	602.7	3135.54
884.01	602.6	3175.73
884.11	602.5	3087.96
884.21	602.4	3007.65
884.31	602.3	3048.83
884.41	602.2	3029.36
884.51	602.1	3173.94
884.61	602	3171.27
884.71	601.9	3083.85
884.81	601.8	2968.78
884.91	601.7	3247.66
885.01	601.6	3119.08
885.11	601.5	3051
885.21	601.4	3043.38
885.31	601.3	3147.65
885.41	601.2	3124.67
885.51	601.1	3102.94
885.61	601	3099.46
885.71	600.9	3067.42
885.81	600.8	2955.94
885.91	600.7	3135.4
886.01	600.6	3220.46
886.11	600.5	3155.68
886.21	600.4	3180.99
886.31	600.3	3210.5
886.41	600.2	3087.8
886.51	600.1	2940.61
886.61	600	3046.07
886.71	599.9	3028.37
886.81	599.8	3045.82
886.91	599.7	3168.78
887.01	599.6	3136.28
887.11	599.5	3093.28
887.21	599.4	3203.68
887.31	599.3	3066.22
887.41	599.2	3100.22
887.51	599.1	3150.31
887.61	599	3210.76
887.71	598.9	3274.95
887.81	598.8	2983.14
887.91	598.7	3110.13
888.01	598.6	3180.92
888.11	598.5	3148.65
888.21	598.4	3024.09
888.31	598.3	3133.32
888.41	598.2	3157.76
888.51	598.1	3260.69
888.61	598	3087.77
888.71	597.9	3183.95
888.81	597.8	3195.37
888.91	597.7	3105.85
889.01	597.6	3020.53
889.11	597.5	3022
889.21	597.4	3112.32
889.31	597.3	3071.24
889.41	597.2	3215.06
889.51	597.1	3181.13
889.61	597	3150.3
889.71	596.9	3149.57
889.81	596.8	3111.13
889.91	596.7	3130.34
890.01	596.6	3058.1
890.11	596.5	3179.22
890.21	596.4	3098.77
890.31	596.3	3188.48
890.41	596.2	3105.74
890.51	596.1	3033.34
890.61	596	3079.3
890.71	595.9	3048.2
890.81	595.8	3169.1
890.91	595.7	3147.35
891.01	595.6	3156.9
891.11	595.5	3148.35
891.21	595.4	3121.39
891.31	595.3	3134.79
891.41	595.2	3171.53
891.51	595.1	3144.02
891.61	595	3177.46
891.71	594.9	3300.6
891.81	594.8	3108.59
891.91	594.7	3148.22
892.01	594.6	3142.86
892.11	594.5	3147.84
892.21	594.4	3231.42
892.31	594.3	3370.8
892.41	594.2	3153.73
892.51	594.1	3282.81
892.61	594	3200.03
892.71	593.9	3201.11
892.81	593.8	3171.48
892.91	593.7	3161.1
893.01	593.6	3233.97
893.11	593.5	3090.94
893.21	593.4	3169.2
893.31	593.3	3289.72
893.41	593.2	3232.43
893.51	593.1	3162.45
893.61	593	3206.11
893.71	592.9	3177.92
893.81	592.8	3169.58
893.91	592.7	3128.88
894.01	592.6	3210.69
894.11	592.5	3207.44
894.21	592.4	3152.94
894.31	592.3	3219.05
894.41	592.2	3191.05
894.51	592.1	3212.59
894.61	592	3302.09
894.71	591.9	3157.98
894.81	591.8	3244.98
894.91	591.7	3214.97
895.01	591.6	3272.51
895.11	591.5	3186.6
895.21	591.4	3275.14
895.31	591.3	3313.62
895.41	591.2	3126.71
895.51	591.1	3247.64
895.61	591	3278.42
895.71	590.9	3280.1
895.81	590.8	3324.43
895.91	590.7	3374.8
896.01	590.6	3341.63
896.11	590.5	3364.6
896.21	590.4	3143.87
896.31	590.3	3355.09
896.41	590.2	3370.61
896.51	590.1	3406.68
896.61	590	3227.65
896.71	589.9	3258.51
896.81	589.8	3166.22
896.91	589.7	3136.68
897.01	589.6	3274.09
897.11	589.5	3217.35
897.21	589.4	3121.76
897.31	589.3	3221.41
897.41	589.2	3235.46
897.51	589.1	3244.02
897.61	589	3241.91
897.71	588.9	3214.01
897.81	588.8	3230.31
897.91	588.7	3358.9
898.01	588.6	3333.2
898.11	588.5	3250.59
898.21	588.4	3277.58
898.31	588.3	3276.12
898.41	588.2	3284.6
898.51	588.1	3344.94
898.61	588	3311.87
898.71	587.9	3315.9
898.81	587.8	3313.03
898.91	587.7	3324.56
899.01	587.6	3251.64
899.11	587.5	3257.72
899.21	587.4	3340.54
899.31	587.3	3313.91
899.41	587.2	3295.58
899.51	587.1	3407.5
899.61	587	3259.17
899.71	586.9	3281.38
899.81	586.8	3396.5
899.91	586.7	3390.61
900.01	586.6	3534.67
900.11	586.5	3441.18
900.21	586.4	3444.18
900.31	586.3	3383.94
900.41	586.2	3294.04
900.51	586.1	3339.94
900.61	586	3324.34
900.71	585.9	3331.79
900.81	585.8	3483.84
900.91	585.7	3489.63
901.01	585.6	3431.38
901.11	585.5	3476.07
901.21	585.4	3375.36
901.31	585.3	3293.75
901.41	585.2	3382.68
901.51	585.1	3336.52
901.61	585	3402.3
901.71	584.9	3380.48
901.81	584.8	3541.06
901.91	584.7	3523.49
902.01	584.6	3335.81
902.11	584.5	3390.69
902.21	584.4	3511.91
902.31	584.3	3421.68
902.41	584.2	3359.55
902.51	584.1	3394.76
902.61	584	3499.83
902.71	583.9	3403.64
902.81	583.8	3492.75
902.91	583.7	3345.76
903.01	583.6	3278.82
903.11	583.5	3343.93
903.21	583.4	3425.53
903.31	583.3	3329.14
903.41	583.2	3429.94
903.51	583.1	3435.99
903.61	583	3383.88
903.71	582.9	3410.78
903.81	582.8	3365.52
903.91	582.7	3437.26
904.01	582.6	3307.55
904.11	582.5	3524.49
904.21	582.4	3449.43
904.31	582.3	3404.31
904.41	582.2	3362.4
904.51	582.1	3500.13
904.61	582	3486.95
904.71	581.9	3507.53
904.81	581.8	3566.26
904.91	581.7	3445.03
905.01	581.6	3455.45
905.11	581.5	3462.67
905.21	581.4	3418.34
905.31	581.3	3380.96
905.41	581.2	3527.97
905.51	581.1	3558.28
905.61	581	3556.54
905.71	580.9	3609.45
905.81	580.8	3514.41
905.91	580.7	3503.41
906.01	580.6	3583.56
906.11	580.5	3494.37
906.21	580.4	3365.31
906.31	580.3	3612.61
906.41	580.2	3509.86
906.51	580.1	3454.85
906.61	580	3595.29
906.71	579.9	3502.13
906.81	579.8	3506.62
906.91	579.7	3472.8
907.01	579.6	3529.54
907.11	579.5	3444.82
907.21	579.4	3512.4
907.31	579.3	3556.03
907.41	579.2	3488.65
907.51	579.1	3577.33
907.61	579	3550.25
907.71	578.9	3623.17
907.81	578.8	3619.99
907.91	578.7	3496
908.01	578.6	3410.62
908.11	578.5	3666.58
908.21	578.4	3717.54
908.31	578.3	3656.3
908.41	578.2	3661.6
908.51	578.1	3597.41
908.61	578	3558.76
908.71	577.9	3403.16
908.81	577.8	3433.41
908.91	577.7	3416.76
909.01	577.6	3457.4
909.11	577.5	3609.39
909.21	577.4	3618.03
909.31	577.3	3549.37
909.41	577.2	3634.01
909.51	577.1	3616.89
909.61	577	3555.08
909.71	576.9	3511.71
909.81	576.8	3506.83
909.91	576.7	3703.71
910.01	576.6	3674.48
910.11	576.5	3722.71
910.21	576.4	3599.93
910.31	576.3	3596.9
910.41	576.2	3656.76
910.51	576.1	3523.43
910.61	576	3603.79
910.71	575.9	3591.7
910.81	575.8	3615.31
910.91	575.7	3522.86
911.01	575.6	3455.22
911.11	575.5	3599.82
911.21	575.4	3489.27
911.31	575.3	3546.61
911.41	575.2	3627.91
911.51	575.1	3638.4
911.61	575	3559.8
911.71	574.9	3589.23
911.81	574.8	3613.52
911.91	574.7	3649.51
912.01	574.6	3518.34
912.11	574.5	3567.42
912.21	574.4	3680.85
912.31	574.3	3583.28
912.41	574.2	3573.9
912.51	574.1	3627.32
912.61	574	3606.44
912.71	573.9	3537.76
912.81	573.8	3410.03
912.91	573.7	3569.19
913.01	573.6	3724.2
913.11	573.5	3653.26
913.21	573.4	3670.47
913.31	573.3	3492.18
913.41	573.2	3594.58
913.51	573.1	3637.88
913.61	573	3633.58
913.71	572.9	3600.98
913.81	572.8	3653.97
913.91	572.7	3596.61
914.01	572.6	3713.71
914.11	572.5	3715.19
914.21	572.4	3721.23
914.31	572.3	3707.96
914.41	572.2	3657.34
914.51	572.1	3669.22
914.61	572	3632.3
914.71	571.9	3653.28
914.81	571.8	3752
914.91	571.7	3643.62
915.01	571.6	3627.69
915.11	571.5	3682.81
915.21	571.4	3594.82
915.31	571.3	3696.73
915.41	571.2	3676.54
915.51	571.1	3667.95
915.61	571	3777.5
915.71	570.9	3809.61
915.81	570.8	3565.01
915.91	570.7	3575.86
916.01	570.6	3593.2
916.11	570.5	3560.9
916.21	570.4	3565.84
916.31	570.3	3554.08
916.41	570.2	3659.17
916.51	570.1	3707.25
916.61	570	3514.53
916.71	569.9	3531.01
916.81	569.8	3621.04
916.91	569.7	3743.32
917.01	569.6	3589.29
917.11	569.5	3714.26
917.21	569.4	3741.68
917.31	569.3	3513.8
917.41	569.2	3568.52
917.51	569.1	3617.28
917.61	569	3603.89
917.71	568.9	3634
917.81	568.8	3690.15
917.91	568.7	3549.25
918.01	568.6	3492.26
918.11	568.5	3647.15
918.21	568.4	3675.45
918.31	568.3	3588.45
918.41	568.2	3568.79
918.51	568.1	3499.43
918.61	568	3751.21
918.71	567.9	3725.65
918.81	567.8	3645.23
918.91	567.7	3638.31
919.01	567.6	3575.79
919.11	567.5	3628.66
919.21	567.4	3506.49
919.31	567.3	3592.86
919.41	567.2	3711.13
919.51	567.1	3706.64
919.61	567	3674.41
919.71	566.9	3571.92
919.81	566.8	3562.83
919.91	566.7	3492.79
920.01	566.6	3550.39
920.11	566.5	3463.75
920.21	566.4	3540.85
920.31	566.3	3675.15
920.41	566.2	3619.39
920.51	566.1	3578.49
920.61	566	3548.38
920.71	565.9	3626.57
920.81	565.8	3633.26
920.91	565.7	3709.64
921.01	565.6	3728.87
921.11	565.5	3666.25
921.21	565.4	3676.53
921.31	565.3	3590.71
921.41	565.2	3563.03
921.51	565.1	3616.21
921.61	565	3650.18
921.71	564.9	3632.89
921.81	564.8	3511.66
921.91	564.7	3541.07
922.01	564.6	3662.03
922.11	564.5	3548.34
922.21	564.4	3633.15
922.31	564.3	3634
922.41	564.2	3662.05
922.51	564.1	3654.4
922.61	564	3569.2
922.71	563.9	3675.9
922.81	563.8	3640.14
922.91	563.7	3586.33
923.01	563.6	3800.42
923.11	563.5	3757.46
923.21	563.4	3731.05
923.31	563.3	3605.73
923.41	563.2	3618.61
923.51	563.1	3711.99
923.61	563	3646.51
923.71	562.9	3475.79
923.81	562.8	3579.11
923.91	562.7	3767.03
924.01	562.6	3715.15
924.11	562.5	3612.72
924.21	562.4	3642.38
924.31	562.3	3591.24
924.41	562.2	3562.2
924.51	562.1	3625.76
924.61	562	3750.66
924.71	561.9	3788.32
924.81	561.8	3743.02
924.91	561.7	3695.72
925.01	561.6	3618.97
925.11	561.5	3610.61
925.21	561.4	3661.6
925.31	561.3	3592.29
925.41	561.2	3488.18
925.51	561.1	3692.77
925.61	561	3771.36
925.71	560.9	3711.44
925.81	560.8	3737.77
925.91	560.7	3617.35
926.01	560.6	3775.62
926.11	560.5	3785.25
926.21	560.4	3731.27
926.31	560.3	3688.89
926.41	560.2	3664.21
926.51	560.1	3768.98
926.61	560	3723.54
926.71	559.9	3712.7
926.81	559.8	3698.11
926.91	559.7	3755.62
927.01	559.6	3756.58
927.11	559.5	3785.43
927.21	559.4	3796.94
927.31	559.3	3670.74
927.41	559.2	3717.04
927.51	559.1	3651.28
927.61	559	3761.33
927.71	558.9	3829.87
927.81	558.8	3836.81
927.91	558.7	3791.7
928.01	558.6	3740.18
928.11	558.5	3912.97
928.21	558.4	3856.5
928.31	558.3	3889.33
928.41	558.2	3813.11
928.51	558.1	3810.74
928.61	558	3749.36
928.71	557.9	3668.69
928.81	557.8	3692.86
928.91	557.7	3830.93
929.01	557.6	3923.54
929.11	557.5	3865.71
929.21	557.4	3695.47
929.31	557.3	3867.58
929.41	557.2	3852.74
929.51	557.1	3738.5
929.61	557	3918
929.71	556.9	3860.76
929.81	556.8	3912.11
929.91	556.7	3866.56
930.01	556.6	3894.91
930.11	556.5	3823.4
930.21	556.4	3842.55
930.31	556.3	3823.29
930.41	556.2	3888.58
930.51	556.1	3913.32
930.61	556	4022.31
930.71	555.9	4007.64
930.81	555.8	4073.27
930.91	555.7	3903.7
931.01	555.6	3743.93
931.11	555.5	3874.56
931.21	555.4	4031.89
931.31	555.3	3992.61
931.41	555.2	4112.33
931.51	555.1	3995.35
931.61	555	4037.92
931.71	554.9	4060.39
931.81	554.8	4130.35
931.91	554.7	4221.66
932.01	554.6	4164.12
932.11	554.5	4174.63
932.21	554.4	4074.09
932.31	554.3	4174.09
932.41	554.2	4125.2
932.51	554.1	4241.95
932.61	554	4157.85
932.71	553.9	4262.8
932.81	553.8	4283.44
932.91	553.7	4168.79
933.01	553.6	4437.43
933.11	553.5	4396.57
933.21	553.4	4434.96
933.31	553.3	4524
933.41	553.2	4538.08
933.51	553.1	4458.62
933.61	553	4365.3
933.71	552.9	4601.63
933.81	552.8	4676.96
933.91	552.7	4570.28
934.01	552.6	4651.01
934.11	552.5	4680.83
934.21	552.4	4744.1
934.31	552.3	4750.12
934.41	552.2	4895.29
934.51	552.1	4999.26
934.61	552	4999.12
934.71	551.9	5148.33
934.81	551.8	5152.09
934.91	551.7	5188.3
935.01	551.6	5346.61
935.11	551.5	5394.12
935.21	551.4	5455.87
935.31	551.3	5570.82
935.41	551.2	5538.82
935.51	551.1	5514.17
935.61	551	5609.07
935.71	550.9	5660.97
935.81	550.8	5908.66
935.91	550.7	6023.2
936.01	550.6	6132.04
936.11	550.5	6317.98
936.21	550.4	6303.77
936.31	550.3	6401.65
936.41	550.2	6516.64
936.51	550.1	6682.72
936.61	550	6803.25
936.71	549.9	7021.43
936.81	549.8	7144.76
936.91	549.7	7279.53
937.01	549.6	7410.06
937.11	549.5	7659.08
937.21	549.4	7672.95
937.31	549.3	8031.72
937.41	549.2	8155.88
937.51	549.1	8362.2
937.61	549	8580.61
937.71	548.9	8870.98
937.81	548.8	9017.39
937.91	548.7	9330.15
938.01	548.6	9490.05
938.11	548.5	9775.46
938.21	548.4	9941.96
938.31	548.3	10202.4
938.41	548.2	10363.7
938.51	548.1	10866.6
938.61	548	11064.7
938.71	547.9	11155.8
938.81	547.8	11455
938.91	547.7	11633.9
939.01	547.6	11793.9
939.11	547.5	12108.4
939.21	547.4	12233.5
939.31	547.3	12638.6
939.41	547.2	12873.9
939.51	547.1	13028.4
939.61	547	13188.7
939.71	546.9	13486.1
939.81	546.8	13406.4
939.91	546.7	13540.8
940.01	546.6	13450.9
940.11	546.5	13511.5
940.21	546.4	13331.4
940.31	546.3	13231.4
940.41	546.2	13301.8
940.51	546.1	13125.9
940.61	546	12995.1
940.71	545.9	12771.1
940.81	545.8	12613.6
940.91	545.7	12423.1
941.01	545.6	12208.6
941.11	545.5	11921
941.21	545.4	11565.1
941.31	545.3	11443.6
941.41	545.2	11054.9
941.51	545.1	10711.9
941.61	545	10548
941.71	544.9	10016.7
941.81	544.8	9680.22
941.91	544.7	9605.87
942.01	544.6	9251.27
942.11	544.5	8857.01
942.21	544.4	8620.85
942.31	544.3	8322.79
942.41	544.2	7883.58
942.51	544.1	7683.97
942.61	544	7567.36
942.71	543.9	7303.94
942.81	543.8	7036.28
942.91	543.7	6851.16
943.01	543.6	6478.44
943.11	543.5	6148.12
943.21	543.4	6114.1
943.31	543.3	5909.73
943.41	543.2	5793.4
943.51	543.1	5402.23
943.61	543	5330.4
943.71	542.9	5092.47
943.81	542.8	5064.04
943.91	542.7	4914.96
944.01	542.6	4823.33
944.11	542.5	4501.69
944.21	542.4	4406.36
944.31	542.3	4334.42
944.41	542.2	4182.98
944.51	542.1	4064.29
944.61	542	3924.8
944.71	541.9	3742.2
944.81	541.8	3565.51
944.91	541.7	3573.67
945.01	541.6	3600.32
945.11	541.5	3447.87
945.21	541.4	3235.17
945.31	541.3	3283.47
945.41	541.2	3106.77
945.51	541.1	3012.26
945.61	541	2949.66
945.71	540.9	2964.8
945.81	540.8	2998.54
945.91	540.7	2909.88
946.01	540.6	2775.52
946.11	540.5	2605.46
946.21	540.4	2404.5
946.31	540.3	2365.94
946.41	540.2	2446.47
946.51	540.1	2249.45
946.61	540	2275.58
946.71	539.9	2344.91
946.81	539.8	2163.89
946.91	539.7	2093.47
947.01	539.6	2005.2
947.11	539.5	1964.52
947.21	539.4	2034.45
947.31	539.3	2086.52
947.41	539.2	2000.14
947.51	539.1	1875.41
947.61	539	1853.28
947.71	538.9	1975.55
947.81	538.8	1996.21
947.91	538.7	1829.98
948.01	538.6	1715.74
948.11	538.5	1594.5
948.21	538.4	1690.06
948.31	538.3	1829.97
948.41	538.2	1696.68
948.51	538.1	1571.34
948.61	538	1558.85
948.71	537.9	1472.65
948.81	537.8	1552.01
948.91	537.7	1501.01
949.01	537.6	1386.26
949.11	537.5	1335.41
949.21	537.4	1397.96
949.31	537.3	1350.7
949.41	537.2	1386.15
949.51	537.1	1305.15
949.61	537	1291.14
949.71	536.9	1328.23
949.81	536.8	1271.37
949.91	536.7	1230.41
950.01	536.6	1199.2
950.11	536.5	1223.89
950.21	536.4	1149.48
950.31	536.3	1179.21
950.41	536.2	1288.35
950.51	536.1	1189.18
950.61	536	1023.01
950.71	535.9	1159.14
950.81	535.8	1106.32
950.91	535.7	1140.65
951.01	535.6	1053.63
951.11	535.5	1109.01
951.21	535.4	1068.83
951.31	535.3	969.355
951.41	535.2	1062.43
951.51	535.1	1087.6
951.61	535	1109.32
951.71	534.9	974.889
951.81	534.8	948.857
951.91	534.7	1066.82
952.01	534.6	896.891
952.11	534.5	908.755
952.21	534.4	940.569
952.31	534.3	1027.73
952.41	534.2	974.693
952.51	534.1	1044.9
952.61	534	1020.21
952.71	533.9	1044.77
952.81	533.8	1070.68
952.91	533.7	1020.93
953.01	533.6	1003.64
953.11	533.5	1134.54
953.21	533.4	1159.65
953.31	533.3	1032.7
953.41	533.2	1027.55
953.51	533.1	1064.65
953.61	533	971.796
953.71	532.9	1102.34
953.81	532.8	1128.74
953.91	532.7	1121.39
954.01	532.6	1126.73
954.11	532.5	1205.47
954.21	532.4	1093.37
954.31	532.3	1078.41
954.41	532.2	1039.75
954.51	532.1	994.036
954.61	532	968.224
954.71	531.9	832.011
954.81	531.8	903.247
954.91	531.7	936.782
955.01	531.6	963.366
955.11	531.5	826.698
955.21	531.4	734.73
955.31	531.3	655.361
955.41	531.2	876.641
955.51	531.1	795.37
955.61	531	749.698
955.71	530.9	648.175
955.81	530.8	579.001
955.91	530.7	595.876
956.01	530.6	640.95
956.11	530.5	645.723
956.21	530.4	661.595
956.31	530.3	510.266
956.41	530.2	563.586
956.51	530.1	596.005
956.61	530	569.373
956.71	529.9	490.641
956.81	529.8	502.707
956.91	529.7	497.472
957.01	529.6	551.786
957.11	529.5	616.15
957.21	529.4	530.812
957.31	529.3	518.874
957.41	529.2	571.684
957.51	529.1	469.544
957.61	529	657.903
957.71	528.9	596.861
957.81	528.8	503.168
957.91	528.7	581.574
958.01	528.6	634.279
958.11	528.5	508.583
958.21	528.4	515.686
958.31	528.3	389.539
958.41	528.2	437.19
958.51	528.1	476.941
958.61	528	420.29
958.71	527.9	424.689
958.81	527.8	411.087
958.91	527.7	484.334
959.01	527.6	438.53
959.11	527.5	444.376
959.21	527.4	413.87
959.31	527.3	405.164
959.41	527.2	507.756
959.51	527.1	370.348
959.61	527	372.039
959.71	526.9	434.729
959.81	526.8	456.569
959.91	526.7	265.457
960.01	526.6	331.345
960.11	526.5	311.082
960.21	526.4	367.068
960.31	526.3	435.253
960.41	526.2	400.037
960.51	526.1	443.82
960.61	526	453.853
960.71	525.9	465.635
960.81	525.8	465.016
960.91	525.7	478.896
961.01	525.6	347.676
961.11	525.5	352.654
961.21	525.4	437.582
961.31	525.3	433.259
961.41	525.2	332.535
961.51	525.1	339.811
961.61	525	312.385
961.71	524.9	456.009
961.81	524.8	334.332
961.91	524.7	428.305
962.01	524.6	372.076
962.11	524.5	383.397
962.21	524.4	363.767
962.31	524.3	294.736
962.41	524.2	363.055
962.51	524.1	307.173
962.61	524	286.49
962.71	523.9	359.606
962.81	523.8	330.872
962.91	523.7	430.136
963.01	523.6	365.95
963.11	523.5	278.564
963.21	523.4	333.976
963.31	523.3	300.388
963.41	523.2	429.549
963.51	523.1	443.36
963.61	523	274.27
963.71	522.9	313.179
963.81	522.8	307.587
963.91	522.7	316.895
964.01	522.6	353.851
964.11	522.5	376.758
964.21	522.4	294.063
964.31	522.3	337.568
964.41	522.2	328.322
964.51	522.1	246.626
964.61	522	193.828
964.71	521.9	279.031
964.81	521.8	341.882
964.91	521.7	328.533
965.01	521.6	358.733
965.11	521.5	293.432
965.21	521.4	214.781
965.31	521.3	364.229
965.41	521.2	288.327
965.51	521.1	336.124
965.61	521	381.17
965.71	520.9	414.365
965.81	520.8	344.61
965.91	520.7	271.255
966.01	520.6	295.548
966.11	520.5	157.541
966.21	520.4	220.934
966.31	520.3	258.326
966.41	520.2	138.167
966.51	520.1	157.557
966.61	520	299.697
966.71	519.9	258.787
966.81	519.8	297.926
966.91	519.7	316.564
967.01	519.6	287.401
967.11	519.5	360.238
967.21	519.4	246.775
967.31	519.3	114.261
967.41	519.2	174.646
967.51	519.1	133.831
967.61	519	246.765
967.71	518.9	208.848
967.81	518.8	290.381
967.91	518.7	210.364
968.01	518.6	345.395
968.11	518.5	174.777
968.21	518.4	391.158
968.31	518.3	371.288
968.41	518.2	223.517
968.51	518.1	275.646
968.61	518	186.625
968.71	517.9	172.253
968.81	517.8	286.931
968.91	517.7	256.258
969.01	517.6	133.234
969.11	517.5	199.66
969.21	517.4	265.186
969.31	517.3	232.81
969.41	517.2	201.935
969.51	517.1	145.009
969.61	517	168.932
969.71	516.9	230.855
969.81	516.8	215.778
969.91	516.7	158.349
970.01	516.6	231.971
970.11	516.5	323.992
970.21	516.4	148.262
970.31	516.3	214.982
970.41	516.2	151.652
970.51	516.1	61.3709
970.61	516	222.239
970.71	515.9	43.6076
970.81	515.8	146.925
970.91	515.7	207.543
971.01	515.6	81.4093
971.11	515.5	227.376
971.21	515.4	321.091
971.31	515.3	256.407
971.41	515.2	182.772
971.51	515.1	240.386
971.61	515	201.451
971.71	514.9	191.664
971.81	514.8	222.478
971.91	514.7	283.74
972.01	514.6	223.703
972.11	514.5	158.215
972.21	514.4	179.527
972.31	514.3	197.588
972.41	514.2	67.1985
972.51	514.1	110.709
972.61	514	145.069
972.71	513.9	77.9286
972.81	513.8	70.2378
972.91	513.7	190.297
973.01	513.6	51.1552
973.11	513.5	164.713
973.21	513.4	200.421
973.31	513.3	184.728
973.41	513.2	218.285
973.51	513.1	214.592
973.61	513	190.548
973.71	512.9	116.304
973.81	512.8	146.76
973.91	512.7	245.865
974.01	512.6	180.17
974.11	512.5	238.574
974.21	512.4	277.428
974.31	512.3	194.082
974.41	512.2	164.086
974.51	512.1	180.239
974.61	512	221.642
974.71	511.9	119.894
974.81	511.8	194.496
974.91	511.7	203.598
975.01	511.6	222.45
975.11	511.5	185.601
975.21	511.4	183.202
975.31	511.3	100.803
975.41	511.2	345.303
975.51	511.1	264.303
975.61	511	136.903
975.71	510.9	14.3027
975.81	510.8	157.952
975.91	510.7	140.251
976.01	510.6	-29.1505
976.11	510.5	-28.3521
976.21	510.4	14.3961
976.31	510.3	340.544
976.41	510.2	181.242
976.51	510.1	110.289
976.61	510	172.736
976.71	509.9	326.733
976.81	509.8	164.229
976.91	509.7	212.526
977.01	509.6	164.822
977.11	509.5	120.218
977.21	509.4	138.963
977.31	509.3	125.009
977.41	509.2	155.554
977.51	509.1	29.0491
977.61	509	86.4438
977.71	508.9	144.438
977.81	508.8	163.233
977.91	508.7	81.9268
978.01	508.6	68.8207
978.11	508.5	102.814
978.21	508.4	86.8579
978.31	508.3	47.9012
978.41	508.2	125.844
978.51	508.1	27.1873
978.61	508	67.2301
978.71	507.9	102.073
978.81	507.8	75.265
978.91	507.7	194.657
979.01	507.6	201.399
979.11	507.5	69.6912
979.21	507.4	57.6329
979.31	507.3	138.875
979.41	507.2	110.416
979.51	507.1	133.807
979.61	507	270.148
979.71	506.9	221.989
979.81	506.8	102.83
979.91	506.7	43.5708
980.01	506.6	142.261
980.11	506.5	195.102
980.21	506.4	44.4921
980.31	506.3	209.682
980.41	506.2	119.122
980.51	506.1	88.9123
980.61	506	50.3021
980.71	505.9	146.192
980.81	505.8	148.581
980.91	505.7	66.8709
981.01	505.6	55.8104
981.11	505.5	57.5497
981.21	505.4	81.4889
981.31	505.3	145.628
981.41	505.2	121.217
981.51	505.1	132.306
981.61	505	187.045
981.71	504.9	160.134
981.81	504.8	121.423
981.91	504.7	66.7112
982.01	504.6	21.4498
982.11	504.5	135.488
982.21	504.4	195.427
982.31	504.3	155.665
982.41	504.2	71.8537
982.51	504.1	47.9921
982.61	504	122.58
982.71	503.9	132.869
982.81	503.8	210.507
982.91	503.7	83.1951
983.01	503.6	-40.0167
983.11	503.5	61.4214
983.21	503.4	-22.3905
983.31	503.3	155.848
983.41	503.2	53.0358
983.51	503.1	64.3738
983.61	503	-36.4881
983.71	502.9	0
983.81	502.8	0
983.91	502.7	0
984.01	502.6	0
984.11	502.5	0
984.21	502.4	0
984.31	502.3	0
984.41	502.2	0
984.51	502.1	0
984.61	502	0
984.71	501.9	0
984.81	501.8	0
984.91	501.7	0
985.01	501.6	0
985.11	501.5	0
985.21	501.4	0
985.31	501.3	0
985.41	501.2	0
985.51	501.1	0
985.61	501	0
985.71	500.9	0
985.81	500.8	0
985.91	500.7	0
986.01	500.6	0
986.11	500.5	0
986.21	500.4	0
986.31	500.3	0
986.41	500.2	0
986.51	500.1	0
986.61	500	0