c:\users\mark\owncloud\muelheim group\projects\gas phase background\ex340_cec356_au he largearea.vms
Pr:Au4p
	Characteristic Energy eV	1486.61	Acquisition Time s	3
KE_Pr:Au4p	BE_Pr:Au4p	CPS_Pr:Au4p
656.61	830	2642.15
656.71	829.9	2575.81
656.81	829.8	2595.91
656.91	829.7	2549.34
657.01	829.6	2522.1
657.11	829.5	2576.79
657.21	829.4	2524.59
657.31	829.3	2586.75
657.41	829.2	2570.88
657.51	829.1	2547.78
657.61	829	2627.54
657.71	828.9	2622.07
657.81	828.8	2579.1
657.91	828.7	2605.53
658.01	828.6	2588.29
658.11	828.5	2557.86
658.21	828.4	2540.39
658.31	828.3	2603.82
658.41	828.2	2567.88
658.51	828.1	2539.78
658.61	828	2628.44
658.71	827.9	2522.37
658.81	827.8	2562.16
658.91	827.7	2616.56
659.01	827.6	2567.42
659.11	827.5	2599.09
659.21	827.4	2524.55
659.31	827.3	2593.58
659.41	827.2	2590.57
659.51	827.1	2629.4
659.61	827	2680.4
659.71	826.9	2642.5
659.81	826.8	2555.53
659.91	826.7	2518.42
660.01	826.6	2560.05
660.11	826.5	2548.85
660.21	826.4	2602.18
660.31	826.3	2569.04
660.41	826.2	2652.6
660.51	826.1	2677.9
660.61	826	2593.63
660.71	825.9	2642.69
660.81	825.8	2683.02
660.91	825.7	2596.15
661.01	825.6	2701.75
661.11	825.5	2687.97
661.21	825.4	2686.37
661.31	825.3	2528.13
661.41	825.2	2576.9
661.51	825.1	2618.82
661.61	825	2647.55
661.71	824.9	2559.92
661.81	824.8	2505.98
661.91	824.7	2635.97
662.01	824.6	2541.97
662.11	824.5	2585.9
662.21	824.4	2686.5
662.31	824.3	2603.32
662.41	824.2	2637.29
662.51	824.1	2673.05
662.61	824	2638.84
662.71	823.9	2660.94
662.81	823.8	2637.24
662.91	823.7	2631.63
663.01	823.6	2678.96
663.11	823.5	2643.79
663.21	823.4	2666.69
663.31	823.3	2606.81
663.41	823.2	2669.14
663.51	823.1	2570.61
663.61	823	2555
663.71	822.9	2631.23
663.81	822.8	2631.36
663.91	822.7	2612.39
664.01	822.6	2612.25
664.11	822.5	2726.94
664.21	822.4	2662.91
664.31	822.3	2628.5
664.41	822.2	2618.33
664.51	822.1	2683.86
664.61	822	2676.79
664.71	821.9	2619.42
664.81	821.8	2709.54
664.91	821.7	2612.67
665.01	821.6	2730.67
665.11	821.5	2700.56
665.21	821.4	2639.39
665.31	821.3	2691.55
665.41	821.2	2659.88
665.51	821.1	2593.01
665.61	821	2603.84
665.71	820.9	2705.37
665.81	820.8	2700.56
665.91	820.7	2632.59
666.01	820.6	2636.52
666.11	820.5	2571.45
666.21	820.4	2572.51
666.31	820.3	2677.9
666.41	820.2	2743.16
666.51	820.1	2652.32
666.61	820	2568.02
666.71	819.9	2655.45
666.81	819.8	2656.81
666.91	819.7	2563.64
667.01	819.6	2612.26
667.11	819.5	2637.59
667.21	819.4	2647.29
667.31	819.3	2616.68
667.41	819.2	2711.21
667.51	819.1	2675.4
667.61	819	2661
667.71	818.9	2660.66
667.81	818.8	2637.28
667.91	818.7	2636.35
668.01	818.6	2639.21
668.11	818.5	2695.67
668.21	818.4	2658.96
668.31	818.3	2688.02
668.41	818.2	2706.32
668.51	818.1	2625.98
668.61	818	2683.07
668.71	817.9	2645.86
668.81	817.8	2679.36
668.91	817.7	2662.18
669.01	817.6	2572.34
669.11	817.5	2625.37
669.21	817.4	2645.07
669.31	817.3	2661.99
669.41	817.2	2650.75
669.51	817.1	2661.95
669.61	817	2658.77
669.71	816.9	2657.5
669.81	816.8	2648.26
669.91	816.7	2631.32
670.01	816.6	2666.01
670.11	816.5	2635.64
670.21	816.4	2525.03
670.31	816.3	2562.46
670.41	816.2	2594.32
670.51	816.1	2693.84
670.61	816	2616.4
670.71	815.9	2632.03
670.81	815.8	2616.49
670.91	815.7	2678.18
671.01	815.6	2725.14
671.11	815.5	2611.84
671.21	815.4	2562.49
671.31	815.3	2647.79
671.41	815.2	2639.18
671.51	815.1	2705.47
671.61	815	2668.4
671.71	814.9	2660.79
671.81	814.8	2679.45
671.91	814.7	2716.84
672.01	814.6	2643.97
672.11	814.5	2618.66
672.21	814.4	2599.22
672.31	814.3	2592.64
672.41	814.2	2608.2
672.51	814.1	2625.19
672.61	814	2658.52
672.71	813.9	2632.28
672.81	813.8	2606.97
672.91	813.7	2619.93
673.01	813.6	2707.92
673.11	813.5	2703.58
673.21	813.4	2771.94
673.31	813.3	2787.16
673.41	813.2	2794.95
673.51	813.1	2700.81
673.61	813	2691.47
673.71	812.9	2688.33
673.81	812.8	2647.35
673.91	812.7	2669.54
674.01	812.6	2754.97
674.11	812.5	2727.49
674.21	812.4	2745.72
674.31	812.3	2656.54
674.41	812.2	2702.17
674.51	812.1	2689.22
674.61	812	2699.98
674.71	811.9	2740.2
674.81	811.8	2739.43
674.91	811.7	2736.52
675.01	811.6	2610.11
675.11	811.5	2668.5
675.21	811.4	2675.19
675.31	811.3	2659.45
675.41	811.2	2626.94
675.51	811.1	2691.93
675.61	811	2696.12
675.71	810.9	2640.24
675.81	810.8	2687.43
675.91	810.7	2650.09
676.01	810.6	2727.91
676.11	810.5	2711.5
676.21	810.4	2744.12
676.31	810.3	2688.15
676.41	810.2	2627.07
676.51	810.1	2601.69
676.61	810	2739.28
676.71	809.9	2711.07
676.81	809.8	2718.3
676.91	809.7	2702.55
677.01	809.6	2764.51
677.11	809.5	2716.1
677.21	809.4	2660.69
677.31	809.3	2658.14
677.41	809.2	2783.7
677.51	809.1	2827.99
677.61	809	2751.34
677.71	808.9	2708.7
677.81	808.8	2684.82
677.91	808.7	2673.61
678.01	808.6	2633.63
678.11	808.5	2714.92
678.21	808.4	2705.11
678.31	808.3	2686.39
678.41	808.2	2661.15
678.51	808.1	2686.47
678.61	808	2689.66
678.71	807.9	2757.11
678.81	807.8	2736.83
678.91	807.7	2641.06
679.01	807.6	2658.14
679.11	807.5	2712.8
679.21	807.4	2730.95
679.31	807.3	2697.57
679.41	807.2	2702.93
679.51	807.1	2580.25
679.61	807	2704.64
679.71	806.9	2716.26
679.81	806.8	2732.14
679.91	806.7	2709
680.01	806.6	2766.25
680.11	806.5	2746.37
680.21	806.4	2745.59
680.31	806.3	2800.81
680.41	806.2	2771.56
680.51	806.1	2763.32
680.61	806	2759.3
680.71	805.9	2787.79
680.81	805.8	2705.94
680.91	805.7	2758.96
681.01	805.6	2675.48
681.11	805.5	2765.9
681.21	805.4	2744.29
681.31	805.3	2777.01
681.41	805.2	2751.03
681.51	805.1	2826.01
681.61	805	2781.6
681.71	804.9	2811.28
681.81	804.8	2669.7
681.91	804.7	2743.42
682.01	804.6	2854.71
682.11	804.5	2765.86
682.21	804.4	2734.38
682.31	804.3	2731.06
682.41	804.2	2825.25
682.51	804.1	2849.33
682.61	804	2705.85
682.71	803.9	2689.2
682.81	803.8	2733.72
682.91	803.7	2705.1
683.01	803.6	2644.19
683.11	803.5	2649.11
683.21	803.4	2782.89
683.31	803.3	2795.74
683.41	803.2	2735.13
683.51	803.1	2852.04
683.61	803	2865.33
683.71	802.9	2772.88
683.81	802.8	2700.76
683.91	802.7	2719.68
684.01	802.6	2715.86
684.11	802.5	2706.65
684.21	802.4	2733.43
684.31	802.3	2763.85
684.41	802.2	2772.2
684.51	802.1	2795.31
684.61	802	2767.53
684.71	801.9	2850.44
684.81	801.8	2709.69
684.91	801.7	2725.08
685.01	801.6	2731.63
685.11	801.5	2727.57
685.21	801.4	2766.16
685.31	801.3	2784.31
685.41	801.2	2703.46
685.51	801.1	2759.54
685.61	801	2742.19
685.71	800.9	2779.03
685.81	800.8	2818.78
685.91	800.7	2848.33
686.01	800.6	2781.21
686.11	800.5	2791.43
686.21	800.4	2734.84
686.31	800.3	2781.99
686.41	800.2	2761.71
686.51	800.1	2791.75
686.61	800	2775.9
686.71	799.9	2875.75
686.81	799.8	2726.53
686.91	799.7	2743.64
687.01	799.6	2750.52
687.11	799.5	2789.17
687.21	799.4	2810.35
687.31	799.3	2791.07
687.41	799.2	2801.91
687.51	799.1	2767.26
687.61	799	2755.21
687.71	798.9	2845.69
687.81	798.8	2835.27
687.91	798.7	2768.54
688.01	798.6	2729.06
688.11	798.5	2821.84
688.21	798.4	2777.48
688.31	798.3	2873.03
688.41	798.2	2880.51
688.51	798.1	2761.45
688.61	798	2816.47
688.71	797.9	2840.54
688.81	797.8	2831.86
688.91	797.7	2733.57
689.01	797.6	2812.58
689.11	797.5	2895.06
689.21	797.4	2889.64
689.31	797.3	2848.35
689.41	797.2	2793.69
689.51	797.1	2759
689.61	797	2791.92
689.71	796.9	2921.03
689.81	796.8	2826.47
689.91	796.7	2799.68
690.01	796.6	2806.09
690.11	796.5	2796.3
690.21	796.4	2783.05
690.31	796.3	2721.09
690.41	796.2	2752.93
690.51	796.1	2863.48
690.61	796	2869.25
690.71	795.9	2826.5
690.81	795.8	2791.17
690.91	795.7	2814.05
691.01	795.6	2820.43
691.11	795.5	2799.77
691.21	795.4	2771.05
691.31	795.3	2799.99
691.41	795.2	2920.4
691.51	795.1	2871.54
691.61	795	2710.75
691.71	794.9	2766.49
691.81	794.8	2763.8
691.91	794.7	2906.14
692.01	794.6	2805.55
692.11	794.5	2841.02
692.21	794.4	2754.47
692.31	794.3	2778.94
692.41	794.2	2859.31
692.51	794.1	2866.06
692.61	794	2732.26
692.71	793.9	2814.84
692.81	793.8	2780.34
692.91	793.7	2774.72
693.01	793.6	2778.66
693.11	793.5	2879.63
693.21	793.4	2866.91
693.31	793.3	2829.95
693.41	793.2	2832.29
693.51	793.1	2861.33
693.61	793	2851.27
693.71	792.9	2919.97
693.81	792.8	2885.35
693.91	792.7	2803.82
694.01	792.6	2806.16
694.11	792.5	2814.2
694.21	792.4	2925.84
694.31	792.3	2914.17
694.41	792.2	2818.18
694.51	792.1	2958.35
694.61	792	2946.56
694.71	791.9	2865.13
694.81	791.8	2812.97
694.91	791.7	2940
695.01	791.6	2882.78
695.11	791.5	2845.55
695.21	791.4	2860.08
695.31	791.3	2904.56
695.41	791.2	2896.66
695.51	791.1	2903.2
695.61	791	2937.2
695.71	790.9	2843.54
695.81	790.8	2841.71
695.91	790.7	2919.74
696.01	790.6	2862.21
696.11	790.5	2836.38
696.21	790.4	2858.49
696.31	790.3	2809.26
696.41	790.2	2855.53
696.51	790.1	2919.23
696.61	790	2873
696.71	789.9	2882.73
696.81	789.8	2905.04
696.91	789.7	2887.24
697.01	789.6	2868.97
697.11	789.5	2837.31
697.21	789.4	2816.78
697.31	789.3	2823.24
697.41	789.2	2901.68
697.51	789.1	2892.18
697.61	789	2941.85
697.71	788.9	2935.75
697.81	788.8	2892.72
697.91	788.7	2928.02
698.01	788.6	2897.62
698.11	788.5	2941.98
698.21	788.4	2844.85
698.31	788.3	2921.19
698.41	788.2	2829.35
698.51	788.1	2859.79
698.61	788	2896.22
698.71	787.9	2879.15
698.81	787.8	2931.85
698.91	787.7	2922.78
699.01	787.6	2905.98
699.11	787.5	2875.35
699.21	787.4	2850.18
699.31	787.3	2831.65
699.41	787.2	2888.51
699.51	787.1	2939.84
699.61	787	2843.81
699.71	786.9	2880.74
699.81	786.8	2953.8
699.91	786.7	2932.67
700.01	786.6	2928.97
700.11	786.5	2919.86
700.21	786.4	2884.29
700.31	786.3	2913.72
700.41	786.2	2901.19
700.51	786.1	2893.35
700.61	786	2832.75
700.71	785.9	2896.21
700.81	785.8	2930.64
700.91	785.7	2852.74
701.01	785.6	2941.53
701.11	785.5	2925.73
701.21	785.4	2912.59
701.31	785.3	2994.39
701.41	785.2	2925.55
701.51	785.1	2846.11
701.61	785	2869.01
701.71	784.9	2915.34
701.81	784.8	2928.1
701.91	784.7	2906.33
702.01	784.6	2879.72
702.11	784.5	2928.48
702.21	784.4	2862.58
702.31	784.3	2866.07
702.41	784.2	2938
702.51	784.1	2865.22
702.61	784	2905.98
702.71	783.9	2887.61
702.81	783.8	2970.07
702.91	783.7	3032.26
703.01	783.6	2967.69
703.11	783.5	2939.65
703.21	783.4	2941.44
703.31	783.3	2952.6
703.41	783.2	2911.49
703.51	783.1	3048.49
703.61	783	2993.45
703.71	782.9	2922.54
703.81	782.8	2934.1
703.91	782.7	2967.19
704.01	782.6	2863.08
704.11	782.5	2858.64
704.21	782.4	2828.16
704.31	782.3	2873.65
704.41	782.2	2922.31
704.51	782.1	2932.17
704.61	782	2902.53
704.71	781.9	2832.52
704.81	781.8	2864.07
704.91	781.7	2787.5
705.01	781.6	2854.55
705.11	781.5	2915.51
705.21	781.4	2897.9
705.31	781.3	2891.65
705.41	781.2	2933.21
705.51	781.1	2899.1
705.61	781	2824.12
705.71	780.9	2896.41
705.81	780.8	2849.36
705.91	780.7	2854.82
706.01	780.6	2842.51
706.11	780.5	2812.8
706.21	780.4	2807.12
706.31	780.3	2851.31
706.41	780.2	2871.29
706.51	780.1	2910.08
706.61	780	2859.2
706.71	779.9	2818.05
706.81	779.8	2906.17
706.91	779.7	2938.66
707.01	779.6	2953.35
707.11	779.5	2881.87
707.21	779.4	2925.99
707.31	779.3	2917.24
707.41	779.2	2895.26
707.51	779.1	2945.71
707.61	779	2859.7
707.71	778.9	2817.25
707.81	778.8	2772.2
707.91	778.7	2765.55
708.01	778.6	2769.3
708.11	778.5	2826.02
708.21	778.4	2807.51
708.31	778.3	2874.92
708.41	778.2	2880.41
708.51	778.1	2821.32
708.61	778	2830.77
708.71	777.9	2875.76
708.81	777.8	2880.47
708.91	777.7	2792.86
709.01	777.6	2735.74
709.11	777.5	2842.16
709.21	777.4	2870.41
709.31	777.3	2848.86
709.41	777.2	2872.2
709.51	777.1	2774.19
709.61	777	2835.13
709.71	776.9	2754.02
709.81	776.8	2789.83
709.91	776.7	2869.31
710.01	776.6	2844.19
710.11	776.5	2896.38
710.21	776.4	2862.22
710.31	776.3	2790.24
710.41	776.2	2821.22
710.51	776.1	2899.83
710.61	776	2865.81
710.71	775.9	2959.09
710.81	775.8	2953.24
710.91	775.7	2877.72
711.01	775.6	2869.83
711.11	775.5	2876.88
711.21	775.4	2906.85
711.31	775.3	2877.53
711.41	775.2	2906.05
711.51	775.1	2849.52
711.61	775	2859.07
711.71	774.9	2813.71
711.81	774.8	2809.52
711.91	774.7	2870
712.01	774.6	2863.85
712.11	774.5	2952.66
712.21	774.4	3036.77
712.31	774.3	2896.38
712.41	774.2	2900.35
712.51	774.1	2885.3
712.61	774	2911.51
712.71	773.9	2868.15
712.81	773.8	2889.59
712.91	773.7	2840.9
713.01	773.6	2861.98
713.11	773.5	2868.05
713.21	773.4	2892.53
713.31	773.3	2920.87
713.41	773.2	2840.18
713.51	773.1	2940.42
713.61	773	2939.43
713.71	772.9	2861.87
713.81	772.8	2918.78
713.91	772.7	2862.45
714.01	772.6	2846.79
714.11	772.5	2854.16
714.21	772.4	2922.9
714.31	772.3	2944.08
714.41	772.2	2966.38
714.51	772.1	2846.19
714.61	772	2821.03
714.71	771.9	2921.47
714.81	771.8	2974.34
714.91	771.7	3045.24
715.01	771.6	2906.88
715.11	771.5	2957.52
715.21	771.4	3011.26
715.31	771.3	2957.4
715.41	771.2	2933.77
715.51	771.1	2980.74
715.61	771	2825.11
715.71	770.9	2889.98
715.81	770.8	2995.08
715.91	770.7	2985.18
716.01	770.6	2931.92
716.11	770.5	2899.62
716.21	770.4	2954.23
716.31	770.3	2936.86
716.41	770.2	2958.5
716.51	770.1	2960.73
716.61	770	3012.3
716.71	769.9	3034.67
716.81	769.8	3061
716.91	769.7	3016.81
717.01	769.6	2920.77
717.11	769.5	2958.81
717.21	769.4	3012.34
717.31	769.3	3023.14
717.41	769.2	3029.14
717.51	769.1	3050.68
717.61	769	3087.81
717.71	768.9	3027.84
717.81	768.8	3013.04
717.91	768.7	2958.07
718.01	768.6	3106.77
718.11	768.5	3028.24
718.21	768.4	3078.27
718.31	768.3	3052.53
718.41	768.2	3062.73
718.51	768.1	3040.66
718.61	768	3014.83
718.71	767.9	3140.23
718.81	767.8	3075.39
718.91	767.7	3125.39
719.01	767.6	3109.02
719.11	767.5	3113.88
719.21	767.4	3163.48
719.31	767.3	3197.87
719.41	767.2	3126.24
719.51	767.1	3106.76
719.61	767	3205.43
719.71	766.9	3150.46
719.81	766.8	3197.05
719.91	766.7	3234.78
720.01	766.6	3206.11
720.11	766.5	3211
720.21	766.4	3216.36
720.31	766.3	3281.82
720.41	766.2	3254.72
720.51	766.1	3239.71
720.61	766	3311.1
720.71	765.9	3276.73
720.81	765.8	3400.59
720.91	765.7	3319.35
721.01	765.6	3348.04
721.11	765.5	3397.6
721.21	765.4	3317.03
721.31	765.3	3326.62
721.41	765.2	3308.24
721.51	765.1	3401.77
721.61	765	3479.23
721.71	764.9	3553.88
721.81	764.8	3371.24
721.91	764.7	3415.06
722.01	764.6	3409.92
722.11	764.5	3522.74
722.21	764.4	3487.87
722.31	764.3	3462.36
722.41	764.2	3560.08
722.51	764.1	3552
722.61	764	3435.89
722.71	763.9	3459.98
722.81	763.8	3612.07
722.91	763.7	3646.56
723.01	763.6	3608.78
723.11	763.5	3625.67
723.21	763.4	3661.82
723.31	763.3	3634.94
723.41	763.2	3688.36
723.51	763.1	3755.58
723.61	763	3674.57
723.71	762.9	3666.89
723.81	762.8	3671.61
723.91	762.7	3692.73
724.01	762.6	3770.88
724.11	762.5	3742.13
724.21	762.4	3769.38
724.31	762.3	3803.8
724.41	762.2	3636.95
724.51	762.1	3660.81
724.61	762	3664.76
724.71	761.9	3604.61
724.81	761.8	3694.99
724.91	761.7	3697.24
725.01	761.6	3626.46
725.11	761.5	3593.68
725.21	761.4	3657.69
725.31	761.3	3713.54
725.41	761.2	3707.26
725.51	761.1	3726.21
725.61	761	3670.56
725.71	760.9	3583.8
725.81	760.8	3660.22
725.91	760.7	3590.13
726.01	760.6	3598.98
726.11	760.5	3491.56
726.21	760.4	3516.24
726.31	760.3	3537.02
726.41	760.2	3525.14
726.51	760.1	3567.15
726.61	760	3559.43
726.71	759.9	3520.94
726.81	759.8	3452.86
726.91	759.7	3455.97
727.01	759.6	3433.15
727.11	759.5	3405.69
727.21	759.4	3355.4
727.31	759.3	3357.32
727.41	759.2	3455.43
727.51	759.1	3431.64
727.61	759	3247.32
727.71	758.9	3306.23
727.81	758.8	3241.67
727.91	758.7	3297.45
728.01	758.6	3259.56
728.11	758.5	3223.43
728.21	758.4	3271.88
728.31	758.3	3270.32
728.41	758.2	3203.83
728.51	758.1	3190.57
728.61	758	3193.51
728.71	757.9	3107.05
728.81	757.8	3084.36
728.91	757.7	3148.83
729.01	757.6	3112.24
729.11	757.5	3045.95
729.21	757.4	3091.22
729.31	757.3	3113.86
729.41	757.2	3032.24
729.51	757.1	3021.11
729.61	757	2947.01
729.71	756.9	2990.89
729.81	756.8	3051.33
729.91	756.7	3087.2
730.01	756.6	2984.7
730.11	756.5	2958.51
730.21	756.4	2971.15
730.31	756.3	2926.32
730.41	756.2	2913.69
730.51	756.1	2936.82
730.61	756	2779.59
730.71	755.9	2827.53
730.81	755.8	2847.73
730.91	755.7	2854.3
731.01	755.6	2902.97
731.11	755.5	2876.41
731.21	755.4	2886.41
731.31	755.3	2856.98
731.41	755.2	2871.21
731.51	755.1	2885.55
731.61	755	2804.95
731.71	754.9	2767.75
731.81	754.8	2834.19
731.91	754.7	2744.39
732.01	754.6	2829.49
732.11	754.5	2708.35
732.21	754.4	2776.02
732.31	754.3	2710.58
732.41	754.2	2728.35
732.51	754.1	2764.35
732.61	754	2682.01
732.71	753.9	2638.78
732.81	753.8	2703.88
732.91	753.7	2782.91
733.01	753.6	2714.97
733.11	753.5	2708.3
733.21	753.4	2678.77
733.31	753.3	2684.7
733.41	753.2	2658.09
733.51	753.1	2729.36
733.61	753	2739.22
733.71	752.9	2620.55
733.81	752.8	2637.68
733.91	752.7	2680.87
734.01	752.6	2736.44
734.11	752.5	2712.13
734.21	752.4	2655.52
734.31	752.3	2646.15
734.41	752.2	2656.11
734.51	752.1	2617.27
734.61	752	2607.4
734.71	751.9	2613.43
734.81	751.8	2614.82
734.91	751.7	2662.68
735.01	751.6	2676.57
735.11	751.5	2639.1
735.21	751.4	2687.39
735.31	751.3	2656.05
735.41	751.2	2572.37
735.51	751.1	2528.3
735.61	751	2517.39
735.71	750.9	2546.15
735.81	750.8	2539.3
735.91	750.7	2580.79
736.01	750.6	2583.52
736.11	750.5	2588.77
736.21	750.4	2603.13
736.31	750.3	2547.05
736.41	750.2	2651.21
736.51	750.1	2631.33
736.61	750	2535.98
736.71	749.9	2642.61
736.81	749.8	2567.43
736.91	749.7	2587.92
737.01	749.6	2565.04
737.11	749.5	2586.56
737.21	749.4	2539.18
737.31	749.3	2540.83
737.41	749.2	2480.35
737.51	749.1	2534.67
737.61	749	2622.25
737.71	748.9	2639.94
737.81	748.8	2531.66
737.91	748.7	2508.71
738.01	748.6	2518.69
738.11	748.5	2483.05
738.21	748.4	2561.5
738.31	748.3	2479.71
738.41	748.2	2569.76
738.51	748.1	2577.78
738.61	748	2599.8
738.71	747.9	2511.28
738.81	747.8	2511.5
738.91	747.7	2507.05
739.01	747.6	2478.33
739.11	747.5	2504.28
739.21	747.4	2513.92
739.31	747.3	2476.87
739.41	747.2	2614.59
739.51	747.1	2601.27
739.61	747	2570.15
739.71	746.9	2525.46
739.81	746.8	2490.51
739.91	746.7	2499.19
740.01	746.6	2540.17
740.11	746.5	2541.85
740.21	746.4	2490.39
740.31	746.3	2519.7
740.41	746.2	2511.15
740.51	746.1	2513.36
740.61	746	2444.77
740.71	745.9	2452.18
740.81	745.8	2577.66
740.91	745.7	2618.54
741.01	745.6	2583.95
741.11	745.5	2535.16
741.21	745.4	2537.97
741.31	745.3	2499.87
741.41	745.2	2540.05
741.51	745.1	2475.86
741.61	745	2469.57
741.71	744.9	2431.68
741.81	744.8	2522.68
741.91	744.7	2489.92
742.01	744.6	2595.93
742.11	744.5	2629.37
742.21	744.4	2503.44
742.31	744.3	2503.62
742.41	744.2	2426.12
742.51	744.1	2513.76
742.61	744	2482.57
742.71	743.9	2485.01
742.81	743.8	2613.15
742.91	743.7	2481.48
743.01	743.6	2527.39
743.11	743.5	2517.09
743.21	743.4	2549.03
743.31	743.3	2522.03
743.41	743.2	2491.34
743.51	743.1	2412.41
743.61	743	2454.34
743.71	742.9	2482.28
743.81	742.8	2473.61
743.91	742.7	2480.88
744.01	742.6	2501.32
744.11	742.5	2529.32
744.21	742.4	2508.09
744.31	742.3	2546.46
744.41	742.2	2553.42
744.51	742.1	2527.19
744.61	742	2470.86
744.71	741.9	2471.52
744.81	741.8	2475.19
744.91	741.7	2554.55
745.01	741.6	2520.02
745.11	741.5	2562.49
745.21	741.4	2512.88
745.31	741.3	2521.52
745.41	741.2	2533.78
745.51	741.1	2539.18
745.61	741	2489.07
745.71	740.9	2505.9
745.81	740.8	2513.47
745.91	740.7	2440.43
746.01	740.6	2448.16
746.11	740.5	2490.42
746.21	740.4	2493.09
746.31	740.3	2505.58
746.41	740.2	2501.61
746.51	740.1	2539.2
746.61	740	2542.16
746.71	739.9	2529.86
746.81	739.8	2501.02
746.91	739.7	2580.01
747.01	739.6	2530.54
747.11	739.5	2485.8
747.21	739.4	2463.49
747.31	739.3	2496.52
747.41	739.2	2430.68
747.51	739.1	2451.03
747.61	739	2453.33
747.71	738.9	2491.72
747.81	738.8	2480.57
747.91	738.7	2508.33
748.01	738.6	2469.62
748.11	738.5	2442.98
748.21	738.4	2473.03
748.31	738.3	2436.49
748.41	738.2	2415.05
748.51	738.1	2511.07
748.61	738	2468.72
748.71	737.9	2453.41
748.81	737.8	2508.97
748.91	737.7	2562.19
749.01	737.6	2588.54
749.11	737.5	2500.43
749.21	737.4	2434.38
749.31	737.3	2508.94
749.41	737.2	2471.39
749.51	737.1	2476.21
749.61	737	2539.26
749.71	736.9	2537.98
749.81	736.8	2481
749.91	736.7	2514.55
750.01	736.6	2516.67
750.11	736.5	2503.18
750.21	736.4	2513.67
750.31	736.3	2552.48
750.41	736.2	2507.8
750.51	736.1	2509.48
750.61	736	2594.13
750.71	735.9	2590.82
750.81	735.8	2478.5
750.91	735.7	2504.01
751.01	735.6	2513.19
751.11	735.5	2514.54
751.21	735.4	2644.12
751.31	735.3	2568
751.41	735.2	2514.02
751.51	735.1	2493.43
751.61	735	2510.31
751.71	734.9	2514.39
751.81	734.8	2508
751.91	734.7	2517.25
752.01	734.6	2409.16
752.11	734.5	2424.34
752.21	734.4	2542.65
752.31	734.3	2444.39
752.41	734.2	2567.9
752.51	734.1	2610.35
752.61	734	2479.32
752.71	733.9	2469.63
752.81	733.8	2444.88
752.91	733.7	2524.72
753.01	733.6	2599.49
753.11	733.5	2481.37
753.21	733.4	2606.68
753.31	733.3	2469.25
753.41	733.2	2530.89
753.51	733.1	2446.83
753.61	733	2539.74
753.71	732.9	2558.15
753.81	732.8	2477.25
753.91	732.7	2509.09
754.01	732.6	2578.1
754.11	732.5	2490.5
754.21	732.4	2418.17
754.31	732.3	2459.38
754.41	732.2	2464.35
754.51	732.1	2486.65
754.61	732	2496.46
754.71	731.9	2497.96
754.81	731.8	2544.66
754.91	731.7	2525.33
755.01	731.6	2492.77
755.11	731.5	2571.87
755.21	731.4	2468.64
755.31	731.3	2510.84
755.41	731.2	2585.01
755.51	731.1	2517.78
755.61	731	2543.85
755.71	730.9	2574.38
755.81	730.8	2552.15
755.91	730.7	2532.55
756.01	730.6	2486.71
756.11	730.5	2526.11
756.21	730.4	2572.74
756.31	730.3	2499.44
756.41	730.2	2446.01
756.51	730.1	2578.04
756.61	730	2556.3
756.71	729.9	2628.6
756.81	729.8	2531.53
756.91	729.7	2415.96
757.01	729.6	2593.06
757.11	729.5	2555.52
757.21	729.4	2657.65
757.31	729.3	2506.84
757.41	729.2	2531.14
757.51	729.1	2644.47
757.61	729	2700.1
757.71	728.9	2609.36
757.81	728.8	2495.78
757.91	728.7	2577.44
758.01	728.6	2564.6
758.11	728.5	2595.6
758.21	728.4	2634.12
758.31	728.3	2560.61
758.41	728.2	2568.84
758.51	728.1	2476.56
758.61	728	2499.32
758.71	727.9	2461.25
758.81	727.8	2435.14
758.91	727.7	2584.06
759.01	727.6	2614.52
759.11	727.5	2502.37
759.21	727.4	2524.1
759.31	727.3	2534.15
759.41	727.2	2486.51
759.51	727.1	2546.03
759.61	727	2574.98
759.71	726.9	2565.77
759.81	726.8	2486.63
759.91	726.7	2517.88
760.01	726.6	2494.33
760.11	726.5	2479.95
760.21	726.4	2545.37
760.31	726.3	2548.96
760.41	726.2	2555.61
760.51	726.1	2502.53
760.61	726	2520.08
760.71	725.9	2586.23
760.81	725.8	2660.35
760.91	725.7	2615.33
761.01	725.6	2549.85
761.11	725.5	2525.73
761.21	725.4	2527.85
761.31	725.3	2570.6
761.41	725.2	2643.41
761.51	725.1	2593.53
761.61	725	2562.01
761.71	724.9	2606.19
761.81	724.8	2570.21
761.91	724.7	2562.32
762.01	724.6	2573.13
762.11	724.5	2612.88
762.21	724.4	2550.43
762.31	724.3	2577.67
762.41	724.2	2530.05
762.51	724.1	2509.3
762.61	724	2636.38
762.71	723.9	2590.05
762.81	723.8	2529.53
762.91	723.7	2627.58
763.01	723.6	2531.49
763.11	723.5	2491.56
763.21	723.4	2514.14
763.31	723.3	2571.71
763.41	723.2	2560.42
763.51	723.1	2620.67
763.61	723	2508.34
763.71	722.9	2574.35
763.81	722.8	2523.32
763.91	722.7	2583.43
764.01	722.6	2580.14
764.11	722.5	2618.21
764.21	722.4	2477.72
764.31	722.3	2548.42
764.41	722.2	2497.46
764.51	722.1	2549.17
764.61	722	2563.04
764.71	721.9	2489.98
764.81	721.8	2643.65
764.91	721.7	2602.79
765.01	721.6	2620.49
765.11	721.5	2591.56
765.21	721.4	2554.26
765.31	721.3	2527.53
765.41	721.2	2469.9
765.51	721.1	2612.14
765.61	721	2613.34
765.71	720.9	2552.11
765.81	720.8	2429.67
765.91	720.7	2612.71
766.01	720.6	2677.84
766.11	720.5	2531.57
766.21	720.4	2569.24
766.31	720.3	2536.01
766.41	720.2	2553.24
766.51	720.1	2598.64
766.61	720	2657.33
766.71	719.9	2602.93
766.81	719.8	2524.8
766.91	719.7	2556.83
767.01	719.6	2541.46
767.11	719.5	2580.72
767.21	719.4	2627.38
767.31	719.3	2746.48
767.41	719.2	2596.91
767.51	719.1	2570
767.61	719	2561.9
767.71	718.9	2606.96
767.81	718.8	2595.32
767.91	718.7	2681.58
768.01	718.6	2575.11
768.11	718.5	2511.2
768.21	718.4	2588.69
768.31	718.3	2621.82
768.41	718.2	2650.01
768.51	718.1	2629.04
768.61	718	2566.66
768.71	717.9	2595.09
768.81	717.8	2607.81
768.91	717.7	2568.4
769.01	717.6	2636.86
769.11	717.5	2614.75
769.21	717.4	2550.94
769.31	717.3	2568.69
769.41	717.2	2602.11
769.51	717.1	2643.93
769.61	717	2643.19
769.71	716.9	2648.04
769.81	716.8	2592.6
769.91	716.7	2592.05
770.01	716.6	2577.74
770.11	716.5	2573.22
770.21	716.4	2640.71
770.31	716.3	2620.09
770.41	716.2	2622.21
770.51	716.1	2649.83
770.61	716	2549.22
770.71	715.9	2581.7
770.81	715.8	2635.75
770.91	715.7	2515.93
771.01	715.6	2573.35
771.11	715.5	2632.33
771.21	715.4	2595.68
771.31	715.3	2602.06
771.41	715.2	2578.01
771.51	715.1	2565.89
771.61	715	2586.41
771.71	714.9	2614.99
771.81	714.8	2513
771.91	714.7	2555.55
772.01	714.6	2621.66
772.11	714.5	2520.61
772.21	714.4	2616.78
772.31	714.3	2631.46
772.41	714.2	2688.91
772.51	714.1	2665.69
772.61	714	2625.63
772.71	713.9	2593.91
772.81	713.8	2506.12
772.91	713.7	2635.19
773.01	713.6	2617.8
773.11	713.5	2663.24
773.21	713.4	2598.62
773.31	713.3	2640.06
773.41	713.2	2619.2
773.51	713.1	2604.54
773.61	713	2598.85
773.71	712.9	2539.89
773.81	712.8	2676.7
773.91	712.7	2597.04
774.01	712.6	2557.71
774.11	712.5	2600.01
774.21	712.4	2617.72
774.31	712.3	2619.86
774.41	712.2	2570.79
774.51	712.1	2583.83
774.61	712	2661.3
774.71	711.9	2607.04
774.81	711.8	2594.94
774.91	711.7	2579.84
775.01	711.6	2625.91
775.11	711.5	2574.25
775.21	711.4	2643.68
775.31	711.3	2624.92
775.41	711.2	2668.08
775.51	711.1	2661.88
775.61	711	2727.05
775.71	710.9	2623.25
775.81	710.8	2646.31
775.91	710.7	2572.95
776.01	710.6	2618.41
776.11	710.5	2699.28
776.21	710.4	2584.41
776.31	710.3	2573.74
776.41	710.2	2535.87
776.51	710.1	2546.6
776.61	710	2602.63
776.71	709.9	2606.56
776.81	709.8	2526.59
776.91	709.7	2587.51
777.01	709.6	2643.38
777.11	709.5	2669.97
777.21	709.4	2675.76
777.31	709.3	2689.79
777.41	709.2	2657.15
777.51	709.1	2654.28
777.61	709	2591.07
777.71	708.9	2568.99
777.81	708.8	2618.12
777.91	708.7	2643.88
778.01	708.6	2599.54
778.11	708.5	2585.89
778.21	708.4	2616.68
778.31	708.3	2685.47
778.41	708.2	2722.36
778.51	708.1	2681.32
778.61	708	2555.57
778.71	707.9	2622.86
778.81	707.8	2632.08
778.91	707.7	2625.6
779.01	707.6	2601.09
779.11	707.5	2688.88
779.21	707.4	2695
779.31	707.3	2658.28
779.41	707.2	2650.97
779.51	707.1	2699.79
779.61	707	2666.57
779.71	706.9	2648.43
779.81	706.8	2693.61
779.91	706.7	2649.83
780.01	706.6	2614.11
780.11	706.5	2680.56
780.21	706.4	2639.28
780.31	706.3	2659.86
780.41	706.2	2684.44
780.51	706.1	2600.99
780.61	706	2607.84
780.71	705.9	2701.42
780.81	705.8	2713.8
780.91	705.7	2631.85
781.01	705.6	2613.23
781.11	705.5	2674.04
781.21	705.4	2679.28
781.31	705.3	2726.86
781.41	705.2	2765.64
781.51	705.1	2676.12
781.61	705	2713.36
781.71	704.9	2718.44
781.81	704.8	2625.58
781.91	704.7	2647.93
782.01	704.6	2668.47
782.11	704.5	2660.51
782.21	704.4	2627.55
782.31	704.3	2669.56
782.41	704.2	2714.7
782.51	704.1	2671.74
782.61	704	2733.72
782.71	703.9	2687.76
782.81	703.8	2584.7
782.91	703.7	2688.54
783.01	703.6	2694.24
783.11	703.5	2795.11
783.21	703.4	2748.88
783.31	703.3	2696.89
783.41	703.2	2719.89
783.51	703.1	2726.66
783.61	703	2729.93
783.71	702.9	2726.24
783.81	702.8	2660.01
783.91	702.7	2759.24
784.01	702.6	2734.58
784.11	702.5	2722.88
784.21	702.4	2717.08
784.31	702.3	2742.61
784.41	702.2	2682.04
784.51	702.1	2593.21
784.61	702	2704.71
784.71	701.9	2639.91
784.81	701.8	2750.84
784.91	701.7	2711.14
785.01	701.6	2632.3
785.11	701.5	2741.27
785.21	701.4	2659.53
785.31	701.3	2666.76
785.41	701.2	2730.66
785.51	701.1	2601.19
785.61	701	2617.18
785.71	700.9	2676.21
785.81	700.8	2716.74
785.91	700.7	2754.4
786.01	700.6	2669.09
786.11	700.5	2684.19
786.21	700.4	2775.28
786.31	700.3	2803.24
786.41	700.2	2680.73
786.51	700.1	2663.19
786.61	700	2590.21
786.71	699.9	2772.81
786.81	699.8	2752.66
786.91	699.7	2820.05
787.01	699.6	2792.21
787.11	699.5	2701.27
787.21	699.4	2717.69
787.31	699.3	2793.14
787.41	699.2	2746.4
787.51	699.1	2769.79
787.61	699	2668.01
787.71	698.9	2693.36
787.81	698.8	2682.05
787.91	698.7	2740
788.01	698.6	2754.62
788.11	698.5	2739.77
788.21	698.4	2702.93
788.31	698.3	2770.18
788.41	698.2	2695.33
788.51	698.1	2629.98
788.61	698	2709.06
788.71	697.9	2724.58
788.81	697.8	2710.3
788.91	697.7	2566.81
789.01	697.6	2579.4
789.11	697.5	2630.04
789.21	697.4	2736.33
789.31	697.3	2763.87
789.41	697.2	2691.72
789.51	697.1	2689.53
789.61	697	2684.51
789.71	696.9	2753.99
789.81	696.8	2771.17
789.91	696.7	2747.55
790.01	696.6	2743.93
790.11	696.5	2768.14
790.21	696.4	2755.39
790.31	696.3	2774.66
790.41	696.2	2810.01
790.51	696.1	2720.19
790.61	696	2748.13
790.71	695.9	2749.34
790.81	695.8	2749.98
790.91	695.7	2757.62
791.01	695.6	2722.66
791.11	695.5	2704.17
791.21	695.4	2728.35
791.31	695.3	2603.65
791.41	695.2	2746.83
791.51	695.1	2685.93
791.61	695	2730.34
791.71	694.9	2687.78
791.81	694.8	2748.12
791.91	694.7	2711.19
792.01	694.6	2760.93
792.11	694.5	2679.83
792.21	694.4	2772.37
792.31	694.3	2725.64
792.41	694.2	2809.11
792.51	694.1	2718.31
792.61	694	2743.18
792.71	693.9	2733.95
792.81	693.8	2763.35
792.91	693.7	2730.12
793.01	693.6	2774.59
793.11	693.5	2739.05
793.21	693.4	2708.99
793.31	693.3	2712.49
793.41	693.2	2777.52
793.51	693.1	2709.02
793.61	693	2754.85
793.71	692.9	2734.22
793.81	692.8	2814.05
793.91	692.7	2715.81
794.01	692.6	2675.44
794.11	692.5	2819.37
794.21	692.4	2756.14
794.31	692.3	2812.57
794.41	692.2	2777.8
794.51	692.1	2752.36
794.61	692	2724.55
794.71	691.9	2741.25
794.81	691.8	2756.84
794.91	691.7	2677.94
795.01	691.6	2721.6
795.11	691.5	2769.13
795.21	691.4	2757.45
795.31	691.3	2794.45
795.41	691.2	2764.07
795.51	691.1	2806.23
795.61	691	2723.69
795.71	690.9	2660.72
795.81	690.8	2757.77
795.91	690.7	2823.2
796.01	690.6	2778.92
796.11	690.5	2687.78
796.21	690.4	2805.67
796.31	690.3	2662.96
796.41	690.2	2683.41
796.51	690.1	2856.2
796.61	690	2801.12
796.71	689.9	2792.38
796.81	689.8	2738.33
796.91	689.7	2741.82
797.01	689.6	2714.98
797.11	689.5	2766.46
797.21	689.4	2751.75
797.31	689.3	2748.4
797.41	689.2	2780.62
797.51	689.1	2788.44
797.61	689	2830.33
797.71	688.9	2815.78
797.81	688.8	2725.1
797.91	688.7	2822.28
798.01	688.6	2876.76
798.11	688.5	2867.35
798.21	688.4	2819.76
798.31	688.3	2815.71
798.41	688.2	2743.16
798.51	688.1	2769.95
798.61	688	2793.03
798.71	687.9	2769.51
798.81	687.8	2787.09
798.91	687.7	2810.64
799.01	687.6	2804.59
799.11	687.5	2833.37
799.21	687.4	2794.48
799.31	687.3	2801.43
799.41	687.2	2847.04
799.51	687.1	2932.85
799.61	687	2853.06
799.71	686.9	2761.01
799.81	686.8	2777.25
799.91	686.7	2878.97
800.01	686.6	2799.08
800.11	686.5	2767.85
800.21	686.4	2799.93
800.31	686.3	2801.24
800.41	686.2	2777.88
800.51	686.1	2741.33
800.61	686	2812.64
800.71	685.9	2780.88
800.81	685.8	2856.29
800.91	685.7	2826.13
801.01	685.6	2797.73
801.11	685.5	2797.98
801.21	685.4	2776.42
801.31	685.3	2748.89
801.41	685.2	2810.53
801.51	685.1	2832.74
801.61	685	2852.01
801.71	684.9	2759.71
801.81	684.8	2795.25
801.91	684.7	2842.36
802.01	684.6	2823.86
802.11	684.5	2862.3
802.21	684.4	2883.17
802.31	684.3	2863.81
802.41	684.2	2871.84
802.51	684.1	2798.11
802.61	684	2800.98
802.71	683.9	2833.89
802.81	683.8	2874.65
802.91	683.7	2787.19
803.01	683.6	2838.06
803.11	683.5	2851.59
803.21	683.4	2911.13
803.31	683.3	2924.7
803.41	683.2	2891.56
803.51	683.1	2875.6
803.61	683	2844
803.71	682.9	2860.93
803.81	682.8	2975.79
803.91	682.7	2805.86
804.01	682.6	2907.03
804.11	682.5	2845.96
804.21	682.4	2760.09
804.31	682.3	2847.49
804.41	682.2	2735.42
804.51	682.1	2747.21
804.61	682	2880.58
804.71	681.9	2926.01
804.81	681.8	2922.54
804.91	681.7	2902.2
805.01	681.6	2782.23
805.11	681.5	2735.92
805.21	681.4	2882.12
805.31	681.3	2801.78
805.41	681.2	2847.54
805.51	681.1	2846.8
805.61	681	2896.4
805.71	680.9	2796.92
805.81	680.8	2859.08
805.91	680.7	2782.71
806.01	680.6	2875.14
806.11	680.5	2806.16
806.21	680.4	2926.92
806.31	680.3	2922.25
806.41	680.2	2845.01
806.51	680.1	2826.03
806.61	680	2816.62
806.71	679.9	2856.21
806.81	679.8	2780.97
806.91	679.7	2841.53
807.01	679.6	2771.45
807.11	679.5	2887.97
807.21	679.4	2969.4
807.31	679.3	2913.02
807.41	679.2	2903.78
807.51	679.1	2814.2
807.61	679	2857.55
807.71	678.9	2856.31
807.81	678.8	2766.86
807.91	678.7	2911.95
808.01	678.6	2879.37
808.11	678.5	2877.86
808.21	678.4	2852.01
808.31	678.3	2845.26
808.41	678.2	2946.75
808.51	678.1	2948.94
808.61	678	2909.25
808.71	677.9	2953.84
808.81	677.8	2862.46
808.91	677.7	2843.64
809.01	677.6	2882.16
809.11	677.5	2881.18
809.21	677.4	2905.66
809.31	677.3	2823.11
809.41	677.2	2944.23
809.51	677.1	2911.65
809.61	677	2980.4
809.71	676.9	2992.28
809.81	676.8	2855.76
809.91	676.7	2886.68
810.01	676.6	2946.93
810.11	676.5	2874.08
810.21	676.4	2891.16
810.31	676.3	2873.77
810.41	676.2	2827.02
810.51	676.1	2873.2
810.61	676	2940.71
810.71	675.9	2849.09
810.81	675.8	2883.91
810.91	675.7	2869.72
811.01	675.6	2980.77
811.11	675.5	2939.81
811.21	675.4	2854.09
811.31	675.3	2977
811.41	675.2	2935.08
811.51	675.1	2857.76
811.61	675	2923.47
811.71	674.9	2868.81
811.81	674.8	2886.06
811.91	674.7	2844
812.01	674.6	2856.65
812.11	674.5	2849.16
812.21	674.4	2978.73
812.31	674.3	2919.37
812.41	674.2	2921.28
812.51	674.1	2911.76
812.61	674	2933.17
812.71	673.9	2872.84
812.81	673.8	2877.98
812.91	673.7	2941.76
813.01	673.6	2969.07
813.11	673.5	2911.11
813.21	673.4	2939.18
813.31	673.3	2940.99
813.41	673.2	2885.13
813.51	673.1	3006.87
813.61	673	2906.74
813.71	672.9	2917.65
813.81	672.8	3008.72
813.91	672.7	3057.89
814.01	672.6	3104.46
814.11	672.5	2985.07
814.21	672.4	2938.34
814.31	672.3	2920.31
814.41	672.2	2855.58
814.51	672.1	2856.35
814.61	672	2891.32
814.71	671.9	2941.93
814.81	671.8	2953.13
814.91	671.7	2896.3
815.01	671.6	2951.8
815.11	671.5	2960.61
815.21	671.4	2946.84
815.31	671.3	2983.18
815.41	671.2	2979.61
815.51	671.1	2895.71
815.61	671	2987.48
815.71	670.9	3033.28
815.81	670.8	2952.55
815.91	670.7	2948.45
816.01	670.6	2905.99
816.11	670.5	2923.69
816.21	670.4	2999.29
816.31	670.3	3078.19
816.41	670.2	3061.05
816.51	670.1	3013.49
816.61	670	2990.82
816.71	669.9	2882.15
816.81	669.8	2971.18
816.91	669.7	3000.21
817.01	669.6	2934.21
817.11	669.5	2936.68
817.21	669.4	2969.51
817.31	669.3	2993.57
817.41	669.2	2998.27
817.51	669.1	3055.1
817.61	669	2948
817.71	668.9	2974.59
817.81	668.8	2907.89
817.91	668.7	2966.75
818.01	668.6	3043.85
818.11	668.5	2989.95
818.21	668.4	2935.71
818.31	668.3	2985.5
818.41	668.2	3031.9
818.51	668.1	3092.79
818.61	668	2983.15
818.71	667.9	3035.68
818.81	667.8	3026.54
818.91	667.7	3005.2
819.01	667.6	3067.23
819.11	667.5	3042.13
819.21	667.4	3042.25
819.31	667.3	2945.88
819.41	667.2	2937.04
819.51	667.1	3007.4
819.61	667	2926.09
819.71	666.9	2929.18
819.81	666.8	2956.11
819.91	666.7	3034.73
820.01	666.6	3003.66
820.11	666.5	2943.85
820.21	666.4	3053.11
820.31	666.3	3075.5
820.41	666.2	3042.69
820.51	666.1	2998.95
820.61	666	2952.27
820.71	665.9	2983.63
820.81	665.8	2971.32
820.91	665.7	2922.04
821.01	665.6	3020.83
821.11	665.5	2993.86
821.21	665.4	3012.91
821.31	665.3	2990.47
821.41	665.2	2977.42
821.51	665.1	3008.55
821.61	665	3050.27
821.71	664.9	3031.92
821.81	664.8	3024.28
821.91	664.7	2980.9
822.01	664.6	3026.25
822.11	664.5	3006.44
822.21	664.4	3010.73
822.31	664.3	3009.32
822.41	664.2	2992.57
822.51	664.1	2875.66
822.61	664	2959.61
822.71	663.9	3011.76
822.81	663.8	2978.18
822.91	663.7	2858.83
823.01	663.6	3019.55
823.11	663.5	3004.21
823.21	663.4	3095.72
823.31	663.3	2992.44
823.41	663.2	3057.99
823.51	663.1	3066.85
823.61	663	3053.56
823.71	662.9	3032.08
823.81	662.8	3067.43
823.91	662.7	3044.25
824.01	662.6	2999.3
824.11	662.5	3015.92
824.21	662.4	3046.94
824.31	662.3	3075.45
824.41	662.2	2972.87
824.51	662.1	3032.32
824.61	662	2985.43
824.71	661.9	2959.58
824.81	661.8	2869.07
824.91	661.7	3049.88
825.01	661.6	3057.5
825.11	661.5	2834.31
825.21	661.4	2973.03
825.31	661.3	2991.88
825.41	661.2	2927.92
825.51	661.1	2895.81
825.61	661	2905.72
825.71	660.9	2967.5
825.81	660.8	3042.71
825.91	660.7	2893.46
826.01	660.6	2910.94
826.11	660.5	2873.19
826.21	660.4	2920.84
826.31	660.3	2873.82
826.41	660.2	2931.49
826.51	660.1	2875.04
826.61	660	2887.92
826.71	659.9	2924.5
826.81	659.8	2913.78
826.91	659.7	2795.36
827.01	659.6	2809.64
827.11	659.5	2942.41
827.21	659.4	2785.06
827.31	659.3	2936.17
827.41	659.2	2871.35
827.51	659.1	2876.49
827.61	659	2938.2
827.71	658.9	2945.65
827.81	658.8	2934.06
827.91	658.7	2851.87
828.01	658.6	3032.01
828.11	658.5	2927.19
828.21	658.4	2983.13
828.31	658.3	2946.44
828.41	658.2	2900.65
828.51	658.1	2918.79
828.61	658	2889.34
828.71	657.9	2962.15
828.81	657.8	2977.16
828.91	657.7	3005.93
829.01	657.6	2877.91
829.11	657.5	2924.18
829.21	657.4	2990.06
829.31	657.3	2968.83
829.41	657.2	2828.17
829.51	657.1	2809.61
829.61	657	2852.82
829.71	656.9	2949.16
829.81	656.8	2826.2
829.91	656.7	2858.58
830.01	656.6	2873.78
830.11	656.5	2863.76
830.21	656.4	2966
830.31	656.3	2929.44
830.41	656.2	2919.31
830.51	656.1	2839.35
830.61	656	2912.02
830.71	655.9	2951.6
830.81	655.8	2849.64
830.91	655.7	2929.17
831.01	655.6	3010.98
831.11	655.5	2882.19
831.21	655.4	2855.32
831.31	655.3	2950.1
831.41	655.2	2872.43
831.51	655.1	2871.01
831.61	655	2964.74
831.71	654.9	2933.12
831.81	654.8	2949.85
831.91	654.7	2958.46
832.01	654.6	2952.83
832.11	654.5	2954.23
832.21	654.4	3004.47
832.31	654.3	2978.31
832.41	654.2	3069.74
832.51	654.1	2948.28
832.61	654	2928.82
832.71	653.9	3051.25
832.81	653.8	3027.19
832.91	653.7	2980.96
833.01	653.6	2954.83
833.11	653.5	2976
833.21	653.4	2913
833.31	653.3	2990.3
833.41	653.2	3001.31
833.51	653.1	2925.27
833.61	653	2950.81
833.71	652.9	2933.81
833.81	652.8	2925.95
833.91	652.7	3020.01
834.01	652.6	3014.35
834.11	652.5	2941.42
834.21	652.4	2935.32
834.31	652.3	2986.12
834.41	652.2	3051.29
834.51	652.1	3003.15
834.61	652	2913.02
834.71	651.9	2955.59
834.81	651.8	3060.49
834.91	651.7	3116.49
835.01	651.6	3028.16
835.11	651.5	3105.59
835.21	651.4	3110.46
835.31	651.3	3103.36
835.41	651.2	3176.62
835.51	651.1	3031.55
835.61	651	2968.55
835.71	650.9	3055.52
835.81	650.8	3142.49
835.91	650.7	3094.08
836.01	650.6	2985.35
836.11	650.5	3045.08
836.21	650.4	2997.01
836.31	650.3	2996.65
836.41	650.2	3124.98
836.51	650.1	3097.84
836.61	650	3134.57
836.71	649.9	3140.34
836.81	649.8	3056.64
836.91	649.7	3121.47
837.01	649.6	3108.3
837.11	649.5	3085.5
837.21	649.4	3114.53
837.31	649.3	3111.06
837.41	649.2	3125.06
837.51	649.1	3183.85
837.61	649	3176.25
837.71	648.9	3213.38
837.81	648.8	3192.24
837.91	648.7	3174.57
838.01	648.6	3270.3
838.11	648.5	3286
838.21	648.4	3211.63
838.31	648.3	3270.59
838.41	648.2	3301.35
838.51	648.1	3262.88
838.61	648	3267.81
838.71	647.9	3283.58
838.81	647.8	3326.8
838.91	647.7	3309.03
839.01	647.6	3425.1
839.11	647.5	3438.56
839.21	647.4	3347.72
839.31	647.3	3401.45
839.41	647.2	3345.38
839.51	647.1	3418.97
839.61	647	3396.17
839.71	646.9	3455.83
839.81	646.8	3556.06
839.91	646.7	3583.78
840.01	646.6	3577.78
840.11	646.5	3602.84
840.21	646.4	3634.9
840.31	646.3	3642.46
840.41	646.2	3652.49
840.51	646.1	3698.52
840.61	646	3709.68
840.71	645.9	3672.57
840.81	645.8	3603.76
840.91	645.7	3730.19
841.01	645.6	3767.25
841.11	645.5	3699.48
841.21	645.4	3886.74
841.31	645.3	3856.03
841.41	645.2	3882.19
841.51	645.1	3775.35
841.61	645	3994.58
841.71	644.9	3905.84
841.81	644.8	3961.46
841.91	644.7	4034.62
842.01	644.6	4030.55
842.11	644.5	4053.91
842.21	644.4	4071.53
842.31	644.3	4052.53
842.41	644.2	4116.28
842.51	644.1	4159.21
842.61	644	4143.07
842.71	643.9	4207.69
842.81	643.8	4220.75
842.91	643.7	4306.28
843.01	643.6	4285.3
843.11	643.5	4215.73
843.21	643.4	4328.52
843.31	643.3	4341.54
843.41	643.2	4288.64
843.51	643.1	4314.16
843.61	643	4350.25
843.71	642.9	4383.04
843.81	642.8	4368.43
843.91	642.7	4382.59
844.01	642.6	4275.92
844.11	642.5	4322.24
844.21	642.4	4283.1
844.31	642.3	4304.66
844.41	642.2	4302.58
844.51	642.1	4308.47
844.61	642	4313.63
844.71	641.9	4255.95
844.81	641.8	4223.47
844.91	641.7	4216.7
845.01	641.6	4169.79
845.11	641.5	4173.81
845.21	641.4	4157.4
845.31	641.3	4113.23
845.41	641.2	4084.55
845.51	641.1	4066.67
845.61	641	4008.93
845.71	640.9	3954.98
845.81	640.8	4015.87
845.91	640.7	4004.23
846.01	640.6	3922.15
846.11	640.5	3759.31
846.21	640.4	3837.2
846.31	640.3	3835.69
846.41	640.2	3717.24
846.51	640.1	3634.3
846.61	640	3679.56
846.71	639.9	3700.71
846.81	639.8	3649.67
846.91	639.7	3559.59
847.01	639.6	3612.64
847.11	639.5	3544.33
847.21	639.4	3520.96
847.31	639.3	3446.98
847.41	639.2	3447.33
847.51	639.1	3393.82
847.61	639	3267.08
847.71	638.9	3341.03
847.81	638.8	3267.85
847.91	638.7	3204.88
848.01	638.6	3216.33
848.11	638.5	3229.12
848.21	638.4	3178.17
848.31	638.3	3301.86
848.41	638.2	3226.85
848.51	638.1	3113.07
848.61	638	3101.69
848.71	637.9	3063.25
848.81	637.8	3038.43
848.91	637.7	3093.56
849.01	637.6	3110.21
849.11	637.5	2944.73
849.21	637.4	3047.52
849.31	637.3	3024.27
849.41	637.2	2919.56
849.51	637.1	2998.48
849.61	637	3036.27
849.71	636.9	3027.99
849.81	636.8	2955.94
849.91	636.7	2916.7
850.01	636.6	2889.75
850.11	636.5	2935.41
850.21	636.4	2933.86
850.31	636.3	2906.88
850.41	636.2	2845.27
850.51	636.1	2790.75
850.61	636	2836.74
850.71	635.9	2834.1
850.81	635.8	2848.95
850.91	635.7	2890.74
851.01	635.6	2821.76
851.11	635.5	2779.54
851.21	635.4	2817.23
851.31	635.3	2808.42
851.41	635.2	2800.9
851.51	635.1	2718.32
851.61	635	2766.18
851.71	634.9	2787.36
851.81	634.8	2753.68
851.91	634.7	2686.67
852.01	634.6	2653.72
852.11	634.5	2698.27
852.21	634.4	2671.09
852.31	634.3	2644.78
852.41	634.2	2627.53
852.51	634.1	2629.22
852.61	634	2725
852.71	633.9	2757.86
852.81	633.8	2668.81
852.91	633.7	2682.1
853.01	633.6	2719.58
853.11	633.5	2674.03
853.21	633.4	2627.92
853.31	633.3	2570.1
853.41	633.2	2586.15
853.51	633.1	2546.07
853.61	633	2668.32
853.71	632.9	2697.84
853.81	632.8	2666.09
853.91	632.7	2609.71
854.01	632.6	2523.66
854.11	632.5	2520.75
854.21	632.4	2629.27
854.31	632.3	2591.65
854.41	632.2	2618.37
854.51	632.1	2654.22
854.61	632	2579.9
854.71	631.9	2538.05
854.81	631.8	2610.13
854.91	631.7	2548.18
855.01	631.6	2605.6
855.11	631.5	2654.62
855.21	631.4	2654.83
855.31	631.3	2620.12
855.41	631.2	2506.33
855.51	631.1	2434.81
855.61	631	2539.76
855.71	630.9	2541.95
855.81	630.8	2544.23
855.91	630.7	2509.78
856.01	630.6	2534.19
856.11	630.5	2589.57
856.21	630.4	2485.72
856.31	630.3	2557.84
856.41	630.2	2519.28
856.51	630.1	2598.56
856.61	630	2584.28
856.71	629.9	2502.16
856.81	629.8	2422.04
856.91	629.7	2454.49
857.01	629.6	2542.8
857.11	629.5	2602.91
857.21	629.4	2453.59
857.31	629.3	2395.77
857.41	629.2	2532.98
857.51	629.1	2493.8
857.61	629	2493.07
857.71	628.9	2497.69
857.81	628.8	2475.47
857.91	628.7	2488.48
858.01	628.6	2486.99
858.11	628.5	2404.97
858.21	628.4	2395.24
858.31	628.3	2430.65
858.41	628.2	2483
858.51	628.1	2593.78
858.61	628	2426.95
858.71	627.9	2558
858.81	627.8	2576.84
858.91	627.7	2486.08
859.01	627.6	2430.09
859.11	627.5	2376.77
859.21	627.4	2443.17
859.31	627.3	2525.88
859.41	627.2	2516.79
859.51	627.1	2454.83
859.61	627	2462.27
859.71	626.9	2366.11
859.81	626.8	2440.75
859.91	626.7	2509.6
860.01	626.6	2419.94
860.11	626.5	2494.84
860.21	626.4	2497.51
860.31	626.3	2435.85
860.41	626.2	2425.73
860.51	626.1	2458.07
860.61	626	2436.57
860.71	625.9	2418.21
860.81	625.8	2444.45
860.91	625.7	2482.48
861.01	625.6	2483.16
861.11	625.5	2443.89
861.21	625.4	2457.63
861.31	625.3	2465.03
861.41	625.2	2461.34
861.51	625.1	2398.87
861.61	625	2446.67
861.71	624.9	2512.54
861.81	624.8	2434.58
861.91	624.7	2455.65
862.01	624.6	2506.98
862.11	624.5	2439.25
862.21	624.4	2424.55
862.31	624.3	2583.75
862.41	624.2	2497.62
862.51	624.1	2511.12
862.61	624	2415.58
862.71	623.9	2468.95
862.81	623.8	2485.78
862.91	623.7	2486.61
863.01	623.6	2452.88
863.11	623.5	2494.71
863.21	623.4	2480.34
863.31	623.3	2470.57
863.41	623.2	2492.13
863.51	623.1	2451.2
863.61	623	2476.23
863.71	622.9	2468.75
863.81	622.8	2443.52
863.91	622.7	2421.98
864.01	622.6	2402.94
864.11	622.5	2540.27
864.21	622.4	2454.1
864.31	622.3	2377.19
864.41	622.2	2466.52
864.51	622.1	2519.68
864.61	622	2573.24
864.71	621.9	2439.83
864.81	621.8	2478.92
864.91	621.7	2422.34
865.01	621.6	2489.27
865.11	621.5	2424.29
865.21	621.4	2370.92
865.31	621.3	2385.81
865.41	621.2	2424.3
865.51	621.1	2484.39
865.61	621	2407.44
865.71	620.9	2418.96
865.81	620.8	2388.75
865.91	620.7	2481.34
866.01	620.6	2421.63
866.11	620.5	2397.28
866.21	620.4	2442.9
866.31	620.3	2448.45
866.41	620.2	2459.17
866.51	620.1	2398.36
866.61	620	2413.34
866.71	619.9	2383.63
866.81	619.8	2401.31
866.91	619.7	2442.43
867.01	619.6	2557.71
867.11	619.5	2503.6
867.21	619.4	2446.25
867.31	619.3	2397.93
867.41	619.2	2471.18
867.51	619.1	2498.06
867.61	619	2509.51
867.71	618.9	2474.95
867.81	618.8	2396.6
867.91	618.7	2343.98
868.01	618.6	2527.43
868.11	618.5	2485.54
868.21	618.4	2470.25
868.31	618.3	2425.59
868.41	618.2	2505.81
868.51	618.1	2499.65
868.61	618	2521.13
868.71	617.9	2477.14
868.81	617.8	2432.64
868.91	617.7	2578.42
869.01	617.6	2420.93
869.11	617.5	2427.77
869.21	617.4	2436.01
869.31	617.3	2511.02
869.41	617.2	2402.99
869.51	617.1	2428.06
869.61	617	2489.37
869.71	616.9	2471.87
869.81	616.8	2493.98
869.91	616.7	2494.25
870.01	616.6	2419.22
870.11	616.5	2410.69
870.21	616.4	2568.12
870.31	616.3	2563.76
870.41	616.2	2565.13
870.51	616.1	2514.96
870.61	616	2499.43
870.71	615.9	2480.03
870.81	615.8	2480.93
870.91	615.7	2506.29
871.01	615.6	2558.29
871.11	615.5	2576.79
871.21	615.4	2546.69
871.31	615.3	2574.32
871.41	615.2	2569.58
871.51	615.1	2457.38
871.61	615	2351.74
871.71	614.9	2515
871.81	614.8	2507.86
871.91	614.7	2521.82
872.01	614.6	2460.31
872.11	614.5	2472.74
872.21	614.4	2489.43
872.31	614.3	2571.42
872.41	614.2	2501.15
872.51	614.1	2526.21
872.61	614	2506.43
872.71	613.9	2502.45
872.81	613.8	2503.44
872.91	613.7	2469.6
873.01	613.6	2470.78
873.11	613.5	2537.61
873.21	613.4	2542.53
873.31	613.3	2480.64
873.41	613.2	2442.5
873.51	613.1	2440.18
873.61	613	2456.57
873.71	612.9	2457.95
873.81	612.8	2496.83
873.91	612.7	2536.58
874.01	612.6	2474.23
874.11	612.5	2526.05
874.21	612.4	2535.93
874.31	612.3	2545.84
874.41	612.2	2533.06
874.51	612.1	2481.6
874.61	612	2516.88
874.71	611.9	2561.39
874.81	611.8	2404.7
874.91	611.7	2433.61
875.01	611.6	2494.49
875.11	611.5	2521.43
875.21	611.4	2503.88
875.31	611.3	2473.82
875.41	611.2	2567.92
875.51	611.1	2557.93
875.61	611	2432.44
875.71	610.9	2484.51
875.81	610.8	2607.18
875.91	610.7	2535.49
876.01	610.6	2534.42
876.11	610.5	2444.76
876.21	610.4	2494.6
876.31	610.3	2538.3
876.41	610.2	2414.13
876.51	610.1	2408.3
876.61	610	2559.77
876.71	609.9	2517.3
876.81	609.8	2455.16
876.91	609.7	2554.93
877.01	609.6	2594.03
877.11	609.5	2540.16
877.21	609.4	2513.55
877.31	609.3	2512.45
877.41	609.2	2497.54
877.51	609.1	2395.9
877.61	609	2472.26
877.71	608.9	2552.72
877.81	608.8	2480.32
877.91	608.7	2525.27
878.01	608.6	2522.36
878.11	608.5	2501.06
878.21	608.4	2542.44
878.31	608.3	2573.37
878.41	608.2	2565.92
878.51	608.1	2535.44
878.61	608	2502.5
878.71	607.9	2459.58
878.81	607.8	2502.07
878.91	607.7	2514.22
879.01	607.6	2571.97
879.11	607.5	2589.09
879.21	607.4	2627.07
879.31	607.3	2613.69
879.41	607.2	2624.23
879.51	607.1	2646.51
879.61	607	2525.43
879.71	606.9	2477.24
879.81	606.8	2565.99
879.91	606.7	2578.6
880.01	606.6	2492.57
880.11	606.5	2516.98
880.21	606.4	2597.59
880.31	606.3	2598.1
880.41	606.2	2593.68
880.51	606.1	2592.25
880.61	606	2605.52
880.71	605.9	2639.39
880.81	605.8	2538.27
880.91	605.7	2503.9
881.01	605.6	2564.74
881.11	605.5	2649.01
881.21	605.4	2698.81
881.31	605.3	2567.01
881.41	605.2	2546.85
881.51	605.1	2610.38
881.61	605	2559.44
881.71	604.9	2633.37
881.81	604.8	2596.24
881.91	604.7	2568.77
882.01	604.6	2578.8
882.11	604.5	2552.99
882.21	604.4	2568.25
882.31	604.3	2569.85
882.41	604.2	2531.31
882.51	604.1	2629.53
882.61	604	2546.29
882.71	603.9	2605.31
882.81	603.8	2615.77
882.91	603.7	2559.63
883.01	603.6	2637.35
883.11	603.5	2608.37
883.21	603.4	2600.69
883.31	603.3	2569.41
883.41	603.2	2528.89
883.51	603.1	2605.94
883.61	603	2590.46
883.71	602.9	2584.14
883.81	602.8	2511.89
883.91	602.7	2582.41
884.01	602.6	2634.09
884.11	602.5	2573.27
884.21	602.4	2647.81
884.31	602.3	2636.59
884.41	602.2	2576.4
884.51	602.1	2636.88
884.61	602	2615.15
884.71	601.9	2608.43
884.81	601.8	2536.97
884.91	601.7	2614.21
885.01	601.6	2538.94
885.11	601.5	2585.98
885.21	601.4	2595.79
885.31	601.3	2679.66
885.41	601.2	2584.19
885.51	601.1	2486.39
885.61	601	2494.59
885.71	600.9	2561.96
885.81	600.8	2572.39
885.91	600.7	2615.66
886.01	600.6	2612.15
886.11	600.5	2604.62
886.21	600.4	2605.28
886.31	600.3	2573.31
886.41	600.2	2597.23
886.51	600.1	2582.69
886.61	600	2500.75
886.71	599.9	2516.98
886.81	599.8	2539.47
886.91	599.7	2717.32
887.01	599.6	2576.91
887.11	599.5	2697.76
887.21	599.4	2653.29
887.31	599.3	2504.67
887.41	599.2	2644.62
887.51	599.1	2568.14
887.61	599	2619.06
887.71	598.9	2669.97
887.81	598.8	2621.95
887.91	598.7	2592.47
888.01	598.6	2638.61
888.11	598.5	2679.43
888.21	598.4	2671.94
888.31	598.3	2705.41
888.41	598.2	2629.29
888.51	598.1	2643.27
888.61	598	2597.87
888.71	597.9	2628.11
888.81	597.8	2593.29
888.91	597.7	2560.86
889.01	597.6	2553.09
889.11	597.5	2544.03
889.21	597.4	2579.2
889.31	597.3	2575.43
889.41	597.2	2590.07
889.51	597.1	2597.73
889.61	597	2632.43
889.71	596.9	2604.06
889.81	596.8	2554.79
889.91	596.7	2581.49
890.01	596.6	2684.28
890.11	596.5	2778.41
890.21	596.4	2700.97
890.31	596.3	2686.46
890.41	596.2	2605.89
890.51	596.1	2641.84
890.61	596	2615
890.71	595.9	2511.49
890.81	595.8	2705.24
890.91	595.7	2680.86
891.01	595.6	2710.01
891.11	595.5	2623.16
891.21	595.4	2647.18
891.31	595.3	2664.5
891.41	595.2	2693.08
891.51	595.1	2646.56
891.61	595	2690.87
891.71	594.9	2725.81
891.81	594.8	2591.46
891.91	594.7	2596.3
892.01	594.6	2651.58
892.11	594.5	2657.29
892.21	594.4	2624.96
892.31	594.3	2707.7
892.41	594.2	2796.44
892.51	594.1	2657.34
892.61	594	2629.31
892.71	593.9	2687.98
892.81	593.8	2673.11
892.91	593.7	2681.68
893.01	593.6	2641.68
893.11	593.5	2673.44
893.21	593.4	2660.87
893.31	593.3	2638.73
893.41	593.2	2637.86
893.51	593.1	2674.62
893.61	593	2599.75
893.71	592.9	2705.91
893.81	592.8	2790.43
893.91	592.7	2635.02
894.01	592.6	2657.48
894.11	592.5	2631.66
894.21	592.4	2660.65
894.31	592.3	2662.14
894.41	592.2	2673.92
894.51	592.1	2710.7
894.61	592	2601.62
894.71	591.9	2730.1
894.81	591.8	2783.52
894.91	591.7	2725.29
895.01	591.6	2679.41
895.11	591.5	2695.82
895.21	591.4	2816.46
895.31	591.3	2704.97
895.41	591.2	2738.21
895.51	591.1	2685.68
895.61	591	2639.69
895.71	590.9	2670.09
895.81	590.8	2701.23
895.91	590.7	2712.66
896.01	590.6	2639.4
896.11	590.5	2737.73
896.21	590.4	2699.36
896.31	590.3	2769.79
896.41	590.2	2767.32
896.51	590.1	2647.78
896.61	590	2679.78
896.71	589.9	2652.91
896.81	589.8	2686
896.91	589.7	2707.86
897.01	589.6	2711.95
897.11	589.5	2685.2
897.21	589.4	2662.16
897.31	589.3	2603.51
897.41	589.2	2694.83
897.51	589.1	2723.28
897.61	589	2665.06
897.71	588.9	2702.68
897.81	588.8	2748.19
897.91	588.7	2729.07
898.01	588.6	2768.22
898.11	588.5	2707.43
898.21	588.4	2682.31
898.31	588.3	2695.32
898.41	588.2	2720.29
898.51	588.1	2690
898.61	588	2570.67
898.71	587.9	2719.31
898.81	587.8	2702.94
898.91	587.7	2769.64
899.01	587.6	2755.28
899.11	587.5	2695.15
899.21	587.4	2738.98
899.31	587.3	2753.64
899.41	587.2	2687
899.51	587.1	2627.67
899.61	587	2714.39
899.71	586.9	2818.42
899.81	586.8	2852.24
899.91	586.7	2775.07
900.01	586.6	2595.96
900.11	586.5	2686.95
900.21	586.4	2620.07
900.31	586.3	2724.75
900.41	586.2	2805.04
900.51	586.1	2799.92
900.61	586	2807.77
900.71	585.9	2831.65
900.81	585.8	2773.83
900.91	585.7	2802.78
901.01	585.6	2744.62
901.11	585.5	2712.3
901.21	585.4	2713.1
901.31	585.3	2830.18
901.41	585.2	2751.58
901.51	585.1	2702.02
901.61	585	2678.69
901.71	584.9	2812.53
901.81	584.8	2907.66
901.91	584.7	2826.23
902.01	584.6	2811.83
902.11	584.5	2798.09
902.21	584.4	2909.39
902.31	584.3	2860.42
902.41	584.2	2822.01
902.51	584.1	2863.71
902.61	584	2865.36
902.71	583.9	2802.35
902.81	583.8	2794.34
902.91	583.7	2820.23
903.01	583.6	2828.68
903.11	583.5	2916.67
903.21	583.4	2860.05
903.31	583.3	2770.5
903.41	583.2	2733.15
903.51	583.1	2781.2
903.61	583	2766.44
903.71	582.9	2753.02
903.81	582.8	2831.67
903.91	582.7	2864.81
904.01	582.6	2856.98
904.11	582.5	2790.89
904.21	582.4	2799.69
904.31	582.3	3003.53
904.41	582.2	2873.77
904.51	582.1	2836.27
904.61	582	2906.87
904.71	581.9	2914.03
904.81	581.8	2906.8
904.91	581.7	2908.49
905.01	581.6	2917.32
905.11	581.5	2957.71
905.21	581.4	2973.24
905.31	581.3	2863.7
905.41	581.2	2888.09
905.51	581.1	2867.57
905.61	581	2823.86
905.71	580.9	2850.55
905.81	580.8	2857.37
905.91	580.7	2878.25
906.01	580.6	2855.36
906.11	580.5	2893.24
906.21	580.4	2870.52
906.31	580.3	2874.3
906.41	580.2	2864.08
906.51	580.1	2826.49
906.61	580	2875.66
906.71	579.9	2823.63
906.81	579.8	2877.07
906.91	579.7	3051.61
907.01	579.6	3030.31
907.11	579.5	3016.58
907.21	579.4	2792.24
907.31	579.3	2874.44
907.41	579.2	2824.87
907.51	579.1	2938
907.61	579	2867.63
907.71	578.9	2937.45
907.81	578.8	3018.84
907.91	578.7	3027.87
908.01	578.6	3028.99
908.11	578.5	2978.61
908.21	578.4	2992.4
908.31	578.3	2890.75
908.41	578.2	2894.03
908.51	578.1	2828.14
908.61	578	2900.46
908.71	577.9	2912.14
908.81	577.8	2894.58
908.91	577.7	2956.22
909.01	577.6	2951.47
909.11	577.5	2953.81
909.21	577.4	3055.11
909.31	577.3	2934.58
909.41	577.2	2894.99
909.51	577.1	2892.95
909.61	577	2916.79
909.71	576.9	2904.82
909.81	576.8	3015.68
909.91	576.7	3041.25
910.01	576.6	2978.21
910.11	576.5	2992.47
910.21	576.4	3157.06
910.31	576.3	3001.71
910.41	576.2	2968.4
910.51	576.1	2833.52
910.61	576	2839.18
910.71	575.9	2878.83
910.81	575.8	2898.68
910.91	575.7	2921.76
911.01	575.6	2959.71
911.11	575.5	3017.52
911.21	575.4	2993.93
911.31	575.3	2965.21
911.41	575.2	2969.55
911.51	575.1	2904.19
911.61	575	3007.46
911.71	574.9	3002.53
911.81	574.8	2963.47
911.91	574.7	2922.8
912.01	574.6	3043.23
912.11	574.5	2979.76
912.21	574.4	2858.59
912.31	574.3	2894.92
912.41	574.2	3004.71
912.51	574.1	3086.41
912.61	574	3044.83
912.71	573.9	2986.62
912.81	573.8	3061.17
912.91	573.7	2982.56
913.01	573.6	3058.28
913.11	573.5	3041.43
913.21	573.4	3121.98
913.31	573.3	3104.02
913.41	573.2	3106.4
913.51	573.1	3023.88
913.61	573	3003.32
913.71	572.9	3093.4
913.81	572.8	3157.17
913.91	572.7	3033.74
914.01	572.6	3053.68
914.11	572.5	3033.41
914.21	572.4	3057.48
914.31	572.3	3165.85
914.41	572.2	3187.98
914.51	572.1	3170.57
914.61	572	3107.24
914.71	571.9	3072.09
914.81	571.8	3134.65
914.91	571.7	3049.31
915.01	571.6	3060.1
915.11	571.5	3039.95
915.21	571.4	3047.7
915.31	571.3	3055.09
915.41	571.2	3067
915.51	571.1	3104.68
915.61	571	3107.03
915.71	570.9	3052.77
915.81	570.8	3079.98
915.91	570.7	2961.46
916.01	570.6	3075.33
916.11	570.5	3093.57
916.21	570.4	3063.41
916.31	570.3	3047.54
916.41	570.2	3010.44
916.51	570.1	3061.01
916.61	570	3104.77
916.71	569.9	3122.14
916.81	569.8	3056.4
916.91	569.7	2947.86
917.01	569.6	3175.85
917.11	569.5	3100.77
917.21	569.4	3090.89
917.31	569.3	3026.48
917.41	569.2	3045.53
917.51	569.1	3026.85
917.61	569	3027.77
917.71	568.9	3129.81
917.81	568.8	3106.43
917.91	568.7	3007.91
918.01	568.6	3022.98
918.11	568.5	3073.79
918.21	568.4	3085.87
918.31	568.3	3076.07
918.41	568.2	2969.74
918.51	568.1	3084.81
918.61	568	3096.81
918.71	567.9	3158.91
918.81	567.8	3048.98
918.91	567.7	3049.58
919.01	567.6	2993
919.11	567.5	3031.97
919.21	567.4	2995.62
919.31	567.3	3038.08
919.41	567.2	3035.61
919.51	567.1	2947.79
919.61	567	2957.88
919.71	566.9	2976.17
919.81	566.8	2933.95
919.91	566.7	3014.83
920.01	566.6	2876.75
920.11	566.5	2915.63
920.21	566.4	2872.57
920.31	566.3	2929.42
920.41	566.2	2851.93
920.51	566.1	2880.04
920.61	566	2783.17
920.71	565.9	2789.98
920.81	565.8	2878.28
920.91	565.7	2826.85
921.01	565.6	2778.45
921.11	565.5	2662.69
921.21	565.4	2677.58
921.31	565.3	2681.31
921.41	565.2	2632.44
921.51	565.1	2650.5
921.61	565	2715.79
921.71	564.9	2638.09
921.81	564.8	2706.61
921.91	564.7	2762.26
922.01	564.6	2670.78
922.11	564.5	2632.17
922.21	564.4	2659.92
922.31	564.3	2668.7
922.41	564.2	2717.02
922.51	564.1	2533.56
922.61	564	2585.78
922.71	563.9	2653.35
922.81	563.8	2588.8
922.91	563.7	2664.74
923.01	563.6	2697.91
923.11	563.5	2774.15
923.21	563.4	2662.65
923.31	563.3	2590.32
923.41	563.2	2535.59
923.51	563.1	2588.32
923.61	563	2535.52
923.71	562.9	2618.92
923.81	562.8	2582.75
923.91	562.7	2486.78
924.01	562.6	2450.14
924.11	562.5	2551.66
924.21	562.4	2631.79
924.31	562.3	2608.81
924.41	562.2	2489.57
924.51	562.1	2536.49
924.61	562	2525.17
924.71	561.9	2521.49
924.81	561.8	2508.54
924.91	561.7	2564.52
925.01	561.6	2615
925.11	561.5	2586.98
925.21	561.4	2573.82
925.31	561.3	2571.4
925.41	561.2	2479.04
925.51	561.1	2587.55
925.61	561	2591.99
925.71	560.9	2564.89
925.81	560.8	2470.26
925.91	560.7	2479.46
926.01	560.6	2536.36
926.11	560.5	2523.63
926.21	560.4	2486
926.31	560.3	2520.63
926.41	560.2	2475.26
926.51	560.1	2537.15
926.61	560	2604.41
926.71	559.9	2570
926.81	559.8	2534.33
926.91	559.7	2584.05
927.01	559.6	2547.27
927.11	559.5	2569.72
927.21	559.4	2580.71
927.31	559.3	2528.79
927.41	559.2	2439.58
927.51	559.1	2536.69
927.61	559	2484.34
927.71	558.9	2548.65
927.81	558.8	2618.4
927.91	558.7	2614.47
928.01	558.6	2529.78
928.11	558.5	2604.76
928.21	558.4	2558.1
928.31	558.3	2522.44
928.41	558.2	2610.97
928.51	558.1	2589.51
928.61	558	2467.81
928.71	557.9	2529.75
928.81	557.8	2470.91
928.91	557.7	2576.84
929.01	557.6	2626.81
929.11	557.5	2583.34
929.21	557.4	2617.73
929.31	557.3	2537.19
929.41	557.2	2559.12
929.51	557.1	2591.71
929.61	557	2540.03
929.71	556.9	2580.68
929.81	556.8	2615.01
929.91	556.7	2662.92
930.01	556.6	2619.94
930.11	556.5	2602.33
930.21	556.4	2567.51
930.31	556.3	2700.89
930.41	556.2	2719.4
930.51	556.1	2684.08
930.61	556	2647.16
930.71	555.9	2621.71
930.81	555.8	2601.35
930.91	555.7	2547.12
931.01	555.6	2679.16
931.11	555.5	2608.13
931.21	555.4	2655.24
931.31	555.3	2685.24
931.41	555.2	2749.34
931.51	555.1	2711.68
931.61	555	2672.38
931.71	554.9	2644.08
931.81	554.8	2631.14
931.91	554.7	2779.44
932.01	554.6	2716.03
932.11	554.5	2740.96
932.21	554.4	2765.49
932.31	554.3	2727.34
932.41	554.2	2733.73
932.51	554.1	2849.06
932.61	554	2780.01
932.71	553.9	2827.87
932.81	553.8	2817.05
932.91	553.7	2909.47
933.01	553.6	2935.09
933.11	553.5	2892.74
933.21	553.4	2895.72
933.31	553.3	2951.4
933.41	553.2	2927.95
933.51	553.1	2903.43
933.61	553	2957.57
933.71	552.9	3121.25
933.81	552.8	3089.19
933.91	552.7	3121.16
934.01	552.6	3141.1
934.11	552.5	3107.27
934.21	552.4	3137.81
934.31	552.3	3325.85
934.41	552.2	3248.95
934.51	552.1	3329.22
934.61	552	3391.95
934.71	551.9	3394.42
934.81	551.8	3380.81
934.91	551.7	3439.88
935.01	551.6	3464.17
935.11	551.5	3445.97
935.21	551.4	3528.86
935.31	551.3	3588.85
935.41	551.2	3634.14
935.51	551.1	3778.63
935.61	551	3753.86
935.71	550.9	3769.68
935.81	550.8	3955.73
935.91	550.7	4055.89
936.01	550.6	4107.1
936.11	550.5	4135.39
936.21	550.4	4149.34
936.31	550.3	4208.72
936.41	550.2	4280.47
936.51	550.1	4333.58
936.61	550	4552.29
936.71	549.9	4729.44
936.81	549.8	4821.61
936.91	549.7	4836.76
937.01	549.6	4866.63
937.11	549.5	5021.27
937.21	549.4	5172.01
937.31	549.3	5360.98
937.41	549.2	5496.79
937.51	549.1	5491.29
937.61	549	5644.26
937.71	548.9	5774.63
937.81	548.8	5869.39
937.91	548.7	6146.59
938.01	548.6	6369.86
938.11	548.5	6501.45
938.21	548.4	6555.25
938.31	548.3	6828.98
938.41	548.2	6904.64
938.51	548.1	7196.23
938.61	548	7266.79
938.71	547.9	7438.52
938.81	547.8	7556.57
938.91	547.7	7644.43
939.01	547.6	7848.52
939.11	547.5	7983.87
939.21	547.4	8066.66
939.31	547.3	8277.68
939.41	547.2	8537.49
939.51	547.1	8509.58
939.61	547	8777.56
939.71	546.9	8826.11
939.81	546.8	8867.69
939.91	546.7	8994.9
940.01	546.6	8950.25
940.11	546.5	8892.43
940.21	546.4	8848.3
940.31	546.3	8922.51
940.41	546.2	8804.92
940.51	546.1	8800.56
940.61	546	8669.2
940.71	545.9	8577.44
940.81	545.8	8380.54
940.91	545.7	8276.68
941.01	545.6	8123.05
941.11	545.5	7887.59
941.21	545.4	7859.45
941.31	545.3	7604.25
941.41	545.2	7499.59
941.51	545.1	7148.58
941.61	545	6925.25
941.71	544.9	6684.71
941.81	544.8	6535.91
941.91	544.7	6366.77
942.01	544.6	6203.33
942.11	544.5	6016.79
942.21	544.4	5811.08
942.31	544.3	5558.44
942.41	544.2	5457.43
942.51	544.1	5233.15
942.61	544	5070.1
942.71	543.9	4866.52
942.81	543.8	4604.44
942.91	543.7	4535.33
943.01	543.6	4425.48
943.11	543.5	4083.9
943.21	543.4	4083.48
943.31	543.3	3940.33
943.41	543.2	3789.61
943.51	543.1	3713.13
943.61	543	3525.71
943.71	542.9	3413.32
943.81	542.8	3370.4
943.91	542.7	3250.97
944.01	542.6	3167.98
944.11	542.5	3089.79
944.21	542.4	2999.8
944.31	542.3	2881.44
944.41	542.2	2800.24
944.51	542.1	2665.92
944.61	542	2576.65
944.71	541.9	2465.76
944.81	541.8	2388.86
944.91	541.7	2381.7
945.01	541.6	2297.5
945.11	541.5	2197.3
945.21	541.4	2173.93
945.31	541.3	2100.99
945.41	541.2	2086.53
945.51	541.1	1954.59
945.61	541	1987.92
945.71	540.9	1868.48
945.81	540.8	1844.71
945.91	540.7	1901.77
946.01	540.6	1780.96
946.11	540.5	1786.15
946.21	540.4	1825.41
946.31	540.3	1617.34
946.41	540.2	1629.29
946.51	540.1	1550.58
946.61	540	1443.4
946.71	539.9	1501.09
946.81	539.8	1485.74
946.91	539.7	1459.63
947.01	539.6	1268.38
947.11	539.5	1375.53
947.21	539.4	1322.32
947.31	539.3	1297.3
947.41	539.2	1279.78
947.51	539.1	1220.66
947.61	539	1240.97
947.71	538.9	1265.69
947.81	538.8	1185.33
947.91	538.7	1166.91
948.01	538.6	1166.16
948.11	538.5	1194.2
948.21	538.4	1017.17
948.31	538.3	1119.98
948.41	538.2	1020.09
948.51	538.1	965.197
948.61	538	1005.47
948.71	537.9	985.275
948.81	537.8	962.646
948.91	537.7	1062.05
949.01	537.6	927.387
949.11	537.5	898.089
949.21	537.4	846.891
949.31	537.3	954.192
949.41	537.2	901.859
949.51	537.1	876.892
949.61	537	808.324
949.71	536.9	810.955
949.81	536.8	823.719
949.91	536.7	896.649
950.01	536.6	891.079
950.11	536.5	796.074
950.21	536.4	783.668
950.31	536.3	640.729
950.41	536.2	663.089
950.51	536.1	656.548
950.61	536	719.773
950.71	535.9	685.997
950.81	535.8	774.154
950.91	535.7	697.377
951.01	535.6	725.3
951.11	535.5	766.321
951.21	535.4	769.609
951.31	535.3	651.962
951.41	535.2	645.515
951.51	535.1	634.068
951.61	535	630.619
951.71	534.9	609.67
951.81	534.8	651.42
951.91	534.7	668.503
952.01	534.6	687.552
952.11	534.5	691.9
952.21	534.4	645.814
952.31	534.3	672.128
952.41	534.2	678.041
952.51	534.1	668.42
952.61	534	562.332
952.71	533.9	592.209
952.81	533.8	602.853
952.91	533.7	548.362
953.01	533.6	657.772
953.11	533.5	667.647
953.21	533.4	665.488
953.31	533.3	729.695
953.41	533.2	796.901
953.51	533.1	815.54
953.61	533	629.146
953.71	532.9	650.984
953.81	532.8	762.021
953.91	532.7	691.158
954.01	532.6	758.927
954.11	532.5	719.329
954.21	532.4	696.531
954.31	532.3	711.432
954.41	532.2	707.899
954.51	532.1	654.165
954.61	532	621.164
954.71	531.9	704.363
954.81	531.8	589.294
954.91	531.7	590.925
955.01	531.6	600.755
955.11	531.5	632.917
955.21	531.4	543.98
955.31	531.3	505.041
955.41	531.2	452.235
955.51	531.1	492.796
955.61	531	517.589
955.71	530.9	438.182
955.81	530.8	417.307
955.91	530.7	437.999
956.01	530.6	443.756
956.11	530.5	338.413
956.21	530.4	298.003
956.31	530.3	328.259
956.41	530.2	373.647
956.51	530.1	284.335
956.61	530	282.056
956.71	529.9	270.177
956.81	529.8	334.463
956.91	529.7	300.449
957.01	529.6	278.934
957.11	529.5	368.652
957.21	529.4	361.037
957.31	529.3	295.087
957.41	529.2	385.903
957.51	529.1	417.386
957.61	529	314.435
957.71	528.9	362.816
957.81	528.8	320.031
957.91	528.7	313.311
958.01	528.6	301.224
958.11	528.5	290.137
958.21	528.4	368.649
958.31	528.3	305.061
958.41	528.2	207.272
958.51	528.1	226.05
958.61	528	253.06
958.71	527.9	244.836
958.81	527.8	197.112
958.91	527.7	212.588
959.01	527.6	230.296
959.11	527.5	305.437
959.21	527.4	337.011
959.31	527.3	334.018
959.41	527.2	263.09
959.51	527.1	290.396
959.61	527	389.435
959.71	526.9	278.806
959.81	526.8	297.977
959.91	526.7	231.848
960.01	526.6	212.384
960.11	526.5	199.22
960.21	526.4	150.789
960.31	526.3	299.425
960.41	526.2	271.326
960.51	526.1	264.927
960.61	526	298.994
960.71	525.9	247.828
960.81	525.8	207.227
960.91	525.7	214.793
961.01	525.6	260.292
961.11	525.5	168.857
961.21	525.4	214.421
961.31	525.3	287.019
961.41	525.2	229.149
961.51	525.1	245.045
961.61	525	232.741
961.71	524.9	261.47
961.81	524.8	134.932
961.91	524.7	221.493
962.01	524.6	135.621
962.11	524.5	162.115
962.21	524.4	192.475
962.31	524.3	212.201
962.41	524.2	206.127
962.51	524.1	239.486
962.61	524	181.811
962.71	523.9	151.869
962.81	523.8	223.193
962.91	523.7	183.251
963.01	523.6	184.841
963.11	523.5	184.297
963.21	523.4	77.353
963.31	523.3	118.042
963.41	523.2	178.697
963.51	523.1	237.419
963.61	523	236.073
963.71	522.9	140.06
963.81	522.8	128.481
963.91	522.7	54.6338
964.01	522.6	131.82
964.11	522.5	183.272
964.21	522.4	267.558
964.31	522.3	257.343
964.41	522.2	138.694
964.51	522.1	39.2786
964.61	522	139.263
964.71	521.9	274.846
964.81	521.8	87.796
964.91	521.7	114.679
965.01	521.6	139.095
965.11	521.5	137.01
965.21	521.4	139.892
965.31	521.3	142.273
965.41	521.2	156.988
965.51	521.1	230.835
965.61	521	164.315
965.71	520.9	195.996
965.81	520.8	191.209
965.91	520.7	228.688
966.01	520.6	151.034
966.11	520.5	112.646
966.21	520.4	85.1906
966.31	520.3	189.569
966.41	520.2	134.013
966.51	520.1	57.8904
966.61	520	172.234
966.71	519.9	164.944
966.81	519.8	160.654
966.91	519.7	94.5634
967.01	519.6	136.273
967.11	519.5	150.148
967.21	519.4	160.757
967.31	519.3	139.798
967.41	519.2	79.4393
967.51	519.1	75.2135
967.61	519	168.288
967.71	518.9	184.561
967.81	518.8	96.9679
967.91	518.7	93.7076
968.01	518.6	151.98
968.11	518.5	139.353
968.21	518.4	104.259
968.31	518.3	23.4305
968.41	518.2	107.602
968.51	518.1	130.574
968.61	518	109.578
968.71	517.9	109.282
968.81	517.8	83.9527
968.91	517.7	189.923
969.01	517.6	128.326
969.11	517.5	174.563
969.21	517.4	103.932
969.31	517.3	47.8016
969.41	517.2	129.137
969.51	517.1	115.639
969.61	517	123.975
969.71	516.9	177.509
969.81	516.8	81.1108
969.91	516.7	98.5118
970.01	516.6	138.213
970.11	516.5	161.98
970.21	516.4	101.98
970.31	516.3	149.68
970.41	516.2	162.147
970.51	516.1	-6.71995
970.61	516	140.313
970.71	515.9	155.545
970.81	515.8	85.911
970.91	515.7	89.0765
971.01	515.6	113.808
971.11	515.5	113.207
971.21	515.4	104.038
971.31	515.3	174.469
971.41	515.2	146.234
971.51	515.1	4.36464
971.61	515	86.4619
971.71	514.9	61.7924
971.81	514.8	143.356
971.91	514.7	199.419
972.01	514.6	98.5158
972.11	514.5	172.879
972.21	514.4	131.375
972.31	514.3	82.2375
972.41	514.2	79.8999
972.51	514.1	111.962
972.61	514	30.1242
972.71	513.9	78.0861
972.81	513.8	129.714
972.91	513.7	133.509
973.01	513.6	186.137
973.11	513.5	57.9985
973.21	513.4	28.3595
973.31	513.3	63.3203
973.41	513.2	102.681
973.51	513.1	117.942
973.61	513	102.135
973.71	512.9	24.2288
973.81	512.8	-38.2111
973.91	512.7	61.1821
974.01	512.6	-54.0248
974.11	512.5	39.4015
974.21	512.4	22.261
974.31	512.3	67.387
974.41	512.2	16.6795
974.51	512.1	8.80522
974.61	512	94.8975
974.71	511.9	75.5229
974.81	511.8	89.6816
974.91	511.7	89.6068
975.01	511.6	63.2986
975.11	511.5	73.2235
975.21	511.4	55.9484
975.31	511.3	70.2064
975.41	511.2	68.4977
975.51	511.1	42.0888
975.61	511	-48.9868
975.71	510.9	52.6375
975.81	510.8	113.095
975.91	510.7	20.0191
976.01	510.6	-43.4236
976.11	510.5	8.53357
976.21	510.4	-21.176
976.31	510.3	84.1477
976.41	510.2	-4.16207
976.51	510.1	140.261
976.61	510	79.1848
976.71	509.9	100.408
976.81	509.8	2.8314
976.91	509.7	-6.67877
977.01	509.6	12.311
977.11	509.5	142.267
977.21	509.4	91.7903
977.31	509.3	16.9465
977.41	509.2	50.1693
977.51	509.1	56.2587
977.61	509	23.848
977.71	508.9	5.6706
977.81	508.8	98.0598
977.91	508.7	49.349
978.01	508.6	126.805
978.11	508.5	60.3271
978.21	508.4	116.749
978.31	508.3	35.1051
978.41	508.2	-60.406
978.51	508.1	101.55
978.61	508	49.8384
978.71	507.9	69.4605
978.81	507.8	74.2493
978.91	507.7	95.738
979.01	507.6	45.2933
979.11	507.5	114.849
979.21	507.4	18.404
979.31	507.3	47.0259
979.41	507.2	68.1145
979.51	507.1	37.0698
979.61	507	9.62501
979.71	506.9	88.8469
979.81	506.8	-8.43125
979.91	506.7	-53.6761
980.01	506.6	1.27913
980.11	506.5	-16.999
980.21	506.4	140.156
980.31	506.3	0
980.41	506.2	0
980.51	506.1	0
980.61	506	0
980.71	505.9	0
980.81	505.8	0
980.91	505.7	0
981.01	505.6	0
981.11	505.5	0
981.21	505.4	0
981.31	505.3	0
981.41	505.2	0
981.51	505.1	0
981.61	505	0
981.71	504.9	0
981.81	504.8	0
981.91	504.7	0
982.01	504.6	0
982.11	504.5	0
982.21	504.4	0
982.31	504.3	0
982.41	504.2	0
982.51	504.1	0
982.61	504	0
982.71	503.9	0
982.81	503.8	0
982.91	503.7	0
983.01	503.6	0
983.11	503.5	0
983.21	503.4	0
983.31	503.3	0
983.41	503.2	0
983.51	503.1	0
983.61	503	0
983.71	502.9	0
983.81	502.8	0
983.91	502.7	0
984.01	502.6	0
984.11	502.5	0
984.21	502.4	0
984.31	502.3	0
984.41	502.2	0
984.51	502.1	0
984.61	502	0
984.71	501.9	0
984.81	501.8	0
984.91	501.7	0
985.01	501.6	0
985.11	501.5	0
985.21	501.4	0
985.31	501.3	0
985.41	501.2	0
985.51	501.1	0
985.61	501	0
985.71	500.9	0
985.81	500.8	0
985.91	500.7	0
986.01	500.6	0
986.11	500.5	0
986.21	500.4	0
986.31	500.3	0
986.41	500.2	0
986.51	500.1	0
986.61	500	0