VAMAS Surface Chemical Analysis Standard Data Transfer Format 1988 May 4
Not Specified
Not Specified
Not Specified
Not Specified
6
Casa Info Follows CasaXPS Version 2.3.24PR1.0
0
Created by SpecsLab Prodigy, Version 4.64.1-r88350 
SourceAnalyserAngle: 56.500000 d
CasaRowLabel:1. Ag in 2 mbar H2
CasaRowLabel:1. Ag in vacuum
NORM
REGULAR
0
1
Exp Variable
d
0
0
0
0
2
Ag3d
1. Ag in 2 mbar H2
2020
3
13
13
1
6
0
14
Casa Info Follows
0
0
0
0
EX340_CEC356_effect of lens modes.sle
Group = Ag in 2 mbar H2
First of group = 0
Analyzer lens = AngleResolvedMode22:1.5kV
Analyzer slit = 4:7x20c\C:mesh
Scan mode = FixedAnalyzerTransmission
Kinetic energy start = 1036.61
Sum of 19 spectra in column containing 19 scans
C:\Users\pielsticker\Lukas\MPI-CEC\Projects\Gas phase background\inelasticscattering\data\H2\Au, Ag, Cu in H2.vms
XPS
1
Al
1486.61
0
0
0
54.5
180
FAT
20
1
4.156
0
0
0
0
0
Ag3d

-1
kinetic energy
eV
1036.61
0.1
2
counts
d
Transmission
d
pulse counting
1.9
1
0
0
0
0
2
ESCAPE DEPTH TYPE
d
0
MFP Exponent
d
0
2002
75.3769
8006.22
2.57029
2.69189
11561.9
2.69189
11584.5
2.69176
11635.6
2.69162
11655.9
2.69149
11670.5
2.69136
11669.8
2.69123
11560.4
2.6911
11550.4
2.69097
11480.7
2.69084
11711.4
2.69071
11701.4
2.69058
11479
2.69045
11542.4
2.69032
11616.9
2.69019
11689.5
2.69006
11534
2.68993
11425.4
2.6898
11676.2
2.68967
11671.3
2.68954
11622
2.68941
11621.7
2.68928
11504.8
2.68915
11645.6
2.68902
11723.8
2.68889
11882.8
2.68876
11626
2.68863
11682.8
2.6885
11747.4
2.68837
11587.1
2.68824
11600.4
2.68811
11650.8
2.68798
11596.5
2.68785
11576.8
2.68772
11553.6
2.68759
11702.5
2.68746
11621.7
2.68733
11648.2
2.6872
11654.5
2.68708
11586.8
2.68695
11818.6
2.68682
11772.1
2.68669
11697.9
2.68656
11583.9
2.68643
11734.4
2.6863
11551.9
2.68617
11710.7
2.68604
11732.8
2.68591
11642.3
2.68578
11552.9
2.68565
11709.1
2.68552
11642.9
2.68539
11749.5
2.68526
11740.3
2.68513
11623
2.685
11713.3
2.68487
11705.2
2.68474
11725.5
2.68461
11853.5
2.68449
11784.3
2.68436
11721.6
2.68423
11600.2
2.6841
11704.3
2.68397
11707.2
2.68384
11718.8
2.68371
11919.3
2.68358
11767.2
2.68345
11716.1
2.68332
11695.1
2.68319
11645.5
2.68306
11700.8
2.68294
11723.1
2.68281
11707.6
2.68268
11608.8
2.68255
11606.2
2.68242
11557.4
2.68229
11671.7
2.68216
11783.7
2.68203
11795
2.6819
11679.6
2.68177
11748.6
2.68165
11830.7
2.68152
11781.1
2.68139
11999.6
2.68126
11883.1
2.68113
11630.9
2.681
11592.8
2.68087
11547.8
2.68074
11711.8
2.68062
11679.5
2.68049
11702.3
2.68036
11654.1
2.68023
11779.6
2.6801
11634.1
2.67997
11716.7
2.67984
11716.1
2.67971
11774.5
2.67959
11745.9
2.67946
11693.3
2.67933
11677.3
2.6792
11771.9
2.67907
11632.9
2.67894
11658.2
2.67881
11804.3
2.67869
11871.2
2.67856
11748.3
2.67843
11719.2
2.6783
11963.2
2.67817
11800.4
2.67804
11810.2
2.67792
11769.5
2.67779
11646.2
2.67766
11700
2.67753
11654.6
2.6774
11626.7
2.67727
11608.5
2.67715
11661.4
2.67702
11811.2
2.67689
11681.9
2.67676
11638
2.67663
11813.8
2.67651
11869.9
2.67638
11823.5
2.67625
11625.1
2.67612
11637.8
2.67599
11736.6
2.67586
11752.2
2.67574
11816.8
2.67561
11774.1
2.67548
11832.7
2.67535
11812.6
2.67522
11744.7
2.6751
11798
2.67497
11737.9
2.67484
11768.1
2.67471
11669.5
2.67459
11782.9
2.67446
11780
2.67433
11789.5
2.6742
11674
2.67407
11864.1
2.67395
11943.3
2.67382
11839.7
2.67369
11751.6
2.67356
11774.5
2.67344
11923.2
2.67331
11854.5
2.67318
11505
2.67305
11658.9
2.67292
11864.1
2.6728
12086.8
2.67267
11909.3
2.67254
12010.9
2.67241
11668.3
2.67229
11752.3
2.67216
11787.5
2.67203
11681.2
2.6719
11715.6
2.67178
11843.3
2.67165
11833.9
2.67152
12002
2.67139
11785.5
2.67127
11660.8
2.67114
11688.1
2.67101
11661.2
2.67088
11651.6
2.67076
11670.7
2.67063
11877.9
2.6705
11741.7
2.67038
11785
2.67025
11736.8
2.67012
11711
2.66999
11971.8
2.66987
11947.2
2.66974
11776.9
2.66961
11833.9
2.66949
11872.3
2.66936
11872.2
2.66923
11933.3
2.6691
11840.6
2.66898
11876.6
2.66885
11856.5
2.66872
11949.2
2.6686
11889.9
2.66847
11952.2
2.66834
11923.1
2.66821
11902.4
2.66809
11720.5
2.66796
11774
2.66783
11854.9
2.66771
11876.5
2.66758
11914.2
2.66745
11999
2.66733
11977.4
2.6672
12089.3
2.66707
11861.2
2.66695
12025.5
2.66682
12059
2.66669
11968.2
2.66657
11838.8
2.66644
11893.3
2.66631
11902.7
2.66619
11881.3
2.66606
11908.9
2.66593
11969.1
2.66581
11944.6
2.66568
11904.8
2.66555
11780
2.66543
11941.1
2.6653
11997.6
2.66517
11948.8
2.66505
12030.2
2.66492
12015.5
2.66479
11945.3
2.66467
11933
2.66454
11983.7
2.66441
12122.6
2.66429
12022.1
2.66416
11953.8
2.66403
11965
2.66391
11991.1
2.66378
12008
2.66366
12196.7
2.66353
12001
2.6634
12117.9
2.66328
12129.8
2.66315
11879.9
2.66302
11767
2.6629
12029.1
2.66277
11955.9
2.66265
11998.3
2.66252
12008.1
2.66239
11908.2
2.66227
11884.9
2.66214
11890.1
2.66202
12056.1
2.66189
12002.9
2.66176
12027.5
2.66164
12058.9
2.66151
12170.2
2.66139
12064.4
2.66126
12035.6
2.66113
11933.1
2.66101
12158.7
2.66088
12020.2
2.66076
12017.6
2.66063
12183.3
2.6605
12269.7
2.66038
12139.2
2.66025
12136.2
2.66013
11877.5
2.66
12117.2
2.65987
12154.8
2.65975
12077.6
2.65962
12207.9
2.6595
12273
2.65937
12095.7
2.65925
12124
2.65912
12054.1
2.65899
12261.4
2.65887
12248
2.65874
12191.9
2.65862
12159.6
2.65849
12131.7
2.65837
12002.8
2.65824
12196.8
2.65812
12255.1
2.65799
12271.4
2.65786
12296.7
2.65774
12222.2
2.65761
12276.3
2.65749
12238.2
2.65736
12142.7
2.65724
12124.1
2.65711
12143.3
2.65699
12155
2.65686
12152
2.65674
12150.8
2.65661
12416.2
2.65649
12287.3
2.65636
12255.4
2.65624
12214.9
2.65611
12232
2.65598
12260
2.65586
12153.2
2.65573
12176.7
2.65561
12323.3
2.65548
12309.9
2.65536
12352.8
2.65523
12374.5
2.65511
12264.6
2.65498
12090.3
2.65486
12213.5
2.65473
12232.2
2.65461
12168.8
2.65448
12295.1
2.65436
12371
2.65423
12336.9
2.65411
12277.1
2.65398
12115.9
2.65386
12183.6
2.65373
12210
2.65361
12207.3
2.65348
12258.3
2.65336
12175.3
2.65323
12175.4
2.65311
12439.4
2.65298
12390.6
2.65286
12192.5
2.65273
12281.5
2.65261
12207.6
2.65249
12131.3
2.65236
12269
2.65224
12278.5
2.65211
12305.2
2.65199
12214.1
2.65186
12160.1
2.65174
12329.8
2.65161
12181
2.65149
12214.9
2.65136
12422.5
2.65124
12410.7
2.65111
12355.6
2.65099
12411.1
2.65087
12421.7
2.65074
12295.3
2.65062
12234.8
2.65049
12391.6
2.65037
12483.4
2.65024
12351
2.65012
12443.7
2.64999
12397.8
2.64987
12270
2.64975
12353
2.64962
12385
2.6495
12516.3
2.64937
12408.4
2.64925
12329.4
2.64912
12455
2.649
12372.7
2.64888
12365.9
2.64875
12266.8
2.64863
12180.1
2.6485
12499.7
2.64838
12595.6
2.64826
12499.8
2.64813
12592.7
2.64801
12465
2.64788
12316.3
2.64776
12495.2
2.64763
12651
2.64751
12387.2
2.64739
12429.6
2.64726
12590.6
2.64714
12403.1
2.64701
12469
2.64689
12566.2
2.64677
12680.4
2.64664
12699.7
2.64652
12559.7
2.6464
12662.3
2.64627
12531.5
2.64615
12629.6
2.64602
12560.3
2.6459
12637.1
2.64578
12645.7
2.64565
12599.5
2.64553
12554.5
2.6454
12624.1
2.64528
12636.8
2.64516
12569.7
2.64503
12452.1
2.64491
12547.5
2.64479
12587.6
2.64466
12546.2
2.64454
12477
2.64442
12536.5
2.64429
12656.2
2.64417
12580.7
2.64404
12677.9
2.64392
12702.7
2.6438
12685.5
2.64367
12805.9
2.64355
12679.9
2.64343
12661.2
2.6433
12732.5
2.64318
12585.7
2.64306
12817.7
2.64293
12658.9
2.64281
12471.5
2.64269
12709.4
2.64256
12760.1
2.64244
12766
2.64232
12837.4
2.64219
12921.5
2.64207
12862
2.64195
12811.9
2.64182
12763.3
2.6417
12739.3
2.64158
12694.1
2.64145
12844.9
2.64133
13016.4
2.64121
12806.7
2.64108
12904.2
2.64096
13001.7
2.64084
12990.2
2.64072
12921.4
2.64059
12937.1
2.64047
12741.1
2.64035
12804.6
2.64022
12782
2.6401
12967.9
2.63998
12957.4
2.63985
12972.4
2.63973
12934.1
2.63961
12997.2
2.63949
12843.9
2.63936
12861.4
2.63924
12840.7
2.63912
12933.6
2.63899
13006.7
2.63887
12998.9
2.63875
12994.6
2.63863
12951.7
2.6385
13048.4
2.63838
12943.5
2.63826
13063.1
2.63813
12997
2.63801
12969.9
2.63789
13167
2.63777
13007.7
2.63764
12874.2
2.63752
12889.2
2.6374
13143.7
2.63728
13154.7
2.63715
13223
2.63703
13306.9
2.63691
13082.2
2.63679
13252.1
2.63666
13096.5
2.63654
13255.2
2.63642
13155.7
2.6363
13125.4
2.63617
13018.4
2.63605
13134.5
2.63593
13238.8
2.63581
13205.3
2.63568
13221.5
2.63556
13158.2
2.63544
13132.4
2.63532
13191.2
2.63519
13116.1
2.63507
13149.5
2.63495
13252.8
2.63483
13330.2
2.63471
13311.9
2.63458
13289.4
2.63446
13286
2.63434
13290.8
2.63422
13317.4
2.63409
13451.6
2.63397
13338.7
2.63385
13390.2
2.63373
13612.8
2.63361
13312.1
2.63348
13382.8
2.63336
13594.3
2.63324
13372.1
2.63312
13338.9
2.633
13525
2.63287
13612.3
2.63275
13570
2.63263
13528.6
2.63251
13687
2.63239
13469.1
2.63226
13390.3
2.63214
13570.5
2.63202
13544.3
2.6319
13540.1
2.63178
13517.5
2.63166
13520.6
2.63153
13539.2
2.63141
13492.3
2.63129
13676.5
2.63117
13897.6
2.63105
13833.5
2.63092
13773.1
2.6308
13735.1
2.63068
13744.7
2.63056
13912.6
2.63044
13852.5
2.63032
13853.2
2.63019
13967.1
2.63007
14025.6
2.62995
13917.7
2.62983
13920.7
2.62971
13944.6
2.62959
13969.5
2.62947
13968.9
2.62934
14015.6
2.62922
14049.9
2.6291
14049.5
2.62898
14048
2.62886
13991.4
2.62874
14044.9
2.62862
14231.1
2.62849
14353.6
2.62837
14383.3
2.62825
14284.6
2.62813
14223.1
2.62801
14279.3
2.62789
14452.2
2.62777
14346
2.62764
14171.5
2.62752
13935.8
2.6274
14043.3
2.62728
14130.8
2.62716
14239.5
2.62704
14117
2.62692
14032.8
2.6268
13994.6
2.62668
14000.2
2.62655
13967.5
2.62643
13961.3
2.62631
13970.9
2.62619
13981.5
2.62607
14020.5
2.62595
13934.9
2.62583
13830.1
2.62571
14108.8
2.62559
14008.3
2.62547
13875
2.62534
14016
2.62522
14097.3
2.6251
13975.7
2.62498
14093.2
2.62486
14100.1
2.62474
14204.6
2.62462
13941.3
2.6245
14081.6
2.62438
14147.9
2.62426
14111.3
2.62414
14133.8
2.62401
14194.2
2.62389
14287.4
2.62377
14514.7
2.62365
14331.9
2.62353
14406.3
2.62341
14225.4
2.62329
14302.7
2.62317
14309.3
2.62305
14374.1
2.62293
14479.4
2.62281
14439.4
2.62269
14583.4
2.62257
14779.2
2.62245
14838.5
2.62233
14753.9
2.62221
14846.7
2.62209
14881.6
2.62196
15077.9
2.62184
14904.1
2.62172
14936.1
2.6216
14752.4
2.62148
14873.8
2.62136
14976
2.62124
14943.2
2.62112
15001.2
2.621
14985.3
2.62088
14915.5
2.62076
14861.2
2.62064
14765
2.62052
14939.7
2.6204
15056.4
2.62028
15088.6
2.62016
14841.2
2.62004
14902.6
2.61992
14909.1
2.6198
14933.6
2.61968
14750.5
2.61956
14858
2.61944
14852.8
2.61932
14688.8
2.6192
14877.5
2.61908
14809.8
2.61896
14779.3
2.61884
14735
2.61872
14952.6
2.6186
14931.4
2.61848
14876.1
2.61836
14924.9
2.61824
14874.5
2.61812
14831.2
2.618
15035
2.61788
14908.4
2.61776
15001.9
2.61764
15055.7
2.61752
15100.7
2.6174
15143.3
2.61728
15048.4
2.61716
14900.2
2.61704
14964.3
2.61692
15109.5
2.6168
14964.4
2.61668
15027.9
2.61656
14938.7
2.61644
14978.2
2.61632
15099.2
2.6162
15262.4
2.61608
15150.4
2.61596
15323.3
2.61584
15177.6
2.61572
15418.5
2.6156
15486.9
2.61548
15351.4
2.61536
15334
2.61524
15220.8
2.61512
15333.9
2.61501
15352.8
2.61489
15500.6
2.61477
15715.9
2.61465
15936
2.61453
16013.1
2.61441
16203.4
2.61429
16568.8
2.61417
17004.6
2.61405
17128.5
2.61393
17455
2.61381
17978.1
2.61369
18368.8
2.61357
18501.2
2.61345
18783
2.61333
18744.9
2.61321
18830.1
2.6131
18543.8
2.61298
18203.4
2.61286
17885.7
2.61274
17609
2.61262
17052.3
2.6125
16773.4
2.61238
16393.6
2.61226
16005.6
2.61214
15545
2.61202
15117.4
2.6119
14782
2.61178
14547.8
2.61167
14110.2
2.61155
13851.6
2.61143
13744.3
2.61131
13538.8
2.61119
13383.3
2.61107
13614.3
2.61095
13566.8
2.61083
13349.6
2.61071
13533.9
2.61059
13420.6
2.61048
13498.7
2.61036
13480.7
2.61024
13412.3
2.61012
13625.5
2.61
13572.8
2.60988
13572.8
2.60976
13584.4
2.60964
13699.2
2.60953
13441.4
2.60941
13736.9
2.60929
13667.4
2.60917
13730.7
2.60905
13867
2.60893
13644.9
2.60881
13689.9
2.60869
13971
2.60858
13841.7
2.60846
13890.1
2.60834
14061.1
2.60822
13992.5
2.6081
13934.6
2.60798
14188
2.60786
14093.8
2.60775
14186.5
2.60763
14350.5
2.60751
14533.9
2.60739
14567.9
2.60727
14881.6
2.60715
15394.7
2.60703
15655.2
2.60692
16098.5
2.6068
16546.2
2.60668
17097.7
2.60656
17499.6
2.60644
17776.9
2.60632
18081.6
2.60621
18057.2
2.60609
18196.3
2.60597
18032.7
2.60585
17662.6
2.60573
16991.6
2.60561
16449.2
2.6055
15687.7
2.60538
15052.2
2.60526
14017.7
2.60514
13409.6
2.60502
12999
2.60491
12349.9
2.60479
11953.2
2.60467
11657.5
2.60455
11044.8
2.60443
10591.5
2.60432
10585.5
2.6042
10448.2
2.60408
10313.1
2.60396
10082.6
2.60384
10109.9
2.60373
10200.4
2.60361
10213.8
2.60349
10536.1
2.60337
10557.3
2.60325
10672
2.60314
10957
2.60302
11243
2.6029
11494.9
2.60278
11629.4
2.60266
11518.2
2.60255
11436.3
2.60243
11354.2
2.60231
11031
2.60219
10832.7
2.60208
10400.5
2.60196
10316.7
2.60184
10157
2.60172
10106.4
2.6016
10013.7
2.60149
10147.4
2.60137
10206
2.60125
10206.8
2.60113
10384.5
2.60102
10607.5
2.6009
10728
2.60078
10815.6
2.60066
11075.9
2.60055
11321.1
2.60043
11656.9
2.60031
11896.4
2.60019
12257.5
2.60008
12725.2
2.59996
13192
2.59984
13896.5
2.59972
14763.8
2.59961
15719.7
2.59949
17141.6
2.59937
19117.4
2.59925
22152.4
2.59914
26625.2
2.59902
33582.5
2.5989
43318.8
2.59878
57468.9
2.59867
74850.4
2.59855
93390.3
2.59843
107111
2.59832
111095
2.5982
104582
2.59808
88986.1
2.59796
68274.6
2.59785
47903.5
2.59773
32301.7
2.59761
22847.9
2.5975
17092.9
2.59738
13978.3
2.59726
12103.4
2.59714
10924.4
2.59703
10180.3
2.59691
9721.88
2.59679
9402.23
2.59668
9248
2.59656
8928.65
2.59644
8868.25
2.59632
9076.9
2.59621
9301.12
2.59609
9495.57
2.59597
9653.96
2.59586
9980.5
2.59574
9934.11
2.59562
9875.02
2.59551
9706.89
2.59539
9376.59
2.59527
8833.32
2.59516
8224.31
2.59504
7863.67
2.59492
7558.45
2.59481
7328.34
2.59469
7101.76
2.59457
7042.67
2.59446
6882.32
2.59434
7068.25
2.59422
7245.91
2.59411
7271.99
2.59399
7407.89
2.59387
7660.71
2.59376
7868.99
2.59364
8252.69
2.59352
8583.35
2.59341
8797.49
2.59329
9262.59
2.59317
9971.83
2.59306
10610.8
2.59294
11338.1
2.59282
12456
2.59271
13707.3
2.59259
15305.5
2.59247
17411.8
2.59236
20461.9
2.59224
24812.5
2.59212
31347.8
2.59201
41298.4
2.59189
55695.2
2.59178
75584.5
2.59166
100526
2.59154
126759
2.59143
147039
2.59131
153252
2.59119
144305
2.59108
122131
2.59096
92414.2
2.59084
63613.9
2.59073
40908.7
2.59061
26784
2.5905
18648.3
2.59038
13718.7
2.59026
10755.3
2.59015
8772.33
2.59003
7478.88
2.58992
6502.22
2.5898
5710.42
2.58968
5272.49
2.58957
4823.36
2.58945
4410.9
2.58934
4140.85
2.58922
3903.59
2.5891
3700.19
2.58899
3546.43
2.58887
3358.13
2.58876
3264.72
2.58864
3173.32
2.58852
3133.94
2.58841
3040.37
2.58829
2939.17
2.58818
2860.47
2.58806
2765.2
2.58794
2669.98
2.58783
2608.92
2.58771
2530.97
2.5876
2498.37
2.58748
2511.09
2.58736
2491.29
2.58725
2463.37
2.58713
2398.33
2.58702
2420.52
2.5869
2363.52
2.58679
2225.81
2.58667
2170.08
2.58655
2205.81
2.58644
2174.55
2.58632
2166.76
2.58621
2201.05
2.58609
2148.34
2.58598
2116.09
2.58586
2172.17
2.58575
2212.34
2.58563
2172.82
2.58551
2107.48
2.5854
2083.27
2.58528
2090.89
2.58517
2137.58
2.58505
2086.8
2.58494
2097.63
2.58482
2076.11
2.58471
2015.3
2.58459
2032.81
2.58448
2105.73
2.58436
1979.18
2.58425
2022.16
2.58413
1986.78
2.58401
1965.13
2.5839
1954.6
2.58378
1967.52
2.58367
1933.73
2.58355
1853.56
2.58344
1866.17
2.58332
1859.72
2.58321
1904.6
2.58309
1925.27
2.58298
1881.14
2.58286
1868.77
2.58275
1892.51
2.58263
1955.63
2.58252
1903.34
2.5824
1924.36
2.58229
1890.38
2.58217
1865.87
2.58206
1897.15
2.58194
1858.42
2.58183
1868.85
2.58171
1864.5
2.5816
1877.63
2.58148
1863.31
2.58137
1899.8
2.58125
1884.49
2.58114
1907.43
2.58102
1913.14
2.58091
1807.43
2.58079
1847.32
2.58068
1844.6
2.58056
1838.66
2.58045
1822.83
2.58033
1859.93
2.58022
1891.2
2.5801
1852.73
2.57999
1826.05
2.57987
1870.99
2.57976
1859.65
2.57964
1848.21
2.57953
1860.22
2.57941
1828.22
2.5793
1809.5
2.57918
1848.08
2.57907
1827.77
2.57896
1835.28
2.57884
1882.76
2.57873
1796.73
2.57861
1852.08
2.5785
1851.16
2.57838
1867.66
2.57827
1795.22
2.57815
1820.14
2.57804
1851.97
2.57792
1829.21
2.57781
1841.13
2.5777
1879.65
2.57758
1830.81
2.57747
1920.35
2.57735
1886.64
2.57724
1833.04
2.57712
1867.58
2.57701
1892.09
2.57689
1892
2.57678
1884.7
2.57667
1851.61
2.57655
1822.95
2.57644
1779.33
2.57632
1810.62
2.57621
1783.16
2.57609
1806.66
2.57598
1848.59
2.57587
1828.17
2.57575
1821.29
2.57564
1823.75
2.57552
1842.75
2.57541
1852.99
2.5753
1853.12
2.57518
1836.74
2.57507
1855.1
2.57495
1841.78
2.57484
1867.58
2.57472
1842.06
2.57461
1802.93
2.5745
1839.79
2.57438
1879.45
2.57427
1846.3
2.57415
1841.34
2.57404
1876.52
2.57393
1844.02
2.57381
1772.02
2.5737
1845.66
2.57358
1786.64
2.57347
1802.99
2.57336
1779.63
2.57324
1828.91
2.57313
1830.47
2.57302
1840.02
2.5729
1796.92
2.57279
1846.3
2.57267
1858.08
2.57256
1841.84
2.57245
1812.68
2.57233
1787.92
2.57222
1829.93
2.5721
1857.73
2.57199
1851.22
2.57188
1890.09
2.57176
1782.31
2.57165
1761.21
2.57154
1845.95
2.57142
1874.56
2.57131
1835.6
2.5712
1805.32
2.57108
1827.53
2.57097
1778.7
2.57085
1876.46
2.57074
1784.85
2.57063
1818.85
2.57051
1815.87
2.5704
1891.93
2.57029
Ag3d
1. Ag in vacuum
2020
3
13
14
35
59
0
14
Casa Info Follows
0
0
0
0
EX340_CEC356_effect of lens modes.sle
Group = Ag in vacuum
First of group = 0
Analyzer lens = AngleResolvedMode22:1.5kV
Analyzer slit = 4:7x20c\C:mesh
Scan mode = FixedAnalyzerTransmission
Kinetic energy start = 1036.61
Sum of 4 spectra in column containing 4 scans
C:\Users\pielsticker\Lukas\MPI-CEC\Projects\Gas phase background\inelasticscattering\data\H2\Au, Ag, Cu in H2.vms
XPS
1
Al
1486.61
0
0
0
54.5
180
FAT
20
1
4.156
0
0
0
0
0
Ag3d

-1
kinetic energy
eV
1036.61
0.1
2
counts
d
Transmission
d
pulse counting
0.4
1
0
0
0
0
2
ESCAPE DEPTH TYPE
d
0
MFP Exponent
d
0
2002
87.5029
12238.8
2.57029
2.69189
2857.07
2.69189
2833.24
2.69176
2753.74
2.69162
2827.88
2.69149
2856.6
2.69136
2902.86
2.69123
2835.15
2.6911
2844.66
2.69097
2914.41
2.69084
2919.88
2.69071
2870.02
2.69058
2831.2
2.69045
2791.87
2.69032
2809.29
2.69019
2784.89
2.69006
2785.64
2.68993
2857.52
2.6898
2864.09
2.68967
2893.91
2.68954
2947.89
2.68941
2853.47
2.68928
2803.86
2.68915
2815.62
2.68902
2809.02
2.68889
2813.64
2.68876
2834.08
2.68863
2924.81
2.6885
2885.83
2.68837
2811.12
2.68824
2821.32
2.68811
2817.78
2.68798
2803.53
2.68785
2814.24
2.68772
2809.68
2.68759
2812.68
2.68746
2900.34
2.68733
2838.2
2.6872
2797.34
2.68708
2915.54
2.68695
2836.12
2.68682
2858.81
2.68669
2824.22
2.68656
2856.88
2.68643
2784.49
2.6863
2806.88
2.68617
2787.68
2.68604
2834.64
2.68591
2850.56
2.68578
2853.22
2.68565
2913.78
2.68552
2875.91
2.68539
2804.38
2.68526
2825.66
2.68513
2826.59
2.685
2889.53
2.68487
2806.19
2.68474
2850.18
2.68461
2794.33
2.68449
2830.88
2.68436
2870.87
2.68423
2887.74
2.6841
2879.71
2.68397
2763.05
2.68384
2824.13
2.68371
2904.93
2.68358
2814
2.68345
2837.23
2.68332
2865.99
2.68319
2877.54
2.68306
2817.03
2.68294
2811.28
2.68281
2829.14
2.68268
2915.02
2.68255
2897.72
2.68242
2913.74
2.68229
2917.09
2.68216
2872.98
2.68203
2817.97
2.6819
2834.58
2.68177
2775.73
2.68165
2797.24
2.68152
2920.83
2.68139
2884.78
2.68126
2755.06
2.68113
2793.57
2.681
2926.67
2.68087
2788.7
2.68074
2856.42
2.68062
2929.77
2.68049
2901.64
2.68036
2800.05
2.68023
2844.16
2.6801
2852.03
2.67997
2884.01
2.67984
2815.21
2.67971
2851.71
2.67959
2896.59
2.67946
2891.09
2.67933
2910.82
2.6792
2886.41
2.67907
2828.57
2.67894
2870.98
2.67881
2863.45
2.67869
2763.47
2.67856
2921.9
2.67843
2872.13
2.6783
2896.59
2.67817
2899.54
2.67804
2813.72
2.67792
2840.9
2.67779
2866.55
2.67766
2824.61
2.67753
2881.07
2.6774
2891.4
2.67727
2821.69
2.67715
2811.37
2.67702
2815.88
2.67689
2879.1
2.67676
2876.46
2.67663
2897.74
2.67651
2929.32
2.67638
2831.61
2.67625
2898.3
2.67612
2826.59
2.67599
2870.7
2.67586
2930.03
2.67574
2913.86
2.67561
2875.25
2.67548
2864.6
2.67535
2857.12
2.67522
2854.86
2.6751
2865.56
2.67497
2975.06
2.67484
2874.53
2.67471
2848.15
2.67459
2932.27
2.67446
2884.38
2.67433
2824.96
2.6742
2780.2
2.67407
2835.28
2.67395
2831.58
2.67382
2841.45
2.67369
2848.68
2.67356
2831.33
2.67344
2927.88
2.67331
2827.66
2.67318
2815.38
2.67305
2821.91
2.67292
2952.84
2.6728
2942.23
2.67267
2860.44
2.67254
2866.47
2.67241
2884.01
2.67229
2947.74
2.67216
2918.27
2.67203
2860.45
2.6719
2872.96
2.67178
2887.47
2.67165
2880.9
2.67152
2853.69
2.67139
2854.92
2.67127
2846.6
2.67114
2842.88
2.67101
2898.5
2.67088
2895.38
2.67076
2860.28
2.67063
2833.48
2.6705
2912.11
2.67038
2879.87
2.67025
2851.6
2.67012
2868.33
2.66999
2875.27
2.66987
2831.02
2.66974
2949.88
2.66961
2889.25
2.66949
2869.24
2.66936
2921.86
2.66923
2862.44
2.6691
2873.25
2.66898
2824.2
2.66885
2876.18
2.66872
2924.51
2.6686
2926.12
2.66847
2874.97
2.66834
2904.18
2.66821
2956.28
2.66809
2879.48
2.66796
2881.68
2.66783
2994.59
2.66771
2910.18
2.66758
2905.13
2.66745
2848.52
2.66733
2887
2.6672
2879.43
2.66707
2824.69
2.66695
2925.28
2.66682
2934.87
2.66669
2930.14
2.66657
2879.33
2.66644
2854.12
2.66631
2970.2
2.66619
2850.45
2.66606
2869.01
2.66593
2901.55
2.66581
2840.93
2.66568
2935.93
2.66555
3009.17
2.66543
2903.34
2.6653
2864.32
2.66517
2778.66
2.66505
2813.71
2.66492
2838.78
2.66479
2815.07
2.66467
2893.96
2.66454
2881.9
2.66441
2881.74
2.66429
2887.96
2.66416
2876.42
2.66403
2892.73
2.66391
2816.94
2.66378
2869.63
2.66366
2968.86
2.66353
2910.99
2.6634
2946.13
2.66328
2855.23
2.66315
2921.57
2.66302
2968.34
2.6629
2952.94
2.66277
2893.45
2.66265
2941.58
2.66252
2934.22
2.66239
2951.3
2.66227
2910.86
2.66214
2866.72
2.66202
2926.35
2.66189
2847.54
2.66176
2941.95
2.66164
2939.61
2.66151
2879.07
2.66139
2958.68
2.66126
2956.63
2.66113
2924.05
2.66101
2955.88
2.66088
2993.39
2.66076
2913.42
2.66063
2929.11
2.6605
2912.11
2.66038
2915.74
2.66025
2905.65
2.66013
2947.91
2.66
2895.24
2.65987
2894.6
2.65975
2951.24
2.65962
2923.02
2.6595
2910.36
2.65937
2915.89
2.65925
2951.38
2.65912
2977.15
2.65899
2922.69
2.65887
2973.22
2.65874
2943.33
2.65862
2921.53
2.65849
2848.78
2.65837
2928.97
2.65824
2947.51
2.65812
3031.16
2.65799
2975.52
2.65786
2950.4
2.65774
2942.34
2.65761
2945.98
2.65749
2972.95
2.65736
2903.4
2.65724
2950.14
2.65711
2971.88
2.65699
2935.49
2.65686
2900.21
2.65674
2923.83
2.65661
2870.42
2.65649
2947.54
2.65636
3010.51
2.65624
2965.95
2.65611
2930.52
2.65598
3029.26
2.65586
2977.83
2.65573
2888.59
2.65561
2936.33
2.65548
3002.61
2.65536
2897.95
2.65523
2891.69
2.65511
2887.72
2.65498
2916.82
2.65486
2965.49
2.65473
2924.38
2.65461
2862.38
2.65448
2921.18
2.65436
2943.74
2.65423
2891.38
2.65411
2880.75
2.65398
3033.13
2.65386
2943.17
2.65373
2918.03
2.65361
2909.36
2.65348
2855.42
2.65336
2963.12
2.65323
2895.88
2.65311
2883.71
2.65298
2847.43
2.65286
2925.27
2.65273
2963.9
2.65261
2983.75
2.65249
3009.15
2.65236
2854.5
2.65224
2894.17
2.65211
2935.44
2.65199
2998.28
2.65186
2990.69
2.65174
2903.16
2.65161
2936.09
2.65149
2999.13
2.65136
2910.88
2.65124
2941.52
2.65111
2939.88
2.65099
2908.63
2.65087
2995.1
2.65074
2937.8
2.65062
2923.75
2.65049
2989.95
2.65037
2998.03
2.65024
3005.36
2.65012
3054.81
2.64999
2933.66
2.64987
2929.4
2.64975
2972.44
2.64962
2965.8
2.6495
2962.32
2.64937
2904.13
2.64925
2883.32
2.64912
2968.61
2.649
2964.36
2.64888
2968.41
2.64875
3073.41
2.64863
3058.68
2.6485
2974.54
2.64838
2894.24
2.64826
2888.41
2.64813
2976.36
2.64801
2950.64
2.64788
2991.97
2.64776
3079.25
2.64763
3108.32
2.64751
3004.79
2.64739
3018.74
2.64726
2950.6
2.64714
2990.63
2.64701
2958.41
2.64689
2933.39
2.64677
2976.81
2.64664
3000.77
2.64652
3004.45
2.6464
3007.48
2.64627
2956.53
2.64615
2971.81
2.64602
2947.77
2.6459
2929.17
2.64578
2969.15
2.64565
3064.49
2.64553
2989.85
2.6454
2981.6
2.64528
2974.2
2.64516
3023.31
2.64503
3007.52
2.64491
3017.24
2.64479
3014.45
2.64466
3008.97
2.64454
2958.98
2.64442
2889.68
2.64429
2984.94
2.64417
2931.97
2.64404
2965.55
2.64392
2977.76
2.6438
2997.68
2.64367
3003.62
2.64355
3004.46
2.64343
3025.39
2.6433
2959.37
2.64318
3012.7
2.64306
2968.01
2.64293
3054.8
2.64281
3021.45
2.64269
3060.95
2.64256
3031.29
2.64244
3011.57
2.64232
2998.85
2.64219
2951.7
2.64207
3003.13
2.64195
3027.36
2.64182
2964.37
2.6417
2931.05
2.64158
3081.93
2.64145
3123.57
2.64133
3075.26
2.64121
3116.1
2.64108
2998.04
2.64096
3072.63
2.64084
3074.81
2.64072
3035.77
2.64059
3053.81
2.64047
3040.81
2.64035
3073.69
2.64022
3070.02
2.6401
3047.09
2.63998
3102.36
2.63985
3053.62
2.63973
3077.33
2.63961
3099.54
2.63949
3069.23
2.63936
3084.92
2.63924
3087.68
2.63912
3113.02
2.63899
3139.43
2.63887
3097.69
2.63875
3077.47
2.63863
3120.02
2.6385
3047.38
2.63838
3068.78
2.63826
3060.61
2.63813
3142.76
2.63801
3122.78
2.63789
3038.49
2.63777
3127.28
2.63764
3094.88
2.63752
3068.11
2.6374
3038.64
2.63728
3047.34
2.63715
3130.5
2.63703
3129.59
2.63691
3216.2
2.63679
3093.19
2.63666
3141.22
2.63654
3150.3
2.63642
3084.52
2.6363
3031.01
2.63617
3217.9
2.63605
3084.27
2.63593
3123.73
2.63581
3143.2
2.63568
3134.74
2.63556
3123.84
2.63544
3174.03
2.63532
3138.98
2.63519
3119.17
2.63507
3146.91
2.63495
3150.99
2.63483
3108.57
2.63471
3129.99
2.63458
3147.61
2.63446
3116.07
2.63434
3145.63
2.63422
3148.45
2.63409
3208.43
2.63397
3122.01
2.63385
3175.25
2.63373
3231.26
2.63361
3156.68
2.63348
3174.24
2.63336
3223.46
2.63324
3203.68
2.63312
3149.39
2.633
3280.24
2.63287
3268.96
2.63275
3193.21
2.63263
3223.91
2.63251
3210.82
2.63239
3260.6
2.63226
3223.96
2.63214
3135.29
2.63202
3189.53
2.6319
3233.24
2.63178
3333.09
2.63166
3245.2
2.63153
3269.78
2.63141
3221.3
2.63129
3209.04
2.63117
3256.45
2.63105
3307.28
2.63092
3289.22
2.6308
3255.82
2.63068
3237.78
2.63056
3275.11
2.63044
3264.36
2.63032
3343.32
2.63019
3336.19
2.63007
3323.76
2.62995
3375.38
2.62983
3340.91
2.62971
3388.2
2.62959
3345.19
2.62947
3348.08
2.62934
3269.96
2.62922
3330.75
2.6291
3431.02
2.62898
3392.59
2.62886
3372.96
2.62874
3341.52
2.62862
3428.71
2.62849
3372.38
2.62837
3398.35
2.62825
3440.37
2.62813
3367.41
2.62801
3382.53
2.62789
3407.72
2.62777
3424.47
2.62764
3355.38
2.62752
3305.16
2.6274
3328.7
2.62728
3314.24
2.62716
3332.17
2.62704
3491.76
2.62692
3503.91
2.6268
3410.09
2.62668
3421.63
2.62655
3399.37
2.62643
3331.52
2.62631
3404.76
2.62619
3482.84
2.62607
3494.73
2.62595
3411.11
2.62583
3417.88
2.62571
3370.8
2.62559
3405.29
2.62547
3375.84
2.62534
3368.85
2.62522
3330.82
2.6251
3348.01
2.62498
3356.18
2.62486
3351.42
2.62474
3495.16
2.62462
3414.51
2.6245
3393.13
2.62438
3388.24
2.62426
3364.01
2.62414
3393.94
2.62401
3496.37
2.62389
3427.43
2.62377
3427.79
2.62365
3324.78
2.62353
3377.26
2.62341
3418.83
2.62329
3444.08
2.62317
3438.36
2.62305
3488.08
2.62293
3585.66
2.62281
3505.28
2.62269
3492.09
2.62257
3385.32
2.62245
3488.32
2.62233
3552.28
2.62221
3531.58
2.62209
3485.02
2.62196
3609.61
2.62184
3597.38
2.62172
3422.58
2.6216
3532.72
2.62148
3551.38
2.62136
3621.11
2.62124
3518.45
2.62112
3606.83
2.621
3520.13
2.62088
3519.25
2.62076
3532.14
2.62064
3584.9
2.62052
3632.09
2.6204
3577.63
2.62028
3511.58
2.62016
3544.34
2.62004
3504.88
2.61992
3557.62
2.6198
3534.93
2.61968
3519.11
2.61956
3553
2.61944
3514.45
2.61932
3469.07
2.6192
3549.94
2.61908
3466.39
2.61896
3537.65
2.61884
3581.88
2.61872
3497.81
2.6186
3477.45
2.61848
3504.41
2.61836
3512.93
2.61824
3502.92
2.61812
3432.27
2.618
3479.97
2.61788
3464.88
2.61776
3317.52
2.61764
3399.24
2.61752
3397.01
2.6174
3393.53
2.61728
3365.97
2.61716
3416.69
2.61704
3420.46
2.61692
3388.05
2.6168
3400.43
2.61668
3433.83
2.61656
3425.58
2.61644
3403.39
2.61632
3456.49
2.6162
3399.07
2.61608
3345.04
2.61596
3402.03
2.61584
3371.74
2.61572
3432.74
2.6156
3355.07
2.61548
3437.66
2.61536
3483.19
2.61524
3359.01
2.61512
3302.25
2.61501
3348.37
2.61489
3381.98
2.61477
3429.99
2.61465
3395.65
2.61453
3453.45
2.61441
3386.55
2.61429
3404.85
2.61417
3426.98
2.61405
3421.97
2.61393
3362.25
2.61381
3402.09
2.61369
3404.76
2.61357
3366.09
2.61345
3323.59
2.61333
3379.06
2.61321
3465.26
2.6131
3321.06
2.61298
3343.85
2.61286
3468.32
2.61274
3416.9
2.61262
3393.53
2.6125
3409.52
2.61238
3407.01
2.61226
3309.99
2.61214
3361.74
2.61202
3229.14
2.6119
3297.41
2.61178
3257.09
2.61167
3150.22
2.61155
3334.64
2.61143
3255.33
2.61131
3353.49
2.61119
3226.97
2.61107
3258.86
2.61095
3258.15
2.61083
3279.29
2.61071
3252.84
2.61059
3193.7
2.61048
3252.05
2.61036
3274.7
2.61024
3192.37
2.61012
3227.01
2.61
3234.53
2.60988
3130.44
2.60976
3160.7
2.60964
3199.93
2.60953
3255.71
2.60941
3098.26
2.60929
3191.3
2.60917
3193.95
2.60905
3237.19
2.60893
3348.51
2.60881
3277.1
2.60869
3214.74
2.60858
3303.56
2.60846
3240.53
2.60834
3207.37
2.60822
3294.33
2.6081
3226.99
2.60798
3298.35
2.60786
3266.27
2.60775
3208.01
2.60763
3167.23
2.60751
3168.6
2.60739
3099.28
2.60727
3206.05
2.60715
3152.47
2.60703
3156.7
2.60692
3174.34
2.6068
3280.57
2.60668
3186.04
2.60656
3127.64
2.60644
3124.07
2.60632
3175.14
2.60621
3128.05
2.60609
3125.43
2.60597
3151.22
2.60585
3060.29
2.60573
3068.77
2.60561
2946.58
2.6055
2960.66
2.60538
3028.48
2.60526
2976.23
2.60514
2999.45
2.60502
3004.24
2.60491
2964.88
2.60479
3029.37
2.60467
3067.67
2.60455
3064.59
2.60443
3067.84
2.60432
3082.77
2.6042
3054.58
2.60408
3051.35
2.60396
3035.32
2.60384
3051.1
2.60373
3112.17
2.60361
3189.03
2.60349
3198.9
2.60337
3230.24
2.60325
3316.85
2.60314
3356.5
2.60302
3464.4
2.6029
3558.9
2.60278
3586.2
2.60266
3642.66
2.60255
3582.36
2.60243
3542.15
2.60231
3459.33
2.60219
3334.59
2.60208
3206.19
2.60196
3134.68
2.60184
3053.94
2.60172
3085.31
2.6016
3118.62
2.60149
3187.76
2.60137
3190.69
2.60125
3161.97
2.60113
3292.48
2.60102
3248.87
2.6009
3350.62
2.60078
3368.89
2.60066
3418.73
2.60055
3528.8
2.60043
3601
2.60031
3643.9
2.60019
3752.03
2.60008
3920.24
2.59996
4084.01
2.59984
4363.17
2.59972
4597.26
2.59961
4895.09
2.59949
5284.81
2.59937
5960.07
2.59925
6960.25
2.59914
8264.58
2.59902
10592.6
2.5989
13791.5
2.59878
18335.9
2.59867
23986.2
2.59855
29952.4
2.59843
34124.8
2.59832
35775
2.5982
33765.5
2.59808
28898
2.59796
22114
2.59785
15286.7
2.59773
10189.8
2.59761
7196.63
2.5975
5508.77
2.59738
4360.2
2.59726
3837.42
2.59714
3391.18
2.59703
3085.54
2.59691
2975.7
2.59679
2862.63
2.59668
2717.83
2.59656
2687.35
2.59644
2698.81
2.59632
2657.41
2.59621
2828.3
2.59609
2891.34
2.59597
3019.78
2.59586
3153.05
2.59574
3136.5
2.59562
3023.93
2.59551
2954.21
2.59539
2827.72
2.59527
2700.78
2.59516
2560.35
2.59504
2427.98
2.59492
2217.05
2.59481
2167.76
2.59469
2179.52
2.59457
2142.49
2.59446
2061.99
2.59434
2182.71
2.59422
2159.07
2.59411
2149.41
2.59399
2248.25
2.59387
2343.76
2.59376
2365.24
2.59364
2447.95
2.59352
2529.86
2.59341
2712.54
2.59329
2843.44
2.59317
3115.59
2.59306
3291.44
2.59294
3504.81
2.59282
3865.72
2.59271
4261.89
2.59259
4742.92
2.59247
5438.01
2.59236
6441.88
2.59224
7765.33
2.59212
9944.58
2.59201
13232.6
2.59189
17596.2
2.59178
24208.9
2.59166
32420.9
2.59154
40928.7
2.59143
47382.8
2.59131
49208.8
2.59119
46211.1
2.59108
39223.6
2.59096
29837.3
2.59084
20322.9
2.59073
13114.5
2.59061
8457.25
2.5905
5806.82
2.59038
4231.13
2.59026
3259.78
2.59015
2701.71
2.59003
2201.08
2.58992
1993.08
2.5898
1758.94
2.58968
1508.68
2.58957
1394.8
2.58945
1242.44
2.58934
1189.03
2.58922
1108.74
2.5891
1076.66
2.58899
967.283
2.58887
981.759
2.58876
914.749
2.58864
912.61
2.58852
866.324
2.58841
798.27
2.58829
810.996
2.58818
797.105
2.58806
733.067
2.58794
706.667
2.58783
701.751
2.58771
743.889
2.5876
718.557
2.58748
681.297
2.58736
662.937
2.58725
672.93
2.58713
595.24
2.58702
603.936
2.5869
593.299
2.58679
602.854
2.58667
567.709
2.58655
592.83
2.58644
561.154
2.58632
564.906
2.58621
542.357
2.58609
555.85
2.58598
520.702
2.58586
544.698
2.58575
542.382
2.58563
581.561
2.58551
533.89
2.5854
501.88
2.58528
504.277
2.58517
509.75
2.58505
543.529
2.58494
537.075
2.58482
535.111
2.58471
514.576
2.58459
485.351
2.58448
501.943
2.58436
488.189
2.58425
467.946
2.58413
489.193
2.58401
488.079
2.5839
487.648
2.58378
487.527
2.58367
466.997
2.58355
483.415
2.58344
488.342
2.58332
468.792
2.58321
484.675
2.58309
463.817
2.58298
490.386
2.58286
521.197
2.58275
437.96
2.58263
473.591
2.58252
447.887
2.5824
472.047
2.58229
460.992
2.58217
486.831
2.58206
443.75
2.58194
462.357
2.58183
470.029
2.58171
439.674
2.5816
483.18
2.58148
473.886
2.58137
447.907
2.58125
438.704
2.58114
451.076
2.58102
441.545
2.58091
447.033
2.58079
466.001
2.58068
471.768
2.58056
460.631
2.58045
471.637
2.58033
432.706
2.58022
436.755
2.5801
431.541
2.57999
448.36
2.57987
446.789
2.57976
471.727
2.57964
465.895
2.57953
439.112
2.57941
440.675
2.5793
444.204
2.57918
456.214
2.57907
435.53
2.57896
418.248
2.57884
431.956
2.57873
424.728
2.57861
446.64
2.5785
467.1
2.57838
449.988
2.57827
446.62
2.57815
430.343
2.57804
453.128
2.57792
438.585
2.57781
446.686
2.5777
440.987
2.57758
434.129
2.57747
446.087
2.57735
458.334
2.57724
461.08
2.57712
432.505
2.57701
422.364
2.57689
463.508
2.57678
450.416
2.57667
437.516
2.57655
435.055
2.57644
478.485
2.57632
442.623
2.57621
446.841
2.57609
431.248
2.57598
457.673
2.57587
431.707
2.57575
437.824
2.57564
429.878
2.57552
429.419
2.57541
441.681
2.5753
432.305
2.57518
435.763
2.57507
438.638
2.57495
445.324
2.57484
444.572
2.57472
458.841
2.57461
450.185
2.5745
431.635
2.57438
436.597
2.57427
429.15
2.57415
462.607
2.57404
454.111
2.57393
443.606
2.57381
454.599
2.5737
478.454
2.57358
441.647
2.57347
449.955
2.57336
418.446
2.57324
429.237
2.57313
421.486
2.57302
442.965
2.5729
432.843
2.57279
436.575
2.57267
432.657
2.57256
435.84
2.57245
407.023
2.57233
465.513
2.57222
436.505
2.5721
444.331
2.57199
440.031
2.57188
429.901
2.57176
444.949
2.57165
442.046
2.57154
433.93
2.57142
444.731
2.57131
431.573
2.5712
429.822
2.57108
425.235
2.57097
440.348
2.57085
460.461
2.57074
425.515
2.57063
412.668
2.57051
446.56
2.5704
437.912
2.57029
end of experiment
